PPG_Rate_Mean,HRV_MeanNN,HRV_SDNN,HRV_SDANN1,HRV_SDNNI1,HRV_SDANN2,HRV_SDNNI2,HRV_SDANN5,HRV_SDNNI5,HRV_RMSSD,HRV_SDSD,HRV_CVNN,HRV_CVSD,HRV_MedianNN,HRV_MadNN,HRV_MCVNN,HRV_IQRNN,HRV_SDRMSSD,HRV_Prc20NN,HRV_Prc80NN,HRV_pNN50,HRV_pNN20,HRV_MinNN,HRV_MaxNN,HRV_HTI,HRV_TINN,HRV_ULF,HRV_VLF,HRV_LF,HRV_HF,HRV_VHF,HRV_TP,HRV_LFHF,HRV_LFn,HRV_HFn,HRV_LnHF,HRV_SD1,HRV_SD2,HRV_SD1SD2,HRV_S,HRV_CSI,HRV_CVI,HRV_CSI_Modified,HRV_PIP,HRV_IALS,HRV_PSS,HRV_PAS,HRV_GI,HRV_SI,HRV_AI,HRV_PI,HRV_C1d,HRV_C1a,HRV_SD1d,HRV_SD1a,HRV_C2d,HRV_C2a,HRV_SD2d,HRV_SD2a,HRV_Cd,HRV_Ca,HRV_SDNNd,HRV_SDNNa,HRV_DFA_alpha1,HRV_MFDFA_alpha1_Width,HRV_MFDFA_alpha1_Peak,HRV_MFDFA_alpha1_Mean,HRV_MFDFA_alpha1_Max,HRV_MFDFA_alpha1_Delta,HRV_MFDFA_alpha1_Asymmetry,HRV_MFDFA_alpha1_Fluctuation,HRV_MFDFA_alpha1_Increment,HRV_ApEn,HRV_SampEn,HRV_ShanEn,HRV_FuzzyEn,HRV_MSEn,HRV_CMSEn,HRV_RCMSEn,HRV_CD,HRV_HFD,HRV_KFD,HRV_LZC,Labels
105.19507591127127,571.2038834951456,67.15220628021106,,,,,,,87.30889494922555,87.73877811885214,0.11756258705615356,0.1528506676372545,567.0,29.651999999999997,0.05229629629629629,38.0,0.7691336182786805,539.2,596.6,11.650485436893204,44.66019417475729,458.0,1125.0,6.866666666666666,148.4375,,,0.06263109858295987,0.11719970524393578,0.02588696588155001,0.20571776970844566,0.5343963831018301,0.30445157300569636,0.5697111407052368,-2.1438759168258703,62.04068498086222,72.36834557507542,0.8572903593118731,14105.06530047593,1.166465934368697,4.856345211057268,337.6608393597884,0.5436893203883495,0.5544554455445544,0.8928571428571429,0.05714285714285714,49.323181049069376,49.00709371562127,49.76199782251798,56.43564356435643,0.5579013028436199,0.44209869715637984,46.340592303611146,41.2517626386083,0.4388724271769939,0.5611275728230061,47.94218158582603,54.210005221040355,0.4892955026284245,0.5107044973715754,47.14818803653975,48.168623536786384,0.8928797514981771,2.3644115773503307,1.289620517729538,1.3149775292924155,-1.1451919382178115,-0.6119101249092922,-0.48927555092109054,0.0023203845335535334,0.30572467173714113,0.6885506005943083,0.8619367311353237,5.919320430011822,0.7895134009310623,0.9752199903146256,1.0394732747317275,1.1159064858864218,1.1146224460978993,1.8512144127965686,1.725795155414079,1.1035971743894633,Relax
105.07783456315194,571.4423076923077,35.791691535499794,,,,,,,29.61402186907641,29.717865543434364,0.06263395456321687,0.051823292518659705,567.5,27.428099999999997,0.04833145374449339,37.75,1.2086062370634716,549.0,598.0,7.6923076923076925,46.15384615384615,468.0,660.0,6.5,148.4375,,,0.014797000172404377,0.08033411429293023,0.009329806252885785,0.10446092071822038,0.1841932322605638,0.14165106023063648,0.7690350969586861,-2.521560912718087,21.01370424815248,44.91630751892446,0.4678413121848637,2965.217365497617,2.137476904999912,4.179026644820947,384.03027991829975,0.5384615384615384,0.5533980582524272,0.9122807017543859,0.027777777777777776,53.44827586206896,53.40025426885624,53.504364332837454,53.398058252427184,0.5938669323591276,0.4061330676408723,16.216065623748737,13.410195126594294,0.5206450248287532,0.4793549751712469,32.40969230725123,31.098014819018438,0.5338233531290603,0.4661766468709399,25.62566037943632,23.947023395583255,1.0755865689921453,1.3534498294644486,1.1570450203630696,1.56488826427731,-1.04246511493586,-1.544789248049006,-0.19866393638276086,0.0008613420952807716,0.11364599904657202,0.7514671110745397,1.9600947840472698,5.821746660590572,1.2316363154811885,1.29096561134414,1.2181755015192348,1.6673244885643868,1.7709001173353252,1.7940034520764396,2.363957699922177,1.159691489678266,Relax
103.48484283379187,579.9901960784314,34.01004368195226,,,,,,,29.47998146082682,29.626987964381126,0.0586389975415259,0.05082841341138856,572.0,25.2042,0.044063286713286715,39.5,1.1536657079362487,555.0,604.0,7.8431372549019605,45.09803921568628,496.0,684.0,6.375,117.1875,,,0.02915392178049005,0.048332175761486046,0.008319872108621038,0.08580596965059713,0.6031990350354066,0.33976565848745893,0.5632728813425827,-3.0296577752788303,20.949444095746124,43.5420179451145,0.4811316765831403,2865.7013506343364,2.0784330956999426,4.164201038336536,361.99668460274717,0.5392156862745098,0.5544554455445544,0.9107142857142857,0.027777777777777776,50.08865248226952,50.07616619183637,50.100239857928756,55.44554455445545,0.5612012395187751,0.438798760481225,15.69394787808345,13.877319625922004,0.45632369076521295,0.5436763092347867,29.413388595730723,32.105449662778604,0.47603797397634245,0.5239620260236575,23.57379295619886,24.73196209411225,1.1447385183516636,1.1203024927968865,1.1934141892992467,1.5842660203614791,-0.9116106031001063,-1.6244861136157498,-0.15111937751164606,0.000709930924587996,0.08163985697601352,0.714251116008858,2.178532444324067,5.771696881374169,1.2568775457163306,1.3904551124755002,1.3395823583162578,1.7925733009036386,1.7423097451534326,1.7772610323651328,2.816323402558954,0.9158230861529503,Relax
103.13666494218151,581.8725490196078,32.6689580969632,,,,,,,27.517231325152977,27.653356375165043,0.056144525381042386,0.04729082231412451,573.5,24.462899999999998,0.04265544899738448,36.75,1.1872182092353576,558.2,604.4000000000001,5.88235294117647,44.11764705882353,496.0,684.0,6.8,117.1875,,,0.03878570348738567,0.024678934521279876,0.009710739242318703,0.07317537725098425,1.571611750658926,0.5300376293839193,0.3372573596256783,-3.7018052526240455,19.553875815447444,41.853606253650874,0.4671969172009346,2571.0801160601814,2.1404250824067717,4.117085719634891,358.33803445796497,0.5098039215686274,0.5247524752475248,0.8867924528301887,0.02857142857142857,50.58878944889308,50.61628378765614,50.561610742543564,54.45544554455446,0.5530551669129281,0.44694483308707184,14.542351941828391,13.073063910193355,0.4673806539703814,0.5326193460296187,28.61331989278309,30.54508603931092,0.48273162393485025,0.5172683760651495,22.69583745190664,23.493693634131976,1.1070534571580788,1.3131190856529926,1.1441831604667803,1.6600154317981186,-0.9996574613648903,-1.7214818612506857,-0.1071702277674051,0.002038009647003355,0.1513274504485798,0.7156189163556017,1.8262456452992244,5.749494307781126,1.2392635887269758,1.2814381779486077,1.270903114670811,1.70536768607029,1.7356484179747222,1.7413529830433474,2.389683156832174,1.0466549556033717,Relax
102.8949234441805,583.2772277227723,31.206768115869092,,,,,,,25.786818338057916,25.90874428263613,0.05350246269292285,0.04421022647967017,576.0,28.1694,0.04890520833333333,37.0,1.2101829588573962,559.0,602.0,5.9405940594059405,37.62376237623762,530.0,684.0,5.9411764705882355,85.9375,,,0.03943221253563157,0.02696199057786284,0.008275291031551741,0.07466949414504614,1.4625111755660731,0.5280899915972934,0.36108441454670814,-3.6133271611732014,18.3202487742802,40.05974074158279,0.4573231986811992,2305.628722430605,2.1866373778626125,4.0697594837003646,350.38450581212265,0.48514851485148514,0.494949494949495,0.8163265306122449,0.03125,51.652892561983485,51.71309844338442,51.59277167153894,51.515151515151516,0.5707711742059672,0.42922882579403265,13.845102696869702,12.006311471535092,0.4899466714083846,0.5100533285916151,28.040292527905358,28.609872827964878,0.5039339298308623,0.4960660701691377,22.112721154771677,21.939420438833817,1.1893968938920556,1.4710070605145225,1.2195677420606872,1.6870791985211757,-1.5665029642195076,-1.9050621369412433,-0.18218272433242816,0.001132059132862076,0.12523036984196337,0.7707679045286655,1.7391157357426332,5.7374815970122786,1.2139383277509366,1.329338181072885,1.1529007434117828,1.5658253047783097,1.7836155034989196,1.708056466837566,2.249248426360711,1.0547661754854327,Relax
102.92813171379144,583.1980198019802,32.708109025738615,,,,,,,25.699221778100597,25.820426883466595,0.056084053640724586,0.04406603058567748,578.0,28.1694,0.04873598615916955,38.0,1.2727276066238935,557.0,606.0,5.9405940594059405,36.633663366336634,511.0,684.0,5.611111111111111,101.5625,,,0.013960106445042489,0.03736081954399191,0.005393706393429451,0.05671463238246385,0.37365632273148164,0.24614646800318413,0.658750977914191,-3.2871327294597417,18.25779894243066,42.12124095268253,0.4334582393462911,2416.0140224979164,2.3070273194209534,4.09006956055484,388.699414423005,0.45544554455445546,0.4646464646464647,0.8043478260869565,0.03125,48.3204134366925,48.167227943635524,48.4648518414209,56.56565656565656,0.5498220909985615,0.4501779090014382,13.542488320061048,12.254044889815614,0.3974748152808416,0.6025251847191583,26.555590667636658,32.695558470331534,0.42158432517710737,0.5784156748228927,21.078405841121633,24.689685699178963,1.1764226220216145,0.7187804598858119,1.2291251787363038,1.3499290567710132,0.0871908279059852,-0.4174246968086317,-0.33193216179819257,0.00012965979644352556,0.024587808485760157,0.7302626386157947,1.8306748854777288,5.82029870569149,1.177219744958306,0.9610690695871985,1.2296783912056306,1.5824559000137335,1.7123458919925885,1.6910331666721858,2.6782983875339537,1.0547661754854327,Relax
102.64237318657102,584.8712871287129,34.246653374114274,,,,,,,25.880494585691363,25.995143291535722,0.05855417102494484,0.044249897636017534,580.0,29.651999999999997,0.05112413793103448,41.0,1.3232611633723699,557.0,613.0,4.9504950495049505,41.584158415841586,509.0,684.0,5.9411764705882355,62.5,,,0.04282293516253828,0.015386804482679265,0.007809633677504296,0.06601937332272184,2.7830947751850315,0.6486419517072263,0.23306498847639923,-4.1742449886439426,18.381342099360896,44.59330021698803,0.41219963559365447,2575.1154526023083,2.4260089375377274,4.117766814913405,432.73497952286414,0.44554455445544555,0.45454545454545453,0.8,0.03125,52.2410358565737,52.29506553083853,52.186444932287536,53.535353535353536,0.5988504031054045,0.40114959689459534,14.233088494097409,11.649121005553173,0.4509201754193476,0.5490798245806523,29.944664252112048,33.0436000924643,0.47242665753535984,0.5275733424646402,23.444228770131524,24.774800980761956,1.2474626681799537,1.3352305844058279,1.3607937928509606,1.5722849776538617,-0.9510250003635292,-1.1458232850870687,-0.3416069948719653,0.0004618780242937057,0.07811178743379668,0.6481584413795134,1.8458266904983307,5.887178779970338,1.1521531576602546,1.1184645185486142,1.2530680590859724,1.3881729151364735,1.7311995263074653,1.6927916880443397,2.2677595332676153,0.9888432895175933,Relax
102.03717187113955,587.73,37.77548106506349,,,,,,,26.288031612515343,26.371206413932644,0.06427352877182292,0.044728075157836666,582.0,31.1346,0.053495876288659795,44.25,1.4369840093725061,558.6,617.4,4.0,44.0,509.0,722.0,5.882352941176471,62.5,,,0.05471446635213692,0.01561629734054787,0.00788787583587124,0.07821863952855602,3.503677290395225,0.6995067503336182,0.19964930909910136,-4.15944020873013,18.647258883361943,48.39617393573817,0.38530440253649617,2835.149090603015,2.595350568062299,4.159546011823413,502.42015006463953,0.46,0.4693877551020408,0.8043478260869565,0.03225806451612903,53.93643031784842,53.67041994572015,54.22721982009341,52.04081632653062,0.6167799459182927,0.38322005408170706,14.672791701872232,11.565695228668657,0.5313116221352076,0.46868837786479256,35.27651602907484,33.132417184211725,0.5423969128133799,0.4576030871866204,27.015952689810003,24.81453580657008,1.2842226420247884,0.4619423135284997,1.2016899721137815,1.3365664809056073,-0.07606123837464462,-0.5948772562836355,-0.20802304780961675,0.0003297345009001888,0.01359429099951824,0.7583712834638514,1.7989797172015418,5.937564284943817,1.1265050150201696,0.983253369485717,1.2440872482922287,1.5337797592353573,1.6856554350641515,1.6662529335095282,2.2378418327582548,0.9301398665684615,Relax
101.75259089168442,589.54,38.5362010047538,,,,,,,35.04729848808794,35.21188916735769,0.06536655868092717,0.05944855054464149,585.0,35.5824,0.06082461538461539,46.25,1.0995484007947627,557.8,625.0,8.0,49.0,509.0,691.0,7.142857142857143,62.5,,,0.037251979827605135,0.02064007045488204,0.004000495977859809,0.06189254626034698,1.8048378230605235,0.601881520125333,0.33348232868075783,-3.8805209248628745,24.898565608627752,48.22889576086209,0.5162582558822137,3772.519728275545,1.9370150280524594,4.283601629544953,373.68038350066166,0.53,0.5408163265306123,0.8679245283018868,0.0967741935483871,51.961180752122935,51.925912201111515,51.99449552847312,52.04081632653062,0.5767538629803542,0.4232461370196459,18.916438159787408,16.204685641341328,0.43588163453275336,0.5641183654672467,31.841359632277513,36.22366910019012,0.4655445987758985,0.5344554012241016,26.188774464310974,28.06016785244488,1.198942609723196,0.3713116647636565,1.0509573786465463,1.0251656685617567,1.0,0.9402700617851769,-0.5694610822453052,0.0004723975198690766,0.019430149328321274,0.7222191343853059,1.8513515664303006,5.992662034987085,1.1238114647914281,1.3487846048023218,1.2886974768036106,1.8117409295646543,1.8151686323564842,1.7234611168119305,2.74781445037772,0.7972627427729669,Relax
101.10665834162009,593.79,37.444449090309334,,,,,,,29.374282712067792,29.51868060463101,0.06306008705149857,0.049469143488552844,590.5,36.323699999999995,0.06151346316680778,49.5,1.2747357767795326,561.0,629.2,7.000000000000001,48.0,509.0,684.0,9.090909090909092,62.5,,,0.026289614810449037,0.01895745502467585,0.003642077186047298,0.04888914702117218,1.3867692037897137,0.5377392818709625,0.38776407811872926,-3.9655580198210707,20.872859227214402,48.80646067888118,0.4276659060476844,3200.435887626348,2.338273839132037,4.212179241625147,456.49148074421714,0.51,0.5204081632653061,0.803921568627451,0.1,51.174934725848566,51.1885675954658,51.15855586122652,53.06122448979592,0.5628058345625251,0.437194165437475,15.661599991243367,13.803652282150928,0.44292564749896274,0.5570743525010373,32.48199754732735,36.42787997310021,0.46146676646861046,0.5385332335313898,25.49868505384439,27.545700714096256,1.1989359078658408,0.4245622562054363,1.2202174258911922,1.3994514873336033,0.3410343539885332,-0.5639573628689973,-0.0778379758852524,0.0002509613120182383,0.0180598021806415,0.6579454754218954,1.6677068205580763,6.021209564709821,1.190376359756595,1.1458053670117416,1.3141637806119575,1.6027664679741158,1.8343337817358958,1.7208181909737748,2.8260095598287243,0.8637013046707142,Relax
101.26624833744492,592.62,36.384806463881894,,,,,,,27.628853312317094,27.767558623228922,0.06139652131868971,0.04662153371860061,589.5,31.875899999999998,0.05407277353689567,43.25,1.3169133750354145,561.0,619.8,6.0,46.0,509.0,684.0,8.333333333333334,101.5625,,,0.037366146237316475,0.020139460768661847,0.004358447235028669,0.061864054241006994,1.8553697473102326,0.6040041619604698,0.32554382372360385,-3.9050741661980273,19.634628999480164,47.767234793858194,0.41104805593655047,2946.4744081713234,2.4328055699510722,4.176272783311424,464.8335794706355,0.5,0.5102040816326531,0.8,0.1,50.741427247451334,50.73536873618059,50.74524492165446,52.04081632653062,0.5468824432329432,0.45311755676705656,14.521096545989877,13.217760160990567,0.44137419250360693,0.5586258074963933,31.734639493035495,35.70183995396664,0.4566260463382461,0.5433739536617539,24.67741466048345,26.919607721622896,1.2682733497686987,0.38300975692659023,1.319216584354565,1.410835757454854,0.2585754975232888,-0.7414245024767112,-0.2607915426607543,0.00040174030290340986,0.018324444834017906,0.6727456538405994,1.6916760106710724,6.033660689688187,1.1404167063151764,1.003342162256959,1.2639346070098325,1.570095384343315,1.8276131525851633,1.695504654223413,3.0779953743624753,0.9301398665684615,Relax
100.74800817135134,595.6262626262626,36.6005982605799,,,,,,,27.774786687033334,27.906988749045347,0.06144893292515153,0.04663123241840861,595.0,35.5824,0.05980235294117647,47.0,1.3177634331811772,567.0,625.0,6.0606060606060606,45.45454545454545,509.0,684.0,9.0,117.1875,,,0.0356214125904784,0.02717760737791348,0.0033021989395238985,0.06610121890791577,1.3106897930767436,0.5388919172595266,0.41115138006417157,-3.6053619029082378,19.73322098694665,47.828759195546425,0.41258065897691343,2965.08376177867,2.4237684880326795,4.179007076385326,463.7033574394747,0.5151515151515151,0.5208333333333334,0.78,0.14285714285714285,51.75808720112518,51.7982309086979,51.715865594639375,51.041666666666664,0.5528762847052286,0.4471237152947712,14.67833806149125,13.200085910373353,0.44011844568378794,0.5598815543162122,31.730279638034197,35.78798066778453,0.4565310603735364,0.5434689396264634,24.72108668884997,26.97241024008567,1.1961480104123805,0.7579360198612353,1.2449736697597253,1.4243074665242368,0.06787153404402346,-0.49231639129556015,-0.26339190635464943,0.00031644793510818254,0.03546167778248243,0.5866717577779341,1.7346010553881064,6.081228715973648,1.1546752581500146,1.0566285402293663,1.2782492085012824,1.4562777523624282,1.9756662811044332,1.6874577632538459,2.5544700847002666,0.7365951800088454,Relax
100.59491304698481,596.6969696969697,35.79831672745914,,,,,,,27.671174126715698,27.813254200006746,0.059994131938761436,0.046373914284780764,595.0,32.6172,0.05481882352941176,44.0,1.29370429182103,568.0,624.6,6.0606060606060606,43.43434343434344,509.0,684.0,7.071428571428571,117.1875,,,0.02280267913387713,0.027354241327332232,0.0037199086584660374,0.0538768291196754,0.8336067106015036,0.42323721544981885,0.5077181002350911,-3.598883686183533,19.66694065168999,46.576061191564335,0.4222542685780391,2877.7259865409205,2.3682413048600943,4.166019548555184,441.2134077262156,0.5050505050505051,0.5104166666666666,0.7551020408163265,0.10714285714285714,49.76569821930645,49.73887389036642,49.79153967377098,52.083333333333336,0.5369812628268343,0.4630187371731655,14.411836486993428,13.382555193428296,0.4507821499005146,0.5492178500994853,31.271312813632978,34.51716197824292,0.4638258414206892,0.5361741585793108,24.34744376742578,26.177540512215934,1.2489763445775044,0.7876284778959608,1.3160332951207017,1.4511649663884176,0.24104373243715038,-0.16569255069190714,-0.3284322176507618,0.0003739210426506815,0.038798877076100594,0.6331295022010681,1.7414976344471669,5.972593488679067,1.1646753606244247,1.3304469032839434,1.0424196616091663,1.5772070315366946,2.009716583574068,1.7106856352712174,2.660674391540778,0.8035583781914678,Relax
100.49547911424293,596.929292929293,35.21979166612366,,,,,,,27.06718775678819,27.20615826129303,0.05900161389850823,0.04534404338571191,595.0,31.1346,0.05232705882352941,42.5,1.3011987792226725,569.6,624.6,6.0606060606060606,43.43434343434344,509.0,682.0,6.6,101.5625,,,0.020450679261771132,0.020247157781152415,0.0035352535085730902,0.044233090551496636,1.0100518543302985,0.4623389188228264,0.4577378050846449,-3.899740851766783,19.23765899659471,45.6913970681845,0.4210345979985396,2761.4458552135975,2.3751017250213455,4.148106642217308,434.0868639811209,0.48484848484848486,0.49484536082474223,0.7083333333333334,0.10714285714285714,49.76145038167938,49.77117753552706,49.75167772454344,51.546391752577314,0.5295551408117218,0.47044485918827833,13.999447706337353,13.195008428291374,0.46579993693142285,0.534200063068577,31.184167177497145,33.39538116998231,0.47540013792093977,0.5245998620790603,24.17061044571035,25.390546773465605,1.1914150103803018,0.8132585501652736,1.296258178954002,1.4965412503433781,0.15664724876510228,-0.5395112806050895,-0.2537276781797451,0.00044886553085502916,0.051753479062993095,0.6536058126912367,1.6770965609079151,6.0004206351655665,1.1736830459035108,1.3868143823425978,1.401407256493969,1.6895771339785655,1.9668684563093521,1.7296897528581687,2.431129442510717,0.8035583781914678,Relax
99.46716244370548,603.8144329896908,74.10920010038497,,,,,,,69.86184282806555,69.89490152201324,0.12273505907012705,0.1157008494847594,598.0,28.1694,0.04710602006688963,39.0,1.060796524975335,572.2,622.4000000000001,7.216494845360824,44.329896907216494,509.0,1244.0,5.705882352941177,109.375,,,0.03669372383496988,0.02911814034344758,0.0037327956731646023,0.06954465985158206,1.260167146739748,0.5276282019824293,0.41869699852712955,-3.5363939195250627,49.4231588365815,65.54814045497601,0.7539978784070845,10177.491487896497,1.3262636787687332,4.714610857784427,347.7364715850644,0.4948453608247423,0.5052631578947369,0.7291666666666666,0.10714285714285714,62.088115512773044,58.49326825192139,67.0346074435313,50.526315789473685,0.9286045097055778,0.07139549029442212,47.85355951122901,13.268879300631868,0.7488943342843954,0.2511056657156047,56.72449629710573,32.84646460343794,0.8144269700513541,0.18557302994864566,52.47681220336796,25.049484973145038,1.1756241376725822,1.003395706603036,1.2838229593213548,1.6424887887993465,-0.31012055975034514,-1.2029333189621356,-0.14254797273127334,0.0008623279184767878,0.09075331744615396,0.9162118526383178,1.204906947317733,5.970845316324716,0.7323190099404483,1.1098374382546574,1.342193142011317,1.3636095547316371,1.2377925379330394,1.782715900526457,1.4515117083402451,0.8845244015302336,Relax
98.24635118594514,612.9583333333334,106.30798520947637,,,,,,,151.37200603323691,152.1681401908354,0.17343427673356215,0.24695317414164134,600.0,34.099799999999995,0.056832999999999995,45.5,0.7022962038709735,572.0,630.0,11.458333333333332,48.95833333333333,448.0,1331.0,6.0,164.0625,,,0.008640345811197362,0.020286268893642066,0.003441515425580158,0.03236813013041959,0.42592089538482547,0.26693991207966505,0.6267358915051141,-3.8978110309824903,107.59912380948494,105.64993591368918,1.018449494350741,35713.12431143735,0.9818847233435934,5.25979795544618,414.9442323835243,0.4895833333333333,0.5,0.7391304347826086,0.06896551724137931,51.36917849290427,50.9776572046959,51.71022350149558,48.91304347826087,0.5551252055213638,0.4448747944786362,80.17222153827956,71.7707268602078,0.4461918674028899,0.55380813259711,70.57161612152501,78.6228717140422,0.5016566217559066,0.49834337824409336,75.52462548198059,75.27480717545974,0.1380534495150364,2.525570633969701,1.06308761678222,0.8928658104234528,-0.11813653549303993,-0.10219062334017204,-0.5673993449516841,0.010158871651660966,0.6743997697702866,0.7458218322360057,0.8495188496399876,6.019705599611882,0.5782892514224109,0.947006388808502,1.2046366788801206,1.0857923524061932,0.9782734529659037,1.9570652303947824,1.6935540361804449,1.0289003907376806,Relax
97.64379197358816,616.978947368421,106.96678535458072,,,,,,,152.3877682587865,153.20480361540578,0.17337185622106305,0.24699022374873694,602.0,31.1346,0.05171860465116279,45.0,0.7019381317595557,576.6,632.6,12.631578947368421,52.63157894736842,448.0,1331.0,6.785714285714286,195.3125,,,0.007553431049489662,0.011350392664092993,0.003703012804484473,0.02260683651806713,0.6654775101644692,0.33412154077608536,0.5020778849363504,-4.4785029396978215,108.3321555468067,106.73630289206898,1.0149513577995244,36326.15344129866,0.9852688922630344,5.267189523027878,420.6558356588821,0.47368421052631576,0.4893617021276595,0.6956521739130435,0.07142857142857142,50.126829268292674,49.46307689590722,50.77410897726738,51.06382978723404,0.5535805826363537,0.44641941736364643,80.60240264302271,72.38175377517383,0.4396807104739791,0.560319289526021,70.77516037515689,79.89690249902252,0.49747578419206573,0.5025242158079339,75.84810689119779,76.23199232772353,0.4805207177506384,2.1997754401837595,1.1722514800655786,0.9208699077949256,-0.31991267509554433,-0.01542542522872603,-0.6142760154871325,0.006048209856571833,0.4183760245081491,0.7694285482802643,0.8657052350860488,6.074912976660907,0.6087005789883448,0.9520022064925943,1.0627587621207202,0.9637527098652781,1.0086922052797962,1.8554708431537412,1.7558080023173122,0.9681892475435081,Relax
96.95035193126108,621.4421052631579,104.4487776111185,,,,,,,152.3100141997627,153.12667182844854,0.1680748322756281,0.2450912368341456,603.0,29.651999999999997,0.04917412935323383,39.0,0.6857643481939958,581.8,632.6,12.631578947368421,50.526315789473685,448.0,1331.0,5.588235294117647,179.6875,,,0.025470327519183485,0.07627752371548566,0.042524928791442415,0.14427278002611155,0.3339165494436806,0.17654284830841743,0.5287034997293348,-2.573376961866976,108.27690803042302,101.55922140230143,1.0661455113121747,34546.58165743876,0.9379582706015757,5.245375190883086,381.0332466805807,0.5263157894736842,0.5376344086021505,0.76,0.06451612903225806,50.07864726700747,49.39780519762308,50.73926703671858,50.53763440860215,0.5532370253924986,0.4467629746075013,80.53627380161973,72.37265419527473,0.44277396907980615,0.5572260309201938,67.57878868398244,75.81149498491195,0.5015382456236499,0.49846175437635015,74.34037959898984,74.11202280033972,0.3733404065617289,2.2621846183811636,1.0732308523018812,0.9563798077834007,-0.2664232462667222,-0.1970834669607725,-0.5516540708344574,0.005061642985620545,0.44007647524678367,0.804663384399305,0.8478471600439705,5.944760050591432,0.5994908894968118,0.8273527459494502,1.0463282772619842,0.9195574517156725,0.8977273504073238,1.8739694927061756,1.7369339821390077,1.0373456223680444,Relax
96.96200347505625,621.3789473684211,104.317965135177,,,,,,,152.08364859580652,152.89907110156025,0.16788139600958504,0.2447518526977625,603.0,26.686799999999998,0.044256716417910444,35.5,0.6859249242002563,582.0,631.2,12.631578947368421,46.31578947368421,448.0,1331.0,5.588235294117647,179.6875,,,0.01797577017242423,0.060654929576812816,0.031044320720734542,0.10967502046997159,0.29636124050988943,0.1639003129007475,0.5530423365037784,-2.802554367804973,108.11597001303731,101.51155276280035,1.0650607450136178,34479.04218765876,0.9389135827996496,5.244525302775945,381.2423028003062,0.5368421052631579,0.5483870967741935,0.7843137254901961,0.1,50.110909457551934,49.4151187432268,50.7754305759257,50.53763440860215,0.553246829705354,0.44675317029464623,80.41729204726464,72.26429984617621,0.44150423082849327,0.5584957691715069,67.45014782408248,75.86219679671966,0.5008925607942252,0.4991074392057747,74.21746189983065,74.08509274841425,0.3647809848319496,2.208473351048725,1.0959212267010159,1.0027112623317982,-0.23103029168290057,-0.29841749563387243,-0.5422056097371317,0.0056163508679043074,0.4541235858030136,0.7577145004744823,0.7764001638637298,5.911652187141677,0.5749914264253867,0.6889015628933958,0.8444676719045217,0.8388558850202238,0.8473840646912599,1.8660726069316973,1.730113857637034,0.8298764978944355,Relax
97.87581621741592,615.5208333333334,104.65391376659865,,,,,,,150.9180328243744,151.7185922786035,0.1700249741342608,0.24518753005821528,599.5,25.9455,0.04327856547122602,34.5,0.6934487006492193,578.0,626.0,10.416666666666668,40.625,448.0,1331.0,5.647058823529412,164.0625,,,0.018680281816399885,0.06113049385009743,0.03155157609814416,0.11136235176464147,0.3055804172334543,0.16774324105402952,0.5489332155924073,-2.7947444562877712,107.28124543227747,102.49374929729518,1.0467101278644377,34543.87548393203,0.9553743423121942,5.245341169506755,391.6795933040572,0.5,0.5106382978723405,0.7291666666666666,0.06451612903225806,50.1468120805369,49.45247911134334,50.81135641677934,52.12765957446809,0.5536463648194981,0.4463536351805021,79.82524130208544,71.67431511223884,0.43709375305753745,0.5629062469424627,67.76176038742017,76.8980654777131,0.49802867188187444,0.5019713281181255,74.0396019699536,74.33209239965993,0.4587135546780104,2.1947386624136347,1.1874659042551041,0.9131014977725733,-0.1288009082334316,0.14320728114469727,-0.6250100575440732,0.0068797504915805345,0.45295889855527427,0.6324087014917419,0.6906377689545196,5.866008854797679,0.5425919994627008,0.6238621458340283,0.8192084043530367,0.793084147675037,0.7973917277475671,1.8457420301671332,1.6461958180876615,0.8231203125901446,Relax
98.66640315358683,610.4329896907217,104.34207636588243,,,,,,,149.5857822455062,150.3709094760907,0.17093125392641012,0.24504865361437042,595.0,25.2042,0.04236,35.0,0.6975400656369335,574.2,616.6,7.216494845360824,36.08247422680412,448.0,1331.0,6.0625,164.0625,,,0.022683405399632633,0.06867729067750794,0.0392245063973292,0.13058520247446978,0.33028975336473965,0.17370578725462696,0.5259193949707646,-2.67833669222387,106.3282897837322,103.41374462204908,1.0281833442192336,34544.345253056905,0.972589184236752,5.245347075524786,402.31635808330606,0.4948453608247423,0.5,0.723404255319149,0.0625,49.81485515138313,48.96598210175539,50.60970319335431,51.06382978723404,0.5530637260036488,0.44693627399635116,79.07454843706864,71.08401256334129,0.44138365888365094,0.5586163411163492,68.70469080712462,77.29209557161579,0.49877532209736836,0.5012246779026315,74.07131276489201,74.25296249967758,0.3943852968726698,1.6614456888207965,1.0362704570083516,0.7710842135778204,0.10768057437653411,0.015728429787029596,-0.6596117436849507,0.006715391571807457,0.3192030461336716,0.639216581745049,0.6523251860396901,5.78527830601544,0.5149971043107225,0.6231090526537907,0.8609860749019338,0.8055364724516243,0.7544260348109123,1.8471570482862532,1.6814567137208438,1.020605078688731,Relax
98.99155707164931,608.7010309278351,104.8548763915765,,,,,,,149.6667478656053,150.45224478393905,0.17226006046309397,0.2458789130642184,593.0,28.1694,0.047503204047217536,38.0,0.7005889944620962,572.2,617.0,7.216494845360824,38.144329896907216,448.0,1331.0,6.466666666666667,164.0625,,,0.017009979197237055,0.05960325672386142,0.030007344298955782,0.10662058022005426,0.28538674113133355,0.15953748480950067,0.5590220631030729,-2.820045063385899,106.38580253146166,104.27805036190838,1.0202128076065682,34851.89922050472,0.9801876555010247,5.249196559497994,408.8482308178271,0.4742268041237113,0.48421052631578954,0.717391304347826,0.0625,49.77385311221194,48.91221146472521,50.581994541476384,50.526315789473685,0.552838454752645,0.4471615452473549,79.1012342707615,71.14040971724047,0.4436172261449556,0.5563827738550444,69.45397457610616,77.78211364357682,0.49932057903855925,0.5006794209614409,74.43406427025295,74.535277210188,0.4179765378349892,1.8692147054933055,1.1026410849929784,0.7616066483101804,0.03506828637176085,0.20279055671099344,-0.6824479743715665,0.007532241013411886,0.3827322311789648,0.6554321129023244,0.6919357933736482,5.83559361035808,0.5278910960945433,0.8072266979198127,0.8570181083202328,0.8215419996474603,0.7887123239618651,1.8579259941254591,1.667465219712359,1.020605078688731,Relax
98.8531713148721,609.340206185567,105.02230780866056,,,,,,,149.72196454317137,150.5078595604684,0.17235414099144036,0.2457116123690932,593.0,29.651999999999997,0.05000337268128161,39.0,0.7014489031659616,572.0,618.8,7.216494845360824,40.20618556701031,448.0,1331.0,7.461538461538462,164.0625,,,0.017334591117939682,0.05755970026434097,0.029518134121220813,0.10441242550350147,0.3011584674404342,0.16602038535498218,0.551272513657014,-2.854932604336831,106.42512811707975,104.71132833032802,1.0163668994948216,35009.64631186577,0.9838966622162169,5.251157833249505,412.1005057617445,0.4536082474226804,0.4631578947368421,0.6818181818181818,0.0625,49.87184963690729,49.064746145348735,50.637658185520465,50.526315789473685,0.5527467472118959,0.44725325278810407,79.12385361271475,71.17395295294035,0.445610447436096,0.5543895525639041,69.89906253162273,77.96527007522033,0.5000481866642305,0.49995181333576966,74.6540794375164,74.64688512205119,0.4327941371983882,3.5563034292661175,1.279097478766218,1.6402842015565833,-1.433730422023885,-1.3137058079769353,-0.39843759679839796,0.0075314186428417475,1.038204609848263,0.6544188353274998,0.6819460678051248,5.859970187436433,0.5418447264595762,0.7309535983517518,0.9156161202596713,0.8524333974469671,0.8358003029820217,1.8570153007246326,1.6980819680239394,1.020605078688731,Relax
98.88175315829429,609.1958762886597,105.03358978354434,,,,,,,149.7926344428635,150.57891647810226,0.17241349436478376,0.24588583126240032,592.0,28.1694,0.04758344594594595,39.0,0.701193287468404,571.2,618.8,7.216494845360824,41.23711340206185,448.0,1331.0,6.466666666666667,171.875,,,0.019036972262192274,0.060317554336520654,0.03345581974728836,0.11281034634600129,0.315612469232127,0.16875200616620625,0.534681049125763,-2.8081321009233546,106.47537294538887,104.68167285432033,1.0171348053786333,35016.255044228456,0.9831538501209239,5.251239806803588,411.67275881529616,0.4536082474226804,0.4631578947368421,0.6818181818181818,0.06060606060606061,50.10566356720203,49.375455810809335,50.7978241648164,49.473684210526315,0.5527749819872686,0.44722501801273157,79.16322245508759,71.20529992101785,0.44556715967009713,0.5544328403299027,69.87587208758113,77.94623231163227,0.5000817084110385,0.49991829158896145,74.66409207066569,74.65189169880779,0.4636530091024141,3.331484082511485,1.2188917447697105,1.6885395520376731,-1.3884553281639516,-1.506744331522985,-0.3590274497382823,0.007437231671708268,0.9572340341207524,0.6728805402698257,0.6956692499926549,5.82172785811121,0.5450906547354506,0.7857175596639417,0.899632347105581,0.8195663693231232,0.8350208922348044,1.877449785166566,1.6917365031363938,0.8845244015302336,Relax
98.36514089256441,612.4479166666666,104.83710369617957,,,,,,,150.62424492057957,151.42302824419667,0.17117717416163347,0.24593804766350266,598.5,28.9107,0.04830526315789473,38.5,0.6960174555660517,576.0,623.0,7.291666666666667,43.75,448.0,1331.0,5.647058823529412,171.875,,,0.015922994697966996,0.0585848131177616,0.028710650240881236,0.10321845805660983,0.2717938976089266,0.15426499288755197,0.5675807817786906,-2.837279777800338,107.07225009927356,103.64513926671631,1.0330658133782622,34863.88187997476,0.967992539342549,5.249345851461893,401.3108861972035,0.4583333333333333,0.46808510638297873,0.7045454545454546,0.058823529411764705,50.293870696893364,49.626928383767094,50.92475916137317,48.93617021276596,0.5526908201443121,0.4473091798556878,79.60106649558185,71.61131789782834,0.4412305442307298,0.5587694557692705,68.84647737399867,77.47565712408323,0.49877310100555633,0.5012268989944435,74.41830162682616,74.60113369739209,0.36391967725223723,1.9223202065151723,1.0060736184167016,0.9037979382700784,-0.2847135080864991,-0.44214982360700916,-0.5532042891709654,0.004813154375380734,0.33731451510787464,0.6971001871160807,0.7310921121240687,5.815438511336498,0.5573732528027562,0.5584331575417824,0.8529533007814235,0.7763023982020216,0.8159585058434873,1.905726337354298,1.6859347417546766,0.9603070313551686,Relax
98.48384207754982,611.5833333333334,104.61414482872578,,,,,,,150.48780331763908,151.28604574506548,0.17105460388945487,0.2460626297604127,596.0,26.686799999999998,0.04477651006711409,39.25,0.69516693394689,576.0,623.0,6.25,41.66666666666667,448.0,1331.0,5.647058823529412,164.0625,,,0.005540101618818303,0.02335285433441198,0.0065972299533685365,0.03549018590659882,0.2372344527775603,0.15610235554692353,0.6580087913844909,-3.7570360610356497,106.97538884523402,103.31138690954435,1.0354656156043838,34720.177620897644,0.9657491131816259,5.247552048228296,399.0915211578252,0.4479166666666667,0.45744680851063835,0.6744186046511628,0.06060606060606061,50.18058211174845,49.460910510540714,50.85686405151751,47.87234042553192,0.5523808638460554,0.44761913615394455,79.5066570208954,71.57123367220731,0.44127206937677743,0.5587279306232226,68.62801088346983,77.22330469069502,0.4987618595104046,0.5012381404895955,74.26679065524492,74.4509243620038,0.19639177435723593,2.1352060990488138,0.9096502583712325,0.8422985907371867,-0.5616590643675394,-0.7182665980786274,-0.5315434035450017,0.006325582817655512,0.411940251730927,0.6576905873728309,0.6956949526387441,5.815438511336498,0.5434196464956635,0.45368817845962905,0.8432195586980534,0.7485240570451495,0.8040429238779976,2.051620024114561,1.7042016844662264,1.0289003907376806,Relax
98.84051465518804,606.3571428571429,79.72313560388517,,,,,,,74.44267150100261,74.45231441663266,0.1314788430267867,0.12277033820403303,596.0,26.686799999999998,0.04477651006711409,39.5,1.0709332966753007,576.0,624.2,2.0408163265306123,37.755102040816325,539.0,1329.0,5.764705882352941,78.125,,,0.009169449136681513,0.03543236058580185,0.005501530372616997,0.050103340095100354,0.2587874187630563,0.18301073579679772,0.7071855991745909,-3.340129735572827,52.6457363990339,67.6504297741369,0.7782025417251767,11188.803262975527,1.2850125081615982,4.755753747510684,347.72659376909485,0.41836734693877553,0.42708333333333337,0.6097560975609756,0.06060606060606061,35.438455349959774,40.06013448100431,29.21962570466676,48.95833333333333,0.03743865641266049,0.9625613435873396,10.238051979421344,51.9124362909955,0.18555411401066205,0.8144458859893376,29.14109413618564,61.052250418566864,0.12933600227305678,0.8706639977269431,21.840570915012343,56.666914168843114,0.9549151210063347,2.461939526528708,1.1687711533947045,2.1084671713095675,-1.6490167594870844,-2.39740175997529,-0.11831068237495738,0.012423312790969402,0.7458580257592742,0.6818623859163893,0.7690392745071689,5.7384414463506435,0.6361783003575647,0.6228445607456186,0.9315709302836931,0.8466755652640326,1.0678752765298927,1.8976383798550525,1.334391028071869,0.9449585491593154,Relax
100.82819297862417,595.10101010101,25.386198624487633,,,,,,,20.613548150353417,20.70708828287162,0.042658638102762894,0.03463873829898988,593.0,23.7216,0.040002698145025294,33.0,1.231529789986805,575.0,618.0,0.0,32.323232323232325,539.0,642.0,5.823529411764706,78.125,,,0.01624873121767161,0.08152345912248263,0.006579598277563417,0.10435178861771766,0.1993135643724239,0.15571109449016932,0.7812368163725077,-2.506864458160227,14.642122543447025,32.546100919173504,0.44988868497058837,1497.1071231346486,2.222772062083258,3.8822229866720996,289.37025541152445,0.41414141414141414,0.422680412371134,0.6341463414634146,0.06060606060606061,47.98154555940023,47.93394753136377,48.02812679703782,50.51546391752577,0.43091109937082755,0.5690889006291724,9.617424050171893,11.052358986897671,0.49432210735972637,0.5056778926402736,22.882527006593904,23.143868363640664,0.4836374698401914,0.5163625301598085,17.55142284215619,18.135507740462973,0.896111060740021,0.9595270095911932,1.0213535781304708,1.219938123142648,-0.206395356244224,-0.7879983209147614,-0.2930391296678722,0.00019447453948505085,0.052049236866487054,0.6075687121299453,1.5448993912965292,5.673506211159502,1.270137822859914,1.0145019068862473,1.3030194712642367,1.7402780062026977,1.8919810612340324,1.877701116522868,3.064348402614631,1.0714111709219571,Relax
100.76552510782066,595.5858585858585,26.369048840549944,,,,,,,21.254531329596904,21.3637212126581,0.044274135224029385,0.035686762912845234,593.0,25.2042,0.04250286677908938,36.0,1.2406318648782004,575.0,622.0,0.0,35.35353535353536,539.0,642.0,6.6,54.6875,,,0.009791845205394915,0.05522734970957249,0.003916730890000273,0.06893592580496768,0.17730065369582104,0.1420427025684377,0.8011403207352397,-2.8962969826485905,15.106432140849432,34.236925276490076,0.4412321497579914,1624.8247724923076,2.2663806355644835,3.917776641773299,310.3756178716212,0.42424242424242425,0.4329896907216495,0.6666666666666666,0.06060606060606061,49.82935153583619,49.82627991491867,49.832423184235495,50.51546391752577,0.4716750993856161,0.5283249006143839,10.374930132667494,10.980301011779156,0.48370231615551984,0.5162976838444804,23.811340116869676,24.600551502491122,0.4817423492069543,0.5182576507930459,18.365988857382266,19.049332593768167,1.022722447586188,0.9911025622065508,1.170332231175987,1.294793688382651,-0.014690471545447892,-0.42967661812529334,-0.37442121335094924,0.0001762696787206382,0.05368240389072416,0.5797919153144875,1.6094379124341005,5.660929317241962,1.2791939150640663,1.3859948407394842,1.3196821288322338,1.664238491923128,1.9718929533713145,1.8688922260282381,3.907159633958093,1.0044479727393347,Relax
100.66542336929386,595.8585858585859,26.964455099187976,,,,,,,21.748563170931547,21.859217127983985,0.04525311162603169,0.03649953812378747,593.0,26.686799999999998,0.04500303541315345,39.5,1.2398269663730166,574.6,622.0,0.0,35.35353535353536,539.0,658.0,6.6,70.3125,,,0.019781190461141553,0.0608864410698602,0.005087462701276521,0.08575509423227828,0.3248866268673005,0.23067073318771886,0.7100037801246156,-2.7987447715858447,15.456800662626604,34.69067725737905,0.4455606486996096,1684.5436051245317,2.244363372121278,3.9334523673209976,311.4339415621687,0.40404040404040403,0.41836734693877553,0.6097560975609756,0.029411764705882353,49.389567147613754,49.422124757465205,49.35624235642586,48.97959183673469,0.46175087371100665,0.5382491262889934,10.503803925588887,11.340557632792155,0.4722174891287065,0.5277825108712935,23.83876829025532,25.202305747275464,0.47048363845991903,0.5295163615400812,18.420325329696258,19.541807265473608,1.0761984951637773,0.8654326986075702,1.1850942263598263,1.424964330026321,-0.2653584697880387,-1.0666923106488282,-0.22283216932705283,0.00017081488935275294,0.045489162070047946,0.5425384526635928,1.6964492894237304,5.697651256872261,1.2474763173346948,1.5265363414699016,1.3072886833350268,1.6496338328066955,1.9446065040847638,1.8583798368294295,2.6761220938660575,1.0044479727393347,Relax
100.53922320459253,596.969696969697,27.563083320850257,,,,,,,21.880006715665125,21.989401268484638,0.046171662415637485,0.03665178789933752,593.0,26.686799999999998,0.04500303541315345,40.0,1.2597383391622223,575.0,622.4,0.0,37.37373737373738,539.0,658.0,7.071428571428571,54.6875,,,0.019648159824777064,0.11320711582331779,0.008288881875832705,0.14114415752392756,0.17355940641966291,0.13920632755518908,0.8020673176225964,-2.1785362545586855,15.548854751177558,35.85504514808213,0.433658769273904,1751.4532639509093,2.305960517469412,3.9503686629891646,330.7212738542424,0.40404040404040403,0.41836734693877553,0.6341463414634146,0.0,50.9922822491731,51.009606138091335,50.97380888969154,47.95918367346938,0.4801560235314179,0.5198439764685823,10.775832065368824,11.212336725471673,0.46370747794992395,0.5362925220500759,24.415876721693095,26.257365185450208,0.4663117627273902,0.5336882372726098,18.871322062721863,20.18868149889256,1.0988144831041533,2.2579299112573032,1.2277508664589911,2.2277794387328047,-1.5480302153633474,-2.5621783223014907,-0.05710380234213781,0.013114273623285898,0.7090165181339454,0.4776802112279195,1.5533484457830569,5.7072938674013844,1.2467540344141592,1.4699428349804697,1.2783716274354693,1.864817538831554,2.05206954552891,1.8532281468814855,2.9849560053343276,0.9374847745567124,Relax
99.97865718155592,600.2727272727273,26.098642619257387,,,,,,,21.9979127024658,22.105757794446603,0.04347797498286101,0.03664653032365952,602.0,31.1346,0.05171860465116279,40.5,1.186414500878164,578.0,625.0,0.0,37.37373737373738,547.0,658.0,7.071428571428571,39.0625,,,0.032016222713986985,0.10455792871984208,0.015561582700114648,0.1521357341339437,0.3062055944104718,0.21044511926303378,0.6872673886582552,-2.258014019351267,15.63113123972057,33.37526195652922,0.4683448255800923,1638.9472097682137,2.1351789224134143,3.921535075200631,285.04862343842996,0.41414141414141414,0.42857142857142855,0.6666666666666666,0.0,51.28345166575641,51.32849061854034,51.23864718126793,47.95918367346938,0.47949307298146465,0.5205069270185354,10.826418623265292,11.279942969805381,0.4903091878479277,0.5096908121520719,23.370053082488507,23.82747845636664,0.48836273091409127,0.5116372690859089,18.21223107261321,18.641162021058108,1.0049394720685534,0.6248303738290923,1.0365182925135983,1.2404560123579818,-0.21864953510999463,-0.9995263856336951,-0.1736110656807381,7.199603642838154e-05,0.019129995711572888,0.523013301968247,1.4508328822574619,5.775525054291925,1.2813998957819244,1.4442902477458754,1.1092053133440778,1.5701735159465737,1.9525145686850005,1.865293082546269,2.7496555093866255,0.8705215763740901,Relax
99.75359637425126,601.6632653061224,24.768180400705187,,,,,,,21.679721153150254,21.78642721175092,0.04116618352643367,0.03603298124262207,602.0,30.3933,0.05048720930232558,40.75,1.1424584396513862,579.4,625.0,0.0,36.734693877551024,547.0,658.0,7.0,39.0625,,,0.04305366074683758,0.07834140152706436,0.01703819303293293,0.13843325530683487,0.5495645968493934,0.31100663385694355,0.5659146088374648,-2.546679060592197,15.4053304192562,31.193796537771135,0.49385878376819553,1509.694682929033,2.0248703331140385,3.8858592354494292,252.65357274611273,0.40816326530612246,0.422680412371134,0.6585365853658537,0.0,51.377178189994375,51.45202920927886,51.305111596643826,47.42268041237113,0.483341010287118,0.516658989712882,10.713115015406737,11.07620384728751,0.513298518509729,0.48670148149027076,22.34875016160667,21.762038246771564,0.5074220473907395,0.4925779526092607,17.52480338148259,17.266565963164403,1.0399153470620672,1.0308683892987704,1.1718091029972655,1.2702844240919478,-0.21208944335790214,-0.472461861985392,-0.4044734302487747,4.168547278224132e-05,0.04551524886091234,0.4977259864550483,1.7730673362159026,5.671815680912064,1.3280829572476442,1.6110151873319467,1.1343596471430615,1.543049147949927,1.9216105219202868,1.8516302638069273,2.5668146447714824,0.9449585491593154,Relax
99.87213320610871,600.8265306122449,25.224364555340195,,,,,,,21.29057678396277,21.39563497249588,0.04198277417882405,0.03543548045767483,600.5,29.651999999999997,0.049378850957535386,40.75,1.1847666134785306,578.4,625.0,0.0,33.6734693877551,547.0,658.0,7.538461538461538,101.5625,,,0.0329011895002893,0.0895442149878562,0.0067786087453919975,0.1292240132335375,0.36742953751675966,0.2546058482244263,0.6929378893846085,-2.413022753479441,15.128998576843887,32.31165355295919,0.4682211187999796,1535.7454538371976,2.135743049273248,3.8932893483428814,276.0375579450314,0.4387755102040816,0.4536082474226804,0.7045454545454546,0.0,48.64240323512419,48.655757368513,48.629920435928106,51.546391752577314,0.4717869407991995,0.5282130592008007,10.394309340531802,10.998342678179593,0.444478172429638,0.555521827570362,21.541919708362652,24.08295352744171,0.4493906732825669,0.5506093267174331,16.91295319257122,18.72100681415911,1.0524012848068787,0.35014829158721317,1.2246311500055773,1.1963407493463412,0.18244765520456774,-0.8175523447954323,-0.5807954839105358,0.00014404544415019395,0.013180467677634332,0.5731514507055131,1.4842747694800942,5.779257772881257,1.3244821053459366,1.1857765951261956,1.1464030963565917,1.539863147774004,1.9282617856345643,1.8675992756704618,2.930801762112083,0.9449585491593154,Relax
99.99934535148753,600.0816326530612,24.493918230790573,,,,,,,21.025757399599286,21.13494219975398,0.040817643630415526,0.03503816190247466,599.5,27.428099999999997,0.045751626355296074,36.75,1.164948199737974,579.4,623.0,0.0,33.6734693877551,547.0,658.0,6.533333333333333,101.5625,,,0.03452208268959725,0.08309913764304412,0.014291815400796982,0.13191303573343835,0.4154325022948893,0.2617033449170052,0.6299539479249472,-2.487720954514602,14.944660949431766,31.43120146061445,0.47547215044128993,1475.6960730743633,2.1031726023740633,3.875967031555751,264.4209670866558,0.4489795918367347,0.4639175257731959,0.7555555555555555,0.0,50.11655011655011,50.11793304970639,50.11486671096716,51.546391752577314,0.49946364441956986,0.5005363555804301,10.56182197034836,10.573157837971902,0.44015962159278105,0.5598403784072189,20.852881828304273,23.517604995247904,0.45109462909880454,0.5489053709011954,16.528683611808834,18.232792043172868,1.0875450291621693,0.5368698840812616,1.24244494691676,1.3559799712028,-0.10491276347771716,-1.1133944104804403,-0.28852413284397366,0.00016776439912645838,0.022838831930243428,0.4888377732130684,1.85238409104449,5.823793772642484,1.3217334031233043,1.108334375022341,1.2356080828481293,1.617407590437309,1.896156074185215,1.8371780149462398,3.4353644094591007,0.9449585491593154,Relax
100.48235416225992,597.3737373737374,25.84118918197239,,,,,,,20.310347217160828,20.409782599335948,0.04325799338882764,0.033999397607354105,597.0,28.1694,0.047184924623115576,37.5,1.272316465379695,576.6,621.4,0.0,32.323232323232325,544.0,658.0,7.071428571428571,109.375,,,0.04001079677621026,0.050089830649661056,0.014335256563608595,0.10443588398947991,0.7987808354964162,0.38311349746645174,0.47962279569258714,-2.9939372725394477,14.43189567853365,33.32325782223624,0.43308777777733976,1510.8477663861001,2.309000741448129,3.8861908168228463,307.77370807604257,0.46464646464646464,0.47959183673469385,0.7659574468085106,0.0,48.679471788715496,48.59851796992374,48.756896953196986,52.04081632653062,0.49168851729085244,0.5083114827091475,10.12219160491432,10.291874484872576,0.4244601201066294,0.5755398798933705,21.71030374238924,25.280471184304076,0.4350826010285731,0.564917398971427,16.938064403487758,19.30058164554633,1.1009856816197627,0.4921727781892846,1.159644273271104,1.2566786148813232,0.3702666181584373,-0.3876557576368871,-0.30284496438992276,3.884158541370136e-05,0.012720601401306346,0.637082701877437,1.7777732272533153,5.915930453583746,1.2659578439023225,0.8097772181912689,0.9004493302011837,1.3064237068852582,1.9133603769021148,1.7899709385313123,3.239614302402946,1.0714111709219571,Relax
101.3806706230188,591.959595959596,28.473015937370935,,,,,,,19.609972473416764,19.70733693250248,0.04809959350555803,0.03312721443703945,591.0,29.651999999999997,0.050172588832487305,40.0,1.4519661348820807,567.6,618.4,0.0,29.292929292929294,532.0,658.0,8.25,117.1875,,,0.045363966249507094,0.046875632649252034,0.016901916079943256,0.10914151497870239,0.9677515520471794,0.4156435455230698,0.42949406244176863,-3.0602572982652627,13.935191584100593,37.91020539998944,0.36758417521273773,1659.6593388130827,2.720465317695612,3.9269890639919396,412.5335959095526,0.47474747474747475,0.489795918367347,0.8125,0.0,48.865069356872624,48.8557630420761,48.875977674939044,53.06122448979592,0.4998407896831714,0.5001592103168285,9.853828603356662,9.856966765411812,0.41436174386837815,0.5856382561316219,24.40315416494223,29.01154494802803,0.42453983884300167,0.5754601611569985,18.609297022486732,21.665981792730783,1.2108043180851973,0.6137719332707565,1.286547858280219,1.3152214271195248,0.4275170740131564,0.002034215593382349,-0.45328302373406687,3.3551461934498544e-05,0.01655654114726818,0.5714088804856678,1.7197859696029658,5.964968362394587,1.170989893974102,0.0,0.9767378208731632,1.5162287122358526,1.9183356039692259,1.7497073622929487,2.939453862640328,1.0714111709219571,Relax
101.24849752480978,592.6,29.99191810330162,,,,,,,20.340286938174515,20.4437778296491,0.05061072916520692,0.03432380516060499,591.0,29.651999999999997,0.050172588832487305,41.75,1.4745081126172803,567.8,619.0,0.0,32.0,532.0,672.0,9.090909090909092,125.0,,,0.024142888238320642,0.03886550369173974,0.016182360478726062,0.07919075240878645,0.6211906689749614,0.3048700448468263,0.4907833618136894,-3.247648216349463,14.455933936416075,40.01058662213092,0.3613027240250487,1817.0670220177121,2.767762138241369,3.966341056397863,442.9591471262423,0.47,0.48484848484848486,0.7916666666666666,0.0,49.908480780964005,49.9026399592204,49.91424336554851,52.52525252525253,0.5186650064698847,0.48133499353011555,10.410944006286885,10.029293828275126,0.4302662529108755,0.5697337470891244,26.244817739488806,30.20027456279256,0.44047338333816105,0.559526616661839,19.964696507598447,22.501592369896102,1.1771018674138853,1.2573954113920482,1.3399739537257354,1.5195387031255079,-0.45249704247338585,-0.7219980076885717,-0.3571930931408614,0.00018963405844574146,0.07907082262680104,0.5694439922101884,1.8718021769015916,5.966111814666549,1.1674659509894958,1.4260689840949194,1.1159103590013901,1.6400850605073543,1.9797476449672593,1.7168889545865142,2.599065492287195,0.9301398665684615,Relax
101.93034954215862,588.93,30.442943817620996,,,,,,,19.710018987429933,19.781073475984474,0.051691956289577706,0.03346750715268357,586.5,29.651999999999997,0.050557544757033245,42.5,1.5445415774097422,562.0,617.2,0.0,30.0,532.0,672.0,9.090909090909092,125.0,,,0.02518124868296077,0.012442982684348385,0.007937678732516083,0.04556191009982524,2.023730910968431,0.5526820238174641,0.2731005494959728,-4.386598454787427,13.987331194017973,40.23565913883899,0.347635194585794,1768.055327881349,2.8765787111730625,3.954465961259658,462.96416203520045,0.46,0.4747474747474748,0.7659574468085106,0.0,46.63705583756346,46.59284968539797,46.67947022837098,55.55555555555556,0.4984659386375454,0.5015340613624546,9.889955737504385,9.920346027539688,0.3789336881781241,0.6210663118218759,24.768102070709226,31.708821897884615,0.39185569334899123,0.6081443066510087,18.858288690584658,23.493218717939538,1.304134422199052,1.0168165526055866,1.4395263442290624,1.5010389454582427,-0.008124828806344908,-0.19837055226189904,-0.43950472081561365,7.09949748014451e-05,0.04691251896929059,0.5941227224267935,1.1882244473577965,5.9736606896881845,1.1137314186117961,0.7449959791464629,1.1801126152917745,1.5197393719659238,1.845121015441047,1.6895815526612012,2.37725139988927,0.8637013046707142,Relax
102.13016737137602,587.51,29.29594552565976,,,,,,,19.187801259438693,19.274840609444233,0.04986459043362625,0.03265953134319193,586.0,28.1694,0.04807064846416382,38.0,1.526800550492921,561.6,613.0,0.0,32.0,532.0,672.0,7.6923076923076925,93.75,,,0.02680490657770901,0.013227452771325816,0.01750914520142887,0.057541504550463696,2.0264601991863542,0.46583603934445617,0.22987672767098724,-4.3254608536837,13.629370501227863,39.06083215363343,0.3489267829118705,1672.5039862593321,2.8659307596131796,3.930337271503815,447.7825614607422,0.48,0.494949494949495,0.7755102040816326,0.0,47.95587280986373,47.96914130835329,47.94538882572662,51.515151515151516,0.47927240802216786,0.5207275919778321,9.440738902247437,9.840565771025442,0.4347032584586825,0.5652967415413176,25.753599587604658,29.36836251505439,0.43954534972954656,0.5604546502704533,19.39555932087393,21.90134072961664,1.2553380809120234,1.9115196761392657,1.3323606007006088,2.1002294665298704,-2.0974065332256515,-2.749229166592637,-0.09829402992066415,0.00309285853700561,0.29784490331134233,0.6000346834847403,1.6094379124341005,5.878562939644916,1.140128287419941,0.6770125502755525,1.3020308391103694,1.7976102024955267,1.8518766440402123,1.6776944400492118,2.5114830354520765,0.8637013046707142,Relax
102.5577926930668,585.1188118811881,28.456383160448507,,,,,,,19.63262590689284,19.731439303043683,0.04863351268601281,0.03355322971717984,584.0,28.1694,0.04823527397260274,36.0,1.4494435586661754,559.0,610.0,0.0,33.663366336633665,532.0,672.0,7.214285714285714,93.75,,,0.03816325348918349,0.020842841692266807,0.004526933870782311,0.0635330290522326,1.8310004966042115,0.6006836767975948,0.32806308786460064,-3.870744713798446,13.952234533752952,37.916439226757085,0.3679732279266103,1661.9623698117,2.7175890094902315,3.9275912962160535,412.1651940865574,0.48514851485148514,0.5,0.8,0.0,49.813664596273284,49.81516859314082,49.81247005525492,53.0,0.5054483188044833,0.4945516811955168,9.919371925376092,9.811866655877834,0.4270413266597334,0.5729586733402666,24.77778603523892,28.700482275186296,0.4363919438603891,0.5636080561396108,18.872368958374306,21.44749880639943,1.154207895639631,2.2024217632013734,1.296292241199851,2.041706027569041,-2.247756600241164,-2.6572095567589065,-0.16154811997240753,0.0030044106743347776,0.3493785255782366,0.6181175935289853,1.6211339521972918,5.739459131073862,1.17014899100704,0.8532233553563366,1.3579129779868047,1.8015109806715082,1.8247695291700483,1.7253885116361827,3.1035059292716576,0.9229204035497537,Relax
103.13365427965095,581.8316831683169,26.216814950306492,,,,,,,18.296447742663055,18.371904329352162,0.045059105079230076,0.031446289832535834,580.0,23.7216,0.040899310344827584,32.0,1.432890980754422,559.0,603.0,0.0,28.71287128712871,532.0,672.0,6.733333333333333,93.75,,,0.023708134642822325,0.009258951430890243,0.004296468883179049,0.03726355495689162,2.560563668551699,0.6362284723035444,0.24847203766794312,-4.682164473140716,12.990898134595403,34.3451171304899,0.37824585326752963,1401.6967032099126,2.64378311450439,3.8536241618435176,363.2041629410587,0.5247524752475248,0.5257731958762887,0.8235294117647058,0.02857142857142857,47.413793103448285,47.48087941161092,47.34644356774832,54.63917525773196,0.4789998805114111,0.521000119488589,8.999158209790984,9.385406681964218,0.43312708984277337,0.5668729101572267,22.603343008314393,25.858769413016457,0.43887780383519365,0.5611221961648065,17.20313871995985,19.452015501502846,1.2794876417657794,1.6072839560215153,1.3932085367562228,2.083129619776537,-1.9260725304486819,-2.9676919720095434,-0.07075345620442507,0.0032936282761036116,0.2603237774250972,0.6954872226678885,1.5723966407537513,5.701486824503371,1.1823604460286474,0.8410390274954516,1.3449965219311888,1.7368514624442564,1.764879384151495,1.711060615461323,2.3175203491615775,0.9229204035497537,Relax
103.3716442812181,580.7450980392157,30.199890588782793,,,,,,,37.013511046643494,37.1980703215041,0.05200197245012906,0.06373452168879797,578.0,23.7216,0.04104083044982699,30.0,0.8159153167265233,558.0,597.8,4.901960784313726,33.33333333333333,497.0,702.0,6.375,117.1875,,,0.03545947442475462,0.021212662984912135,0.006016439425901964,0.06268857683556872,1.6716182428380524,0.5656449103600538,0.33838163275827204,-3.853156965014085,26.30300777138961,33.60452144259964,0.7827222838545149,2776.8537108777305,1.2775923474102477,4.150523110982472,171.73151773379553,0.5196078431372549,0.53,0.8301886792452831,0.05555555555555555,50.14005602240895,50.10242845416616,50.179014984081036,55.00000000000001,0.5407675074076749,0.45923249259232507,19.34244038377784,17.824701961042717,0.4277248808536068,0.5722751191463931,21.977585184994055,25.42143998325957,0.4706703236618361,0.5293296763381637,20.70198360741876,21.954152350096194,0.805267863192621,2.944970839656732,1.1370144362675854,1.567868429637749,-2.256857643414241,-1.6392416768766496,-0.3536983838453272,0.002301774554488967,0.4622172521258342,0.7238330560085555,1.4522523289116878,5.750473381017498,1.1384631022468177,1.5717019488678428,1.5224121777909287,1.718632295966394,1.6534531359225444,1.8092484973288603,2.758568094578835,1.0466549556033717,Relax
103.68410580351068,578.8137254901961,28.1142402140799,,,,,,,31.578599094831283,31.736074360915907,0.048572172662750886,0.054557446902433825,577.5,21.4977,0.03722545454545454,28.75,0.8902940921999791,558.0,594.8,4.901960784313726,31.372549019607842,497.0,678.0,5.666666666666667,117.1875,,,0.03991658752221776,0.021309776803131224,0.005776864223441933,0.06700322854879091,1.873158404754032,0.5957412558583054,0.31804104465822436,-3.8485893067354144,22.440793388844167,33.03414525116773,0.6793211453851952,2328.9016789459447,1.4720578135882558,4.07412126393547,194.5126865287633,0.5,0.51,0.803921568627451,0.02857142857142857,50.1001001001001,50.132011706151324,50.06825385557801,53.0,0.4604042971464883,0.5395957028535117,15.226785609576304,16.48438655212865,0.49758806360364477,0.5024119363963552,23.302260387834334,23.414939959197298,0.4858468750515322,0.514153124948468,19.683118898975756,20.24838775424866,0.8842502407375514,2.5796071545726336,1.2154331876873856,1.5115987233684656,-1.6439335458167594,-1.1486229714168203,-0.38518967504176194,0.0015728918145030636,0.35241677658780307,0.6669999262861066,1.4906543764441333,5.73826639574459,1.1464381585663614,1.4041167428244696,1.5002842406566435,2.0378810280675697,1.7650256618591729,1.7577576809157336,3.0026669445465557,0.9812390208781611,Relax
104.31915646994064,575.3786407766991,29.3895794874327,,,,,,,31.436365852929242,31.591594283187476,0.05107867655246977,0.05463596252112095,573.0,25.2042,0.04398638743455498,33.0,0.9348911265674871,552.4,592.0,4.854368932038835,31.06796116504854,497.0,678.0,6.0588235294117645,109.375,,,0.031088877221528893,0.021388250060846273,0.00838539839713092,0.060862525679506084,1.4535493615927357,0.5108049144269622,0.3514190353103967,-3.8449135703216633,22.338630546136027,35.201528272227705,0.6345926339726596,2470.403744477542,1.575814067900264,4.0997380468933,221.88425385186113,0.5145631067961165,0.5247524752475248,0.8113207547169812,0.02857142857142857,50.0747384155456,50.10985485496163,50.03969504857443,54.45544554455446,0.4643307110048511,0.5356692889951488,15.221955222377947,16.349523867473,0.4898999127139304,0.5101000872860696,24.638553072443717,25.141386103332106,0.482559165342399,0.5174408346576009,20.478845405633894,21.206086695685865,1.0450003577704787,1.3403225378773258,1.303041691101504,1.1765649776759373,0.11766273302164265,0.37246341174700914,-0.5943628938940834,0.00028813695712905454,0.09562484596122414,0.6746427245048845,1.5132940518811975,5.720006594934338,1.108671389232294,1.186669135615711,1.3554432846462343,1.8523229575591675,1.7756879142165014,1.732212332468639,2.53479070858668,1.0386796935430243,Relax
104.24723670349705,575.6960784313726,29.471849033597024,,,,,,,31.47134481642714,31.62680590077266,0.05119341634895346,0.05466659578814339,575.0,23.7216,0.041254956521739126,31.75,0.9364661473955687,552.2,592.0,4.901960784313726,32.35294117647059,497.0,678.0,6.0,109.375,,,0.033333141240229326,0.030325132821764005,0.009873132110820155,0.07353140617281348,1.0991919288909595,0.4533184250807035,0.4124106201708409,-3.4957784442188613,22.36352891970706,35.21319650245902,0.6350894306952611,2473.9770032884744,1.574581392269833,4.100365768314175,221.78417590045254,0.5098039215686274,0.52,0.7884615384615384,0.030303030303030304,49.21677614957049,49.26653596755794,49.1694906708194,54.0,0.4525416104363473,0.5474583895636528,15.0449327017438,16.547658444625934,0.4775574459864278,0.5224425540135721,24.334266539932273,25.45216454222164,0.47036706745957485,0.5296329325404252,20.230008996988452,21.466691406506087,0.8668388385589341,2.522198254469049,1.192184913101591,1.4360738209942672,-1.4996563491772417,-0.912980017736444,-0.4033030383473889,0.0013887443862775142,0.3292873433426928,0.7117013037398396,1.5830046553659447,5.74307252315315,1.0990388483434743,1.3736240201726562,1.3686431298623503,1.8201282138048984,1.742250021875146,1.7335258259067903,2.595149886969965,0.9158230861529503,Relax
104.72683805547359,573.1553398058253,29.65711146458157,,,,,,,32.299153148614394,32.45817164030962,0.05174358399003814,0.05635322731104061,573.0,23.7216,0.04139895287958115,32.5,0.91820089920388,548.0,590.0,5.825242718446602,32.038834951456316,497.0,678.0,5.722222222222222,109.375,,,0.03945624510950076,0.032156172813462454,0.008410602466572081,0.0800230203895353,1.2270193140951795,0.4930611831125097,0.40183652975022616,-3.4371508463094913,22.951393271779818,35.167455857166225,0.6526316081833629,2535.7117223803048,1.5322579958754323,4.1110699883134885,215.54246172695701,0.4854368932038835,0.49504950495049505,0.74,0.03125,50.43731778425655,50.451184185032275,50.42163317533277,55.44554455445545,0.4853491213231839,0.5146508786768162,15.989786343998867,16.465385233607172,0.4413279947174638,0.5586720052825365,23.362627764172704,26.285691457871934,0.45447748293525125,0.5455225170647486,20.01856192854554,21.932242091376917,0.8263285560143157,2.756913385394259,1.2242476236090145,1.3960080541912074,-1.4156379338494816,-0.513031489775627,-0.43769828552026496,0.001342998803335868,0.39696931223667214,0.6842958080617159,1.4635860354215373,5.688500648353401,1.1259845368257668,1.3332855423782966,1.3830404455325433,1.8798467211929757,1.726756501711468,1.7672778900600505,3.0703330151386954,0.9737622126965852,Relax
103.65175687656838,579.1470588235294,35.98855622809346,,,,,,,36.13971787273376,36.28678127155266,0.062140618137990836,0.062401625497585086,575.0,25.2042,0.043833391304347824,34.25,0.9958172987079583,553.4,596.6,8.823529411764707,38.23529411764706,497.0,696.0,5.666666666666667,101.5625,,,0.04332412025672936,0.040717047638027276,0.018758954793972493,0.10280012268872912,1.064029019045753,0.4214403555520208,0.39607975723254113,-3.2011084133461294,25.6586291045479,42.47959440241937,0.604022459853961,3424.235955568043,1.6555675764801487,4.241533793148704,281.31135661869257,0.47058823529411764,0.48,0.7083333333333334,0.03333333333333333,53.32480818414322,53.21710761200311,53.44233243978464,52.0,0.4801992207043983,0.5198007792956015,17.796769369747985,18.516074097929074,0.6002078990997236,0.39979210090027645,32.91025253011471,26.85947168129219,0.5680847808654135,0.43191521913458675,26.45571508763203,23.068118898147475,0.9856064330765378,1.2678531096016266,1.270079327472501,1.2191029852938173,0.21178193733554096,0.13463839892060303,-0.5402068203269235,0.0004040755326774718,0.10048111249595856,0.7128603778633802,1.1958755940933166,5.831499484022305,1.0455245611089228,1.26965665213952,1.2840069430119352,1.6838910640927158,1.688545383813879,1.7709909609492507,2.423259390018641,0.9812390208781611,Relax
102.93769258807949,583.1782178217821,36.37674972825471,,,,,,,36.75363927558739,36.938795953098506,0.06237672913114762,0.06302299734867535,578.0,26.686799999999998,0.04617093425605536,35.0,0.989745517593328,557.0,603.0,8.91089108910891,41.584158415841586,497.0,686.0,6.3125,117.1875,,,0.010405646580004237,0.04995587593481769,0.03540618954287281,0.09576771205769474,0.2082967495872057,0.10865506083861971,0.5216358923216422,-2.9966151444734987,26.11967310730215,44.58972284998398,0.5857778752108018,3658.9155264700394,1.7071317342604202,4.270322492989963,304.4821235963385,0.4752475247524752,0.48484848484848486,0.7083333333333334,0.03333333333333333,50.0205676676265,50.05239908423613,49.98828696521699,53.535353535353536,0.46436635253880953,0.5356336474611906,17.799103370902728,19.116204982404142,0.4236464522678122,0.5763535477321879,29.022616281239724,33.85160451190316,0.434049312404858,0.565950687595142,24.074055917274947,27.489638238430818,0.8948226657674017,1.2899246883383877,1.132105982996007,1.0674355558783823,0.007638326292262576,0.1796386857409491,-0.5501350409851676,0.00017257410023775263,0.08211700860153688,0.7207115377864688,1.2498432583920331,5.853417299433535,1.0686745896158247,1.365885289636535,1.326117856987242,1.684265739214811,1.7806849655060808,1.7824600234209185,2.9633454254488827,1.1206890614532723,Relax
103.70992850292728,578.9019607843137,34.65687816347645,,,,,,,36.02075859146987,36.19992068258911,0.05986657588190283,0.062222554131044695,575.5,25.9455,0.04508340573414422,33.0,0.9621362658276607,553.4,594.8,8.823529411764707,38.23529411764706,497.0,686.0,6.8,101.5625,,,0.03890867416636411,0.025118969774227614,0.0083051327909031,0.07233277673149482,1.5489757150106096,0.5379120769937574,0.34726953546206696,-3.6841319503956287,25.59720939307391,41.980241698557506,0.6097442119765942,3375.883325563358,1.6400319680908855,4.235357538454618,275.3957536552653,0.5098039215686274,0.5151515151515151,0.7647058823529411,0.03333333333333333,49.59626009349767,49.608213184132026,49.583952777610385,55.55555555555556,0.46107884957305406,0.538921150426946,17.381455635245285,18.791487434474153,0.42105809219343915,0.5789419078065607,27.24055451011645,31.942023778256146,0.431904909125297,0.5680950908747029,22.849100748373292,26.205084268617426,0.9104487115504333,1.0107568091786474,1.136208397586161,0.8214732594612344,0.7591239972091683,1.2208568545303002,-0.811385622403755,0.00042731992102531207,0.06960087646881939,0.7417914922952815,1.5207722753484438,5.7874776703392365,1.0683525247228196,1.342473932776111,1.4221486828989949,1.948418203583602,1.702243113367637,1.7427433054992643,2.8749910289434455,1.1120708903285825,Relax
103.8203319660932,578.3137254901961,34.86124700034335,,,,,,,35.94371287234396,36.119956909286486,0.060280857022360836,0.06215261939681094,575.0,26.686799999999998,0.04641182608695652,34.0,0.9698844168980247,554.0,594.8,8.823529411764707,36.27450980392157,497.0,686.0,6.375,101.5625,,,0.03132358739475398,0.01498340779263349,0.007168263611327946,0.05347525879871542,2.090551617379996,0.5857585002563173,0.28019327309909947,-4.200811837269983,25.540666466722364,42.178227455490926,0.6055414844939715,3384.3122264076983,1.6514145200731585,4.236440532872168,278.61494900378426,0.5196078431372549,0.5204081632653061,0.7450980392156863,0.034482758620689655,48.99184899184898,48.960220317629535,49.02200624811206,55.10204081632652,0.45676580808816203,0.543234191911838,17.262966141425405,18.826178581963998,0.42499428763568503,0.575005712364315,27.49665539632977,31.983383393609515,0.43351963479392375,0.5664803652060764,22.95730883601681,26.242730548693068,0.9263204559717593,1.1941749338950145,1.1453172644484804,1.0462918711149751,0.03881695773188554,0.1475916875629122,-0.5829236910965099,0.00028347944402009646,0.07080444281391686,0.7789312145315939,1.5564453822935902,5.804490783020703,1.044767741437064,1.4271342650922587,1.0510788378084484,1.4127301756524904,1.718356615205437,1.746766161348562,2.9728637364118633,1.1120708903285825,Relax
103.9905518195531,577.1470588235294,36.55117044050386,,,,,,,36.18721944948449,36.3641647126333,0.06333077485487087,0.06270017129299661,573.0,28.1694,0.04916125654450262,37.25,1.010057445599749,550.4,597.0,8.823529411764707,37.254901960784316,497.0,686.0,6.8,93.75,,,0.026210682173299596,0.01831952560637692,0.007202266883631886,0.05173247466330841,1.4307511415129555,0.5066581937919489,0.35412041905217734,-3.9997878149198516,25.713347460487565,44.89071879201052,0.5727987466545965,3626.3110263044828,1.7458138758865167,4.266435160470002,313.48335906244625,0.5294117647058824,0.5306122448979592,0.75,0.03571428571428571,51.076403545799906,51.087949215841334,51.060126670972835,54.08163265306123,0.47140124450896337,0.5285987554910366,17.656160398002733,18.696657455277936,0.4505104386822955,0.5494895613177045,30.13068384975679,33.27639590474563,0.4556721383455566,0.5443278616544434,24.69410971521341,26.989660283239687,0.8856375816511236,1.399017439609893,1.235532216715867,0.9970811743169858,0.4613130264119967,0.8469955942523075,-0.6704417941104235,0.0007628384859703223,0.13519528579436688,0.7704381504715889,1.4790760945708568,5.8781160281611635,1.0416366310209384,1.2403698830435488,1.2264613371129838,1.5203545621931513,1.7693985215228172,1.7267241956749952,2.9352948932023972,1.0466549556033717,Relax
104.04212586777506,577.0,36.45383865851684,,,,,,,36.11921980352962,36.29747909888767,0.06317822991077442,0.06259830121928876,573.0,28.1694,0.04916125654450262,37.0,1.0092642880108535,549.4,597.0,8.737864077669903,37.86407766990291,497.0,686.0,6.866666666666666,93.75,,,0.027686115081002032,0.015872251425170462,0.004202004281462989,0.04776037078763548,1.7443092564106542,0.5796880263787566,0.33233099248215164,-4.143182887765534,25.66619361080045,44.992398352745425,0.5704562226173102,3627.8596966638243,1.752982893957927,4.266620592830848,315.4836186820142,0.5339805825242718,0.5353535353535354,0.7547169811320755,0.034482758620689655,50.18836333193805,50.22473484894221,50.15026740944296,52.52525252525253,0.46370679872847925,0.5362932012715209,17.477708574916306,18.79593383455239,0.4503547743302369,0.549645225669763,30.193713494872576,33.356492245463684,0.4536330094442008,0.546366990555799,24.669116640448976,27.07344366380596,1.0046390513025516,1.2157746726104701,1.325954351609281,0.9118248099487891,0.9206218309227356,1.6319566189352837,-0.840630176783735,0.0008674932503853972,0.12025369437397482,0.761092785385479,1.4775857813292974,5.989661328049069,1.0459117821287165,1.219059229827777,1.1923339483465738,1.5402072709861712,1.729728741525878,1.691625156653054,2.8453208868589708,0.9737622126965852,Relax
103.75272248039876,578.4019607843137,35.53641551704993,,,,,,,28.417154211239144,28.54694240706138,0.06143896101054449,0.049130459676702085,573.0,31.1346,0.05433612565445026,42.5,1.2505268913589904,550.4,602.8,5.88235294117647,37.254901960784316,522.0,686.0,8.5,117.1875,,,0.0319564638486094,0.01192813931660397,0.0035911674120501576,0.04747577057726353,2.679082042923996,0.6731110092589749,0.2512468817581749,-4.428855021792136,20.185736558174927,45.90594560167733,0.4397194370708567,2911.142143522136,2.2741773860655137,4.171033521391728,417.59305349315287,0.5098039215686274,0.5151515151515151,0.7254901960784313,0.03571428571428571,52.00774068698597,52.02877410664176,51.9805544974362,50.505050505050505,0.4958374713404692,0.5041625286595309,14.219880449567782,14.338758663147937,0.45020000626185713,0.5497999937381428,30.801487189373653,34.03856971887933,0.4575996071695514,0.5424003928304485,23.98892049548238,26.117276164514255,1.2136264099275293,0.5641206714011986,1.2291890621380464,1.0669559908075836,0.6612156724869909,0.7645456638433483,-0.7875857587836623,0.0003627506636533549,0.024619513899559874,0.7942559405406029,1.6022694229554877,6.020177057530507,1.0790033631284848,1.1962339566425897,1.246923659016823,1.5254119944424496,1.7394248853277356,1.6595260078066603,2.391220890387747,0.9812390208781611,Relax
103.6640488235247,578.8333333333334,34.771982386339545,,,,,,,25.48946588862012,25.61616135903811,0.060072529317027716,0.0440359330065421,575.0,31.1346,0.05414713043478261,41.75,1.3641706946030454,552.0,606.4000000000001,3.9215686274509802,36.27450980392157,522.0,686.0,7.846153846153846,70.3125,,,0.034536453443636116,0.014493144331894484,0.004335927237955417,0.053365525013486015,2.3829510458702274,0.6471678754197284,0.2715825306362472,-4.234079546059925,18.113361404944655,45.90021031466732,0.39462480195121385,2611.9424311957655,2.5340525862934147,4.123933710555051,465.25418663717755,0.5,0.5050505050505051,0.72,0.0,49.610389610389625,49.62108370179476,49.59899604761935,52.52525252525253,0.48604867344295266,0.5139513265570473,12.628341142050289,12.985761433200596,0.44174446301986864,0.5582555369801312,30.507051330219074,34.295030632236966,0.44771441174476445,0.5522855882552354,23.34689680519256,25.93047556511519,1.22855600549311,1.100895126344958,1.384628359193142,1.361812655926958,0.057458128435678546,0.11341552656176912,-0.5207246836871134,6.252627235401737e-05,0.05274537740047746,0.7935887264408366,1.8672670217361997,6.059392743805016,1.050951127696012,1.1924676656544586,1.150036254515335,1.2713093249528742,1.7049709150848669,1.6257338132400303,3.162864391948648,0.9812390208781611,Relax
103.67268472555523,578.9803921568628,35.09420995152787,,,,,,,25.650352708284654,25.776987203839994,0.06061381426198596,0.04430262761184358,574.5,31.1346,0.05419425587467363,43.5,1.368176506212057,550.4,608.6,3.9215686274509802,37.254901960784316,522.0,686.0,7.846153846153846,70.3125,,,0.036503025048230504,0.01600154810351829,0.003938860903045251,0.056443434054794045,2.281218342880494,0.6467187133368634,0.2834970687287442,-4.135069804953068,18.227082450394118,46.25575907413856,0.3940500126952801,2648.700436413976,2.5377489348624955,4.130002953057402,469.5420132866054,0.5098039215686274,0.5151515151515151,0.7254901960784313,0.0,50.67010309278351,50.71604908731862,50.62247396101811,50.505050505050505,0.4890898693794018,0.5109101306205984,12.747744898608538,13.02900610177154,0.45128542228104557,0.5487145777189544,31.073592402387693,34.26407889809715,0.45636699233069866,0.5436330076693011,23.749454149408635,25.920861316081165,1.2558577737651024,0.8923540210023813,1.3672056599965168,1.4594873461321551,0.021302227139567975,-0.3111489588013514,-0.3965862382376242,7.425805515468421e-05,0.03643026646404578,0.8557194827102022,1.704748092238425,6.106009287943873,1.0737115938008783,1.2791544112841777,1.0029569391007207,1.327598532488468,1.7314247713986073,1.6397270908682742,2.2831183269471795,0.9158230861529503,Relax
102.8126410064195,583.6862745098039,33.93090836418836,,,,,,,26.15055420346794,26.28088941635826,0.058132099118973615,0.044802414148645026,580.0,32.6172,0.056236551724137926,43.0,1.2975215783261922,556.0,610.0,3.9215686274509802,38.23529411764706,522.0,686.0,7.285714285714286,101.5625,,,0.03386667616156337,0.012120271700889512,0.0036431029937865718,0.049630050856239456,2.7942175717956785,0.6823824593624344,0.24421235706563374,-4.412875881027097,18.58339512192069,44.493766389515194,0.417662891453932,2597.6109356571437,2.3942754323202773,4.121544213915722,426.12132703125565,0.49019607843137253,0.494949494949495,0.6938775510204082,0.0,49.82526210683974,49.82660752123195,49.8225618992423,50.505050505050505,0.48531178965961563,0.5146882103403841,12.946041866145807,13.332104110004542,0.45897057074672415,0.5410294292532756,30.143355116194567,32.727257597662216,0.4628831087146829,0.5371168912853173,23.197218126976054,24.98818110491177,1.2225704979622638,1.0388993016666292,1.334806361651741,1.3503499554942855,0.05656138603270655,0.13068700796353294,-0.4850384018762847,7.83902926246074e-05,0.044227038314641295,0.710841641080846,1.8137383759468302,6.047185758532111,1.1293459794320304,1.0181378790320155,1.0938659212948894,1.1566015004941512,1.8202747680039968,1.6790223982374461,2.8013752435731334,1.1120708903285825,Relax
103.28500233660235,580.8137254901961,34.992992337266294,,,,,,,25.779721864402273,25.89544858514219,0.060248218665515954,0.04438552453739736,576.5,31.875899999999998,0.05529210754553339,45.0,1.3573844016364698,553.0,609.0,3.9215686274509802,37.254901960784316,522.0,686.0,7.846153846153846,101.5625,,,0.02947540920205246,0.011495586558944764,0.004532757909216847,0.045503753670214066,2.5640630907274167,0.6477577523751964,0.25262941255920096,-4.465792094757422,18.31084729642163,45.83615244855449,0.399484824058331,2636.734906990531,2.50322400195604,4.128036578694011,458.95262786615086,0.49019607843137253,0.494949494949495,0.7142857142857143,0.0,47.8844169246646,47.8050902406955,47.961978545409664,52.52525252525253,0.4781896192122043,0.5218103807877958,12.668464784653269,13.233669181296621,0.44906579013001285,0.5509342098699872,30.715892648114156,34.02185782870558,0.4530773834756292,0.5469226165243707,23.494212704094526,25.8129503361845,1.22713953540023,0.9752338586819835,1.4551158978740726,1.3013220186676326,0.756407997965586,0.8189033621562967,-0.6576994869869371,0.0003410485504565434,0.0653045928698405,0.7166782445466389,1.734601055388106,6.027577915394856,1.058849879250247,1.2643762900933073,1.0462267811153318,1.1644126009515836,1.8386528823530073,1.6456761658125239,3.0531020728402063,0.9812390208781611,Relax
103.04807382972102,582.049504950495,36.14840971263432,,,,,,,25.937810239108465,26.04545172492801,0.06210538692187161,0.04456289373756026,579.0,32.6172,0.05633367875647668,42.0,1.3936569579081326,554.0,609.0,1.9801980198019802,33.663366336633665,522.0,721.0,8.416666666666666,109.375,,,0.039213684215718164,0.0176259334941799,0.005401938899868991,0.06224155660976706,2.2247720512883227,0.6300241567153332,0.28318593644256645,-4.038383967477571,18.416915533763454,45.765773347568484,0.40241678850035073,2647.9365507135567,2.4849857873142103,4.129877684383108,454.9091852566047,0.48514851485148514,0.489795918367347,0.7083333333333334,0.0,46.95019585898153,47.32748930094303,46.52992252295584,48.97959183673469,0.33118301945687245,0.6688169805431275,10.60803012016383,15.074897188787897,0.4538670375230592,0.5461329624769409,30.83224347787212,33.821276915903425,0.4367425607615804,0.5632574392384193,23.055992072659667,26.18330859034766,1.2323560383853187,1.0589254652658378,1.3642285239332208,1.1343096447694605,0.5545274813373826,1.3124538721468149,-0.7171247049064405,6.062268030268926e-05,0.04783915141569359,0.7687899280952264,1.5453590557495782,5.999505294504461,0.9995518552440126,0.9899224472932997,1.0398597329182209,1.3794504800488105,1.8900999559514202,1.648511370637168,1.910715103607236,0.9229204035497537,Relax
103.95498297739012,577.4901960784314,28.50282080813368,,,,,,,20.498249140396897,20.599524170223056,0.04935637176472965,0.03549540629363852,577.5,28.1694,0.04877818181818182,37.25,1.3905002623839606,554.0,600.4000000000001,0.9803921568627451,29.411764705882355,522.0,663.0,6.8,101.5625,,,0.0550358918645398,0.021883067044395996,0.005273394350480761,0.08219235325941655,2.5149990059841207,0.669598687493894,0.26624212808858727,-3.8220421355483962,14.566063229980912,36.21762193482422,0.40218165776299214,1657.3414588750452,2.486438604789146,3.926382104457076,360.2115734096205,0.4803921568627451,0.48484848484848486,0.7291666666666666,0.0,50.63451776649747,50.5531458746351,50.723540068433316,51.515151515151516,0.5907441443988877,0.4092558556011123,11.19598142192099,9.318798205777396,0.4923474463385003,0.5076525536614996,25.41299059865904,25.804961682713817,0.5060482871136577,0.4939517128863422,19.636319552904162,19.40020679588659,1.2923808475319798,0.9185586931045471,1.4195549237304443,1.6934614714966951,-0.26729992621935494,-1.151947931687653,-0.201808333182825,0.00030987512607265794,0.05983487646173658,0.6067826034490835,1.6211339521972916,5.929538699708581,1.1355432120300355,1.3619676073179754,0.9835490823390071,1.3270866999716244,1.9056096268042737,1.6404779268389695,2.253184393754597,1.0466549556033717,Relax
103.37346977344893,580.6176470588235,31.636563668412002,,,,,,,18.39366012171768,18.475431907222518,0.05448777492153427,0.0316794713610456,580.0,32.6172,0.056236551724137926,43.75,1.71997109107492,554.0,607.0,0.0,29.411764705882355,522.0,665.0,7.846153846153846,109.375,,,0.05671128773305173,0.020321709635262596,0.004805250202049266,0.08183824757036359,2.7906750342818247,0.6929680121057334,0.24831555218469484,-3.8960655242174247,13.064103186947351,42.797229715101054,0.3052558138438962,1756.4877793042956,3.275940881870924,3.9516152425133066,560.8047778180827,0.47058823529411764,0.48,0.7291666666666666,0.0,52.00789993416722,52.0013387342972,52.01061487742148,49.0,0.520499839044804,0.47950016095519593,9.430270409696638,9.051243008559654,0.5194496073785335,0.48055039262146637,30.845184265351598,29.66778520421831,0.5195392159210718,0.48046078407892795,22.807404415709975,21.932880327531482,1.3779254844057238,0.6037022957161824,1.4917475478991458,1.6077355810602878,0.5151548289632117,-0.3073636636506052,-0.3078721350172382,0.0002814110013597988,0.03233817092043103,0.6506931742714168,1.509354453877118,5.96875438598309,1.0692453373661077,1.2860368384587075,1.1464729409997259,1.366888640328645,1.897459585898849,1.6122386587135284,2.3300911958506845,0.7849912167025288,Relax
103.3443196393963,580.6470588235294,31.860353418892004,,,,,,,18.57044388641838,18.662935152725883,0.05487042935074097,0.03198232662031329,580.0,32.6172,0.056236551724137926,43.75,1.715648458042152,552.4,607.0,0.0,28.431372549019606,522.0,666.0,7.846153846153846,109.375,,,0.05092057420958172,0.01715501636598131,0.0032718697054727516,0.07134746028103578,2.968261476599818,0.7136984835761064,0.2404432659327767,-4.0654646486656905,13.196688003337266,43.18847137148918,0.3055604327790366,1790.5343401791886,3.272675034869915,3.9599527646072916,565.3673282066667,0.4411764705882353,0.44999999999999996,0.7111111111111111,0.0,50.22712524334847,50.23856977140477,50.21528472434918,50.0,0.4886451724038932,0.5113548275961068,9.22496612459905,9.436895676015498,0.5118238846985491,0.4881761153014507,30.897839089425652,30.175612653430925,0.5098445326825433,0.49015546731745685,22.801057655249675,22.3564599054714,1.474804348536154,0.8242621332708815,1.6403511991144013,1.8253465923206882,0.08699419853636137,-0.7898281557618256,-0.27556242639440665,0.00036498957966560943,0.05388946768755243,0.6185598161307229,1.4441139320087168,5.988362229120345,1.0760637280050882,0.9750586092109301,0.964040127989356,1.3746172165567359,1.9379508938718213,1.5420598249969024,2.315162612510371,0.9158230861529503,Relax
102.956955402329,582.990099009901,30.382723725665205,,,,,,,18.96180371167258,19.05329844982705,0.05211533399497615,0.03252508703642761,581.0,31.1346,0.05358795180722891,40.0,1.6023118996302073,558.0,607.0,0.0,29.7029702970297,523.0,666.0,6.733333333333333,109.375,,,0.05905036476998511,0.01790968120157004,0.0022869140740010875,0.07924696004555623,3.297119814997517,0.745143595868399,0.22599833723936422,-4.022413863091946,13.472716537843839,40.52338083056982,0.33246773249679995,1715.183997678687,3.0078106903491006,3.9412808261133057,487.5466322851029,0.42574257425742573,0.43999999999999995,0.6818181818181818,0.0,51.23966942148759,51.34126159706772,51.14326930690682,49.0,0.5016826588791546,0.4983173411208455,9.544684913657973,9.512617883101317,0.547684921037745,0.452315078962255,29.989626918774306,27.253746003295056,0.5431044358150613,0.45689556418493865,22.253974171238298,20.41147434902756,1.44287586918068,0.853389395672375,1.5727143274584165,1.8238719190312471,-0.16178479167853155,-1.075685836022072,-0.205694032704793,0.0002915981451846813,0.05310366000650914,0.6448090342628041,1.5093544538771178,5.9053491063428085,1.1355704469215882,1.1847092442362293,1.051635390183527,1.481094214866082,1.951407154855238,1.5788715287042339,2.0863600444464736,0.9229204035497537,Relax
103.03850315791205,582.3465346534654,29.20870953793213,,,,,,,17.906702655709676,17.993071056954285,0.0501569216949376,0.030749221623453716,580.0,29.651999999999997,0.05112413793103448,40.0,1.6311606943793602,558.0,604.0,0.0,27.722772277227726,526.0,666.0,6.3125,93.75,,,0.0502991874925924,0.026705156568729453,0.0025901974551191427,0.07959454151644099,1.8835009397207767,0.6319426751418957,0.3355149242641627,-3.6228986023081537,12.723022558743775,39.38456537654046,0.3230459048387083,1574.2229051054849,3.095535293967847,3.9040363370974345,487.66524864266023,0.42574257425742573,0.43999999999999995,0.7045454545454546,0.0,48.75420875420875,48.77481002488957,48.73555514907218,50.0,0.4611882114455015,0.5388117885544986,8.642156483590695,9.341176358338158,0.5190477533183312,0.48095224668166864,28.374597847904436,27.313479947979655,0.5135780815976202,0.48642191840237964,20.973848856578183,20.411807399471787,1.3957568131011588,0.4484447542646477,1.3931587205123694,1.5918529323344393,0.4572820107521469,-0.486465473449766,-0.05692599828069081,0.00011687712118283323,0.015481463318409442,0.5902831408064362,1.717651497074333,5.900495393514361,1.0987134952154858,1.2999671831062165,1.2443913482109958,1.5049035379349847,1.9601847873083647,1.5743136330271938,2.588138344444686,0.9229204035497537,Relax
103.78120452683591,578.0873786407767,32.40192042121387,,,,,,,17.440374613713626,17.52448158614495,0.05605021250835579,0.030169097714466915,577.0,31.1346,0.053959445407279025,41.5,1.8578683737524628,549.4,603.0,0.0,25.24271844660194,518.0,666.0,7.923076923076923,109.375,,,0.05407760914659992,0.016618331358981824,0.003161206569202277,0.07385714707478402,3.254093806317818,0.7321919582385664,0.22500640787214457,-4.097248894175125,12.391679766341877,44.06955914785966,0.2811845638111791,1715.6107557678113,3.556382990751652,3.9413888702823625,626.9129222534879,0.42718446601941745,0.4411764705882353,0.6888888888888889,0.030303030303030304,49.085985104942445,49.02376572899937,49.14611060521813,50.98039215686274,0.4700402900886383,0.5299597099113618,8.496650475742232,9.021975371500433,0.49583928055956006,0.5041607194404398,31.031957401337593,31.29127136004976,0.4939485446202335,0.5060514553797666,22.750554382974514,23.027588919948077,1.4051140711652461,0.4907877467706736,1.4791772454187635,1.6482202166751798,0.4357818585022173,-0.5596426857469767,-0.1555680691527049,0.00025205378288428346,0.023809020106636318,0.7123307600508904,1.562917896799207,6.074660235837064,1.0085523867459516,0.9903114706839481,0.9542111980225608,1.425988836622028,1.9469850400949675,1.580881244075536,2.3124478289828745,0.8439272510037072,Relax
103.71141068291,578.6470588235294,32.564831622327866,,,,,,,17.386975892692476,17.471923729569138,0.05627753762118265,0.030047635475833293,577.0,32.6172,0.056528942807625646,45.75,1.8729439681350482,549.2,605.6,0.0,23.52941176470588,518.0,666.0,7.846153846153846,101.5625,,,0.056401008703109386,0.013920095293823147,0.0027661414793469087,0.07308724547627944,4.051768864551995,0.7716942721752239,0.19045861152806656,-4.2744217782786675,12.354515749552492,44.41684409775147,0.27814933727310714,1723.944570274023,3.595191021498382,3.9434934078709456,638.748156414118,0.4215686274509804,0.43564356435643564,0.6818181818181818,0.03125,50.883392226148416,50.84712941226424,50.918488851051954,51.48514851485149,0.5310975010644221,0.4689024989355779,9.004443347592343,8.46079192510961,0.48792858812321416,0.5120714118767857,31.026002997071927,31.784322827923265,0.49102918415184593,0.508970815848154,22.843958303830753,23.257559820729732,1.5066805737364068,0.4985160561620443,1.5436562362894042,1.5357954909593152,0.4187750408806732,0.05241682673897152,-0.5157682891712796,1.3053479539104118e-05,0.007827283505849054,0.6749615523420922,1.4759065198095775,6.047185758532111,0.996446632282441,0.9763221924139099,0.802626893799421,0.9607575334852987,1.8761723775259425,1.5043459192478674,2.7730086513986794,0.8504071514277396,Relax
103.6053665040976,579.2058823529412,33.09283019930274,,,,,,,17.8672220493947,17.954612744692692,0.05713483099458148,0.030847791077002987,577.0,36.323699999999995,0.0629526863084922,47.0,1.8521530715752113,549.2,607.8,0.0,24.509803921568626,518.0,666.0,8.5,117.1875,,,0.04710019246249094,0.008930894622343482,0.0015403929518042565,0.05757148003663868,5.273849312324745,0.8181167555969765,0.1551270632031664,-4.718238707438176,12.695828425350612,45.207373664739315,0.2808353460102253,1803.1015828294155,3.560805340947324,3.9629903045818766,643.8986303824206,0.4411764705882353,0.45544554455445546,0.717391304347826,0.030303030303030304,50.85091899251191,50.83159298644847,50.86816330593679,52.475247524752476,0.5454517259560215,0.4545482740439786,9.377366368016128,8.560373823613078,0.48560139773291183,0.5143986022670882,31.502806190289693,32.42344577308852,0.48997741296954284,0.5100225870304569,23.241792076590766,23.712442259290917,1.466931185748289,0.26640867062324824,1.4585641800890916,1.385074539877704,1.0,0.5892760014684697,-0.7758530345107112,8.495669420224712e-05,0.006131927994794073,0.6953439178325285,1.6094379124341003,6.069388332125153,1.0041218541373993,0.772760613339579,0.8360097419555517,0.969530363438116,1.9079372573942404,1.4976160031978796,2.6141554743922417,0.8504071514277396,Relax
103.90051590421116,577.6176470588235,34.11049143726928,,,,,,,20.42736467885107,20.529225726044594,0.05905375573436303,0.0353648555975832,574.5,37.065,0.06451697127937336,52.25,1.6698429764944018,546.2,607.8,3.9215686274509802,26.47058823529412,518.0,666.0,8.5,117.1875,,,0.04301550410145087,0.00891365898737055,0.001528165090782528,0.05345732817960395,4.825796472851163,0.80466992209055,0.1667434436196057,-4.720170461037589,14.516354723395454,46.25199808367929,0.3138535701124178,2109.2980142653378,3.1861992190874693,4.031108053763628,589.4723207018163,0.45098039215686275,0.4653465346534653,0.7021276595744681,0.1,50.09345794392524,50.09211155215914,50.094316454220014,52.475247524752476,0.517214378929885,0.48278562107011525,10.439827584783188,10.086376951115797,0.47707275556449374,0.5229272444355061,31.94646485917234,33.44653509310553,0.480672305860234,0.5193276941397659,23.76517007090769,24.702284405843315,1.4337510586645936,0.3357395451219749,1.2109052297716363,1.3787750023326237,1.0384461459329448,-0.7344123785915619,0.0,0.000505667190914786,0.021177859392432462,0.6618015472602976,1.677646162460634,6.0767891899895,1.0237986717987284,0.8673514079221722,1.525497566504562,1.8649285853429316,1.8903377559730128,1.5107383111936687,2.7331228172618163,0.8504071514277396,Relax
104.58722300277739,573.7961165048544,33.88832849669661,,,,,,,21.041508929713565,21.144500123179412,0.059059877754348504,0.03667070641377468,570.0,35.5824,0.062425263157894734,47.0,1.6105464969216885,542.8,605.2,4.854368932038835,28.155339805825243,518.0,666.0,8.583333333333334,39.0625,,,0.03845000413691523,0.007846313487008,0.002191115873157739,0.04848743349708098,4.900391018098004,0.7929890564166484,0.16182158800961,-4.847711476983015,14.951419421899951,45.730204478339594,0.32694844889621666,2148.0057550274114,3.0585861574692172,4.03900555057092,559.4790815827452,0.4854368932038835,0.5,0.7843137254901961,0.1,49.4026284348865,49.38826909275529,49.41809278419667,52.94117647058824,0.504672276350753,0.49532772364924704,10.621992876728328,10.523194560701434,0.48954841295541945,0.5104515870445805,31.996388900449585,32.67235374076893,0.4910090719659194,0.5089909280340807,23.838997832774776,24.271591652838858,1.445304740746291,0.10720178534257663,1.4701395172091596,1.45425499294549,0.8019724793393364,0.005321535913790143,-0.6481740645727926,5.3358979915733456e-05,0.0016422242134424244,0.720860814333713,1.824549292051046,6.004319337799816,1.0095129197932622,1.2179936903792938,1.5212051249139014,1.7848153925026444,1.8496285411892888,1.5436964581719002,2.649964189661091,0.7140922893108291,Relax
104.53346567348564,574.1553398058253,33.580677591160054,,,,,,,21.196327835865585,21.298520268735576,0.058487094455163945,0.036917409569044525,570.0,35.5824,0.062425263157894734,46.0,1.5842686455499775,541.4,605.2,4.854368932038835,30.097087378640776,518.0,666.0,8.583333333333334,70.3125,,,0.04467460189095275,0.007050869593634869,0.0016779291063167812,0.053403400590904405,6.336041433993119,0.8365497589410377,0.13203034854742496,-4.954604323149653,15.060328111262054,45.13164215134469,0.33369776487987446,2135.3321668647823,2.9967236980444953,4.036435552327818,540.988246266394,0.4854368932038835,0.5,0.7843137254901961,0.1,50.97115950559154,51.009485967989896,50.93195993244438,50.0,0.5113579330962097,0.4886420669037903,10.770789246387611,10.528838285564289,0.5104025086609137,0.4895974913390862,32.243155377917326,31.579171213831973,0.5104982592591647,0.48950174074083536,24.037792844962052,23.53827192251035,1.3899974093852963,0.1914990809004533,1.464454935562579,1.4541749138903988,0.5382688403773601,-0.4617311596226399,-0.5536818329562855,9.995385056901501e-05,0.004539561042311171,0.7014930554116963,1.9042374526547454,5.970243852320914,1.0318477313279673,1.0078953631743797,1.6100889682775015,2.0990918439560198,1.8778226321246725,1.5882595898818082,2.259401656305322,0.9088447318501461,Relax
104.70829562473916,573.0970873786408,32.9257973128726,,,,,,,21.05105837775216,21.154003078458885,0.05745238989692993,0.0367320980011261,570.0,29.651999999999997,0.05202105263157894,39.0,1.5640922523719887,543.4,602.0,4.854368932038835,27.184466019417474,518.0,666.0,7.357142857142857,70.3125,,,0.03364713709299532,0.007898346006081679,0.0019148641979127579,0.043460347296989756,4.260023182966057,0.7742031342516644,0.1817368359278793,-4.841101907748123,14.958139026019376,44.3069613482767,0.3376024572852177,2082.0895499466865,2.962063748117707,4.025469514392477,524.9601759959314,0.49514563106796117,0.5098039215686275,0.7884615384615384,0.09375,49.37906564163216,49.37088338279166,49.38864499095459,50.98039215686274,0.5000995553195724,0.4999004446804273,10.578560421629183,10.576454327354412,0.5137055625284083,0.4862944374715915,31.75624183186656,30.89737737468495,0.5123133562783502,0.4876866437216501,23.66817310100265,23.092307320537582,1.3458597597547886,0.40096491848538585,1.0284545664905629,1.2289370257332557,1.1577037718654912,-0.3153955871598937,0.0,6.24062723716966e-05,0.008684606599659668,0.6811082239388817,1.6506808709681497,6.062571764984282,1.045367069404474,1.1975109246852835,1.3910753304611387,1.8409019991769981,1.79588087603936,1.5818224338152604,2.7707152146624305,0.9737622126965852,Relax
105.26071266260409,570.0384615384615,33.434452052006534,,,,,,,20.318340273169724,20.389473512480016,0.05865297573390256,0.0356438058904536,561.5,31.1346,0.05544897595725735,42.25,1.6455306684747562,540.6,598.4000000000001,4.807692307692308,24.03846153846154,518.0,666.0,6.933333333333334,70.3125,,,0.020646818067976178,0.008468464030674078,0.002381014384931892,0.03149629648358215,2.4380829856736983,0.655531613970506,0.2688717397325865,-4.771406129067982,14.417534985498113,44.39493486611517,0.32475630449685433,2010.825156217594,3.0792319845777967,4.0103444197474625,546.8092135719594,0.4807692307692308,0.49514563106796117,0.7450980392156863,0.09375,46.604938271604965,46.75974849994222,46.44179822049151,50.48543689320388,0.4664173839424298,0.5335826160575701,9.860050113224279,10.546117211338688,0.4949836686750215,0.5050163313249786,31.234090063563716,31.549038965835386,0.4922514842520652,0.5077485157479349,23.160191820601398,23.521930702039466,1.3802979919843177,0.7897625509270467,1.4138318745210643,1.7500379666456358,-0.5720747231895871,-1.3955526029494925,-0.07429471462033387,0.00039377192697077266,0.046398163470207435,0.6832056169373071,1.5002386204691083,6.029531665152463,0.9795837703881152,1.135400657672667,1.244131375983557,1.684358168132969,1.7421355022220877,1.5822288525697668,2.134048407310546,0.8375549647676365,Relax
106.56960135548066,563.1333333333333,26.964031122200073,,,,,,,19.744522122506634,19.839799018471766,0.04788214358150836,0.03506189556500527,558.0,25.2042,0.045168817204301076,34.0,1.3656461754252323,539.0,585.0,4.761904761904762,23.809523809523807,518.0,635.0,6.176470588235294,70.3125,,,0.023026952592596288,0.006864588157876606,0.001882552741573122,0.03177409349204602,3.3544550762560412,0.7247084042967459,0.2160435563518126,-4.981379233131091,14.028856423339596,35.62897973787715,0.3937484745998922,1570.2743236952194,2.5396923785321346,3.9029456393518944,361.9465931806498,0.4857142857142857,0.5,0.75,0.08571428571428572,49.62453066332916,49.61583922126188,49.63372011423838,49.03846153846153,0.5113703630623521,0.48862963693764805,10.032229615990712,9.80662545999496,0.5209048244260148,0.47909517557398523,25.714765963252287,24.66120452486502,0.5196249995347304,0.4803750004652696,19.517874110834914,18.766258438083018,1.238411293413653,0.49873326835144516,1.5272325213391378,1.483019181298258,0.03587943938273774,-0.9641205606172623,-0.5886512748327903,0.0004242955084827037,0.032243440657596226,0.6958742800993702,1.5198257537444133,5.894825517501289,1.0961446930279335,1.5935728706953323,0.9987707597421688,1.2909000411278468,1.782714709905768,1.6597954988408752,2.9545451217173406,0.9591779310951603,Relax
105.66943761862883,568.3173076923077,47.57625752473334,,,,,,,48.4467478644416,48.683402430266945,0.08371425061453798,0.08524594836142332,564.5,42.2541,0.07485225863596102,57.75,0.9820320170479974,534.0,603.2,25.0,50.96153846153846,449.0,691.0,7.428571428571429,125.0,,,0.05820183000942908,0.023137168163458167,0.005443103623951791,0.08678210179683904,2.5155122527635214,0.6706662872222464,0.2666122124769847,-3.7663149431212655,34.424363989675406,58.15124909060543,0.5919797859550501,6288.90226800383,1.6892468691083506,4.505544955637001,392.92726184418024,0.5288461538461539,0.5436893203883495,0.7857142857142857,0.21739130434782608,50.23148148148149,50.27707762487814,50.18873865827369,47.57281553398058,0.46636608066184065,0.5336339193381591,23.50886357667394,25.147213621814572,0.5878308072259858,0.4121691927740142,44.58463538482011,37.3333370916703,0.5563103924992241,0.4436896075007761,35.64026079494944,31.828920900192813,1.1001896387911865,1.6109358284270865,1.3662491025971626,1.7846927402352923,-0.9449830109504518,-1.688240582641538,-0.2402481028392689,0.001154255626167336,0.19504625085889893,0.591609414666765,1.5998684614179497,6.0679932036140025,1.0514667547032315,1.0661724206167726,1.037281790689357,1.3662707802878178,1.6593986923318045,1.7458607707092333,3.181717600627925,1.159691489678266,Stress
105.15198100163458,571.0291262135922,46.420806759570695,,,,,,,45.2080159472007,45.42632667424818,0.08129323817049411,0.07916936960285759,567.0,41.5128,0.07321481481481482,53.5,1.0268268975525587,535.4,603.8000000000001,23.300970873786408,49.51456310679612,476.0,691.0,6.4375,101.5625,,,0.06197057452516064,0.03493052316412059,0.006317507954036508,0.10321860564331774,1.7741095440796215,0.6003818220457868,0.3384130501125594,-3.354394242774253,32.121263635756236,56.98798607753537,0.5636497417552788,5750.767426087363,1.7741514382422487,4.466695914073285,404.4212698479545,0.5339805825242718,0.5490196078431373,0.8035714285714286,0.21739130434782608,51.05524518932339,50.996048775505734,51.11661468106268,49.01960784313725,0.5007915035689616,0.49920849643103826,22.73360577830029,22.69764675724846,0.5919922298599636,0.4080077701400363,43.847144209200394,36.40135302253129,0.56999987601658,0.43000012398341997,34.92412409055941,30.333493618340263,1.1786018938556295,0.4225947872284588,1.0567332424284999,1.2408249894748327,1.0216778282975605,0.32084179089911724,-0.06437761986209463,0.0011141816859785612,0.04478690215159646,0.5672891598072041,1.345136288626383,6.074660235837063,1.045344873496972,0.8933718263780422,1.0353409287266244,1.3551505355525708,1.7142584057130754,1.7011926763855933,3.6801190011235185,0.8439272510037072,Stress
104.42476646797631,574.757281553398,46.79753345675002,,,,,,,44.77843055687922,44.999550246895026,0.08142138422373738,0.07790841802970541,571.0,40.0302,0.07010542907180385,54.0,1.0450909706919285,536.8,613.0,22.330097087378643,54.36893203883495,476.0,691.0,6.4375,101.5625,,,0.05551192576000262,0.037867764743622696,0.007443215033607671,0.100822905537233,1.4659414448102954,0.5505884348820176,0.37558692185912523,-3.2736550632724817,31.81948712992425,57.28926972095352,0.5554179218012669,5726.85693939175,1.8004460438671408,4.464886444252217,412.58495610051335,0.5533980582524272,0.5686274509803921,0.8275862068965517,0.25,50.04574565416286,50.07452336667485,50.020078748738875,48.03921568627451,0.47530082485417147,0.5246991751458284,21.93701605203695,23.048807447511795,0.6161992961867793,0.3838007038132206,44.97113878951893,35.49164832934628,0.5829810955285927,0.41701890447140744,35.38104010125692,29.924109225559782,1.1899187377712275,1.5480240845239368,1.2693476704085178,1.9451071409402911,-1.04774084602092,-2.010093567835111,-0.06346966608107428,0.001883541912595815,0.213337232566464,0.6493571665523188,1.5493339883643946,6.040584750358161,1.1289943509141913,1.1061550539327965,1.152562215957209,1.3314863812986426,1.7602031593455914,1.7338709443383833,2.544064918589779,0.9737622126965852,Stress
104.00291087857461,577.2156862745098,47.4459833459375,,,,,,,42.705762822104255,42.91742704956176,0.08219801449292792,0.07398579740224596,573.0,41.5128,0.07244816753926701,57.25,1.1109972099919905,538.4,613.8,21.568627450980394,53.92156862745098,476.0,716.0,6.375,101.5625,,,0.0545180982596269,0.02768078118841137,0.0043662896740822525,0.08656516912212053,1.9695288904075814,0.6297925460379601,0.3197681176982525,-3.587016926506217,30.34720369782408,59.37097417305383,0.5111454565217071,5660.342720010898,1.9563902745118746,4.4598128374227635,464.6111858418328,0.5294117647058824,0.5445544554455445,0.8181818181818182,0.19047619047619047,49.45547725816783,49.53852256573272,49.3706898166385,50.495049504950494,0.4575194623293993,0.5424805376706008,20.527542473467204,22.352404792326038,0.5716062595896381,0.42839374041036193,44.88721523943949,38.85936801217508,0.5479722265200896,0.45202777347991047,34.90159088030064,31.69921515042333,1.276104667726531,0.880872442038473,1.2757400766136415,1.6626559120831959,0.09275171051242381,-0.7994783361624327,-0.060758383388436886,0.0005757883147627139,0.06777696378343226,0.5969005761885926,1.4853852637641216,6.079000586942271,1.082511456545458,1.2914088130603263,1.183644457999334,1.3419762565440052,1.72753482326062,1.718078730521148,2.563955796224344,0.9812390208781611,Stress
104.64199370278814,573.6893203883495,45.58810240519065,,,,,,,42.353090958340815,42.56134928227283,0.07946479180461392,0.07382583125248103,571.0,40.0302,0.07010542907180385,52.0,1.0763819445912894,536.8,603.8000000000001,21.35922330097087,50.48543689320388,476.0,715.0,6.4375,101.5625,,,0.04792074089641141,0.020647630365572843,0.0012878134925688178,0.06985618475455307,2.3208833191973848,0.6859913845107042,0.29557340467591275,-3.8801547184321428,30.09541869394431,57.34059551826645,0.5248536123828205,5421.41260823401,1.9052931644311801,4.44108257141322,437.0025787414649,0.5242718446601942,0.5392156862745098,0.7818181818181819,0.2,49.54633830200908,49.57241037986454,49.52348520292859,50.98039215686274,0.4568881650142649,0.5431118349857351,20.34297504455448,22.179622259280173,0.593665861310833,0.40633413868916707,44.18076554343983,36.55138643588008,0.5641241755174593,0.435875824482541,34.393143776541905,30.231932570953806,1.273028611478287,0.4216483768431243,1.2233726816238981,1.3179260371984345,1.016661898639561,0.3530632910512326,-0.2757530663761688,0.0008024815106111426,0.03552634404340842,0.6746726303857655,1.504077396776274,6.0138382697546335,1.0701059022756967,1.0879145516779123,1.1294358597225649,1.4106310345483848,1.681383162465627,1.67067121151275,3.260109840408352,1.0386796935430243,Stress
104.66815296170473,573.5339805825242,44.788350974547235,,,,,,,40.39352986434784,40.59237280518778,0.0780918873003075,0.07042918332985455,573.0,38.547599999999996,0.06727329842931937,51.5,1.108800125291312,536.8,601.6,19.41747572815534,48.54368932038835,476.0,715.0,6.0588235294117645,101.5625,,,0.04760546753409231,0.027241838851319995,0.00045049375265338764,0.0752978001380657,1.7475129999084333,0.6322291945688074,0.3617879778873949,-3.603001294424157,28.703142075000677,56.78798480668417,0.5054439274911936,5120.7759067781035,1.9784588272008137,4.416305880801232,449.41075927892,0.4854368932038835,0.5,0.7450980392156863,0.13636363636363635,50.39209001022843,50.42105774288274,50.361381599533914,50.98039215686274,0.4714259104592405,0.5285740895407597,19.708017165459832,20.868399531586054,0.5896270344920356,0.41037296550796454,43.60588964388319,36.37858720139738,0.5655739498000476,0.43442605019995245,33.83695873027435,29.655452329880035,1.3379889121847477,0.788589694904485,1.5179038064534351,1.6628736481961073,0.22513309419868577,-0.6360466829195484,-0.31616569087904317,0.0004106957111738849,0.05221663189891212,0.6615406039488638,1.7147984280919266,6.021167274630007,1.096741347712982,1.3703433660272704,1.1324183340373348,1.5130966595798063,1.7329746128870749,1.6795328394412823,2.7246792167546525,0.9737622126965852,Stress
104.41707323737279,574.6504854368932,43.00494926780808,,,,,,,32.9202839908652,33.08050691685575,0.07483670571532265,0.057287490092062986,574.0,40.0302,0.0697390243902439,52.0,1.3063359137406347,538.8,603.2,14.563106796116504,47.57281553398058,476.0,715.0,6.4375,101.5625,,,0.053167240359313334,0.029706753409127856,0.00034259632945922436,0.08321659009790042,1.7897358094667082,0.6389019340586363,0.3569811425123194,-3.5163808715093827,23.391450765997188,56.332581477983034,0.4152383958320724,4139.679172273432,2.408255137379956,4.323936794292744,542.6529149849104,0.4563106796116505,0.47058823529411764,0.7291666666666666,0.08,49.21135646687697,49.19052179786359,49.23760445584636,51.9607843137255,0.4921025492572958,0.5078974507427041,16.4102720788831,16.671550439578375,0.5828152343630834,0.41718476563691687,43.00560891604516,36.3851252263033,0.5694729160623686,0.4305270839376315,32.54826744961084,28.300335084528406,1.3863512419692536,1.309790650531708,1.572968990349775,1.7545442824182915,-0.27730825175044416,-0.472105148095217,-0.36137075265058105,0.0005747181076040958,0.10221519068810378,0.660532101556532,1.6283063967384825,6.035825284380753,1.0815091772613008,1.2026293380577844,1.1044684852125937,1.4904591856415068,1.7625071814922921,1.6414465302063916,2.6872137550612254,1.0386796935430243,Stress
105.01987704009287,571.5384615384615,43.37999249730765,,,,,,,32.875906720856335,33.036634045175326,0.0759003906413189,0.05752177488171364,569.5,38.547599999999996,0.06768674275680421,51.5,1.3195071048728693,535.6,599.8,14.423076923076922,46.15384615384615,476.0,715.0,7.428571428571429,101.5625,,,0.053421315621163534,0.024528924324392472,0.000556156795264267,0.07850639674082027,2.1778906777432305,0.6804708640179703,0.3124449133154316,-3.707902273104449,23.360427960921832,57.04568406493115,0.40950386245403375,4186.5227909097575,2.4419794089542894,4.328823569757723,557.2175434250948,0.4519230769230769,0.4660194174757281,0.7291666666666666,0.125,50.09761811792268,50.10564873868714,50.09087984792882,51.45631067961165,0.49066247473613295,0.509337525263867,16.36336774388355,16.67186193537353,0.5926619838793286,0.4073380161206716,43.91635909663567,36.408288536146365,0.5780137229650061,0.4219862770349939,33.139149055356135,28.315317890882344,1.374383272363166,1.1587436217280587,1.5593140869622664,1.5529402318193588,0.21508278452080454,0.2867247589972104,-0.5055006603906066,0.00022078273058116714,0.07038474199008782,0.7003940842231131,1.6880810397532136,6.075251737288651,1.0906191970976933,1.180663122440019,1.4375138727250634,1.6148836437173986,1.7622049350251097,1.6249806890847067,2.569345701223946,0.9019822697497624,Stress
104.28443914348362,575.6213592233009,44.803736824382376,,,,,,,36.14621722404494,36.32298649202012,0.07783543141074035,0.06279512850742346,574.0,40.0302,0.0697390243902439,53.0,1.2395138486186694,538.8,612.2,18.446601941747574,52.42718446601942,476.0,715.0,7.923076923076923,101.5625,,,0.05261274704506508,0.029473286661807815,0.0008487667484701453,0.08293480045534304,1.7850994240571727,0.6343868527590522,0.35537900254161653,-3.524270962770442,25.684230061454787,58.19008008506894,0.4413850268620808,4695.321977327569,2.2655956571731855,4.378635488924324,527.3407709251682,0.46601941747572817,0.48039215686274506,0.7551020408163265,0.12,50.634696755994355,50.64955104873516,50.61804881178104,50.98039215686274,0.5036317795719903,0.4963682204280097,18.228201412445312,18.09627717307492,0.5869907206273904,0.4130092793726096,44.58251586633207,37.39631932871182,0.5733975964428841,0.42660240355711593,34.05780415488075,29.376520784971607,1.374249334036794,0.26332063922885074,1.4327080607360945,1.341210910824954,1.0078427766820302,0.40363737741558237,-0.8474742814657255,9.190478241451887e-05,0.006833162586696265,0.6273705129307157,1.6739764335716716,6.213152104832117,1.1409850916922757,1.2566479852517507,1.0691665297540138,1.5809596000317765,1.770777455892789,1.651356705047091,2.5711621539700746,0.8439272510037072,Stress
103.77655776405611,578.3529411764706,42.147935377790056,,,,,,,34.048305812666676,34.20976642439819,0.0728758036434531,0.05887115529041227,574.0,38.547599999999996,0.0671560975609756,51.5,1.2378864196558688,545.0,613.0,15.686274509803921,48.03921568627451,491.0,715.0,7.846153846153846,85.9375,,,0.05548589692771165,0.027064466927440925,0.0010494372118813066,0.08359980106703388,2.050138178463584,0.6637084803972284,0.32373841303449374,-3.609533594938954,24.189957821499828,54.45636276455262,0.4442081070689106,4138.410949719043,2.2511970945295436,4.323803724453351,490.3680225368307,0.45098039215686275,0.4653465346534653,0.723404255319149,0.12,48.53508095605244,48.5879903269585,48.48786511580079,53.46534653465347,0.4932443973763323,0.5067556026236676,16.993086829649286,17.22425615229871,0.5597497176081908,0.44025028239180924,40.74230280938892,36.132536685549965,0.5487850365336892,0.4512149634663107,31.214581834552423,28.304020980530435,1.393098966941273,0.24808187412557348,1.4384013990415172,1.3652176290477835,1.0125109826864807,0.36067573583703827,-0.7949984566655192,0.00011715761812949338,0.007058713318753731,0.6821460200552196,1.5910887737659034,6.0938023026709685,1.1057937268350286,1.3809583939294634,1.0585478399543016,1.3647780048781968,1.7979855320740323,1.6250182412219087,2.655770592277867,0.9812390208781611,Stress
104.22058941182414,576.0873786407767,40.52452822870548,,,,,,,31.420300668797665,31.558188144802006,0.07034441255130297,0.05454085931014644,573.0,37.065,0.06468586387434555,48.0,1.2897562202181243,545.4,603.6,12.62135922330097,44.66019417475729,474.0,715.0,6.866666666666666,101.5625,,,0.05633894354765459,0.02010840530695448,0.0018358471215218,0.07828319597613087,2.801760889918496,0.7196811888573476,0.25686745483776213,-3.906617376852338,22.31500883915041,52.10262523703534,0.42828952932084813,3652.637235514778,2.334869128334122,4.269576652023876,486.6112446844645,0.44660194174757284,0.4607843137254902,0.723404255319149,0.07407407407407407,52.15798045602607,52.36416247919162,51.96630250885141,51.9607843137255,0.5531490198415063,0.4468509801584937,16.605647375289987,14.925060326262479,0.5578122485956094,0.4421877514043907,38.91379882416423,34.64678654166108,0.5570887794888063,0.4429112205111936,29.91681185955483,26.675431049994312,1.3661058443441785,1.1520371723361662,1.5366824303128295,1.8077109396599085,-0.5384721577773846,-1.2581650242876368,-0.26473978804219306,0.00026776315732353616,0.08032128987984265,0.6817513474351515,1.4094614204014249,6.1182546532707835,1.09651047124471,1.265359884222576,1.0889699579729237,1.147532864592363,1.7707783349943822,1.6278872809145775,2.0078194274276466,0.8439272510037072,Stress
102.46777871080317,585.38,41.445054291827454,,,,,,,28.922571661509483,29.06974531646912,0.07080025674233396,0.04940819922359747,577.5,36.323699999999995,0.06289818181818181,54.0,1.4329657395916506,552.0,617.0,9.0,41.0,496.0,715.0,7.6923076923076925,78.125,,,0.055003134355752374,0.027694347396539063,0.0009363070259592423,0.08363378877825069,1.9860780096456097,0.6576664187914463,0.33113826123516593,-3.586526951719854,20.555414040641196,54.41002892082976,0.3777872287212106,3513.6221681319266,2.6469926031775772,4.252725168453545,576.0917763684577,0.46,0.4747474747474748,0.723404255319149,0.07407407407407407,50.069028992176726,50.05182454989501,50.086346422633824,54.54545454545454,0.5602125218861319,0.4397874781138683,15.385190334625474,13.631633378705157,0.49570011772734907,0.504299882272651,38.307910824606864,38.638778648134064,0.5037575589800273,0.49624244101997267,29.190752931182548,28.972199122528906,1.3648265969813487,1.2476180159512387,1.6046856602025041,1.6338507854490136,-0.13130680896827585,-0.34615633990242234,-0.4766233535636525,0.00022298330870421142,0.08368731706097159,0.6734528718985611,1.4022947024663317,6.10611181466655,1.0312504394123496,1.4238802623691602,1.0977088658850027,1.2664175570472778,1.7460924471785892,1.5724832588487854,2.366552270390512,0.7972627427729669,Stress
103.00794493663003,582.7821782178218,40.413761012901546,,,,,,,28.53559181092973,28.67889802484035,0.06934625409529326,0.04896442080331464,576.0,35.5824,0.061775,49.0,1.4162580289441282,549.0,615.0,7.920792079207921,39.603960396039604,496.0,715.0,8.416666666666666,78.125,,,0.058048707492030796,0.028771496919922188,0.0018504339360647976,0.08867063834801778,2.017576897496642,0.6546553467247985,0.3244760323817537,-3.5483700721875118,20.279043270322095,53.56207764469336,0.37860822735152494,3412.359267967972,2.6412526927776816,4.240024859269138,565.8839272392544,0.46534653465346537,0.4747474747474748,0.723404255319149,0.1111111111111111,50.36866359447004,50.38028580911035,50.3564265937516,55.55555555555556,0.5665741513975538,0.4334258486024463,15.264502956370722,13.350935351033451,0.4863856045432179,0.5136143954567822,37.354916596606046,38.38627837752401,0.4964393385468607,0.5035606614531394,28.53414484827296,28.738074417262563,1.4164344871275822,1.2156023604592257,1.6344575921221998,1.5189191083246563,0.16738158336828768,0.3937783841627658,-0.5950462812147681,0.00016745209970768038,0.07319625222776203,0.7041718894202491,1.4832866271072,6.101135616350901,1.042316051305335,1.1910411845405244,1.2178861308058178,1.3898006254598876,1.811420676821588,1.5481964359190408,2.2371635226667177,0.8569975175819141,Stress
103.85189589437195,578.0588235294117,41.74126422613806,,,,,,,29.260015633138085,29.405209345176633,0.07220937130806421,0.05061771301143253,574.0,39.2889,0.06844756097560975,52.25,1.4265632920190405,543.0,611.8000000000001,8.823529411764707,37.254901960784316,496.0,715.0,9.272727272727273,78.125,,,0.04497948214009034,0.014540770926417538,0.0021815671940443072,0.06170182026055218,3.0933354474604946,0.7289814457685793,0.23566194425083903,-4.230798787208223,20.792622930184436,55.38452530774599,0.375422969045045,3617.8252730306244,2.663662275496029,4.265417698248152,590.1026828339924,0.43137254901960786,0.44554455445544555,0.6888888888888889,0.034482758620689655,49.52424105120073,49.528862168071534,49.52102492141217,57.42574257425742,0.5838142267349749,0.41618577326502526,15.88757376064703,13.414171610651175,0.474962178924996,0.525037821075004,38.169630160656695,40.13134656304275,0.48840943833316397,0.5115905616668359,29.234702551944267,29.920435967437395,1.4412022897283105,1.108237137096098,1.5067735385946532,1.5871339788789736,-0.34045952962722836,-0.1769353312299975,-0.4274880460197463,0.0001629135387191463,0.04513867432382144,0.6470074371131918,1.402823663071101,6.093802302670968,0.9825756207003414,1.3093972865091725,1.319369849521239,1.6941372569070896,1.825504536467008,1.573472279150217,2.6835962976237515,0.8504071514277396,Stress
104.04464480153791,576.8349514563107,41.026317972969366,,,,,,,29.516363025862617,29.660448175698633,0.07112314860497264,0.05116951209586713,571.0,37.065,0.0649124343257443,49.5,1.3899516663696532,543.8,603.6,8.737864077669903,39.80582524271845,496.0,715.0,10.3,132.8125,,,0.03703714786622336,0.008459999448773646,0.0018780136429050903,0.0473751609579021,4.377913744615224,0.7817841062141158,0.17857457954161382,-4.772406170520787,20.973104038068662,53.738000200061805,0.3902844162415359,3540.740385119222,2.562233997529454,4.25606419445965,550.757324287372,0.46601941747572817,0.48039215686274506,0.7346938775510204,0.06666666666666667,50.70733863837313,50.77463449449293,50.64531699199528,53.92156862745098,0.5831945444724526,0.41680545552754766,16.017471896045084,13.541099886590226,0.5166861151851384,0.4833138848148615,38.627348343835095,37.35907688133988,0.5254785238805256,0.4745214761194742,29.568830261075377,28.09859437378032,1.1858042696335285,1.9056365998198967,1.4201319694481187,1.3814605909066164,-0.6758828784967257,0.36439995221128596,-0.5202931548151191,0.00010438917250058247,0.14537595865337277,0.7183852272752032,1.6602963296675914,6.09407771156522,0.9979480552484391,0.8072280618953591,1.1960532980756142,1.5760098438207055,1.9284435655284016,1.6190230343625547,2.0486650284934806,0.9088447318501461,Stress
105.18737244398133,570.5288461538462,36.49736171626582,,,,,,,26.340378394787393,26.457959210013318,0.06397110674124286,0.046168355153920766,565.5,34.8411,0.06161114058355437,46.25,1.3856050649404656,540.0,599.4,5.769230769230769,33.65384615384615,496.0,673.0,9.454545454545455,132.8125,,,0.032597540820446184,0.009137152892770426,0.001961941663727685,0.0436966353769443,3.567581849947841,0.7459965862187563,0.20910426658596856,-4.695406441739077,18.708602373757486,48.04801797390037,0.3893730306194936,2824.013020449599,2.5682312881531555,4.157836804712796,493.5936923772645,0.47115384615384615,0.4854368932038835,0.76,0.0625,48.06845965770172,48.03330960220335,48.10781240205703,54.36893203883495,0.5446314876229659,0.45536851237703424,13.812646947137775,12.630107198402444,0.505528670955701,0.4944713290442992,34.162399972705614,33.78672016229362,0.5106804082399931,0.4893195917600069,26.056273597556032,25.505509867166698,1.329725977083415,0.8604093047088242,1.4280227899427445,1.6465650945315415,-0.33121459507852613,-1.0513441556539336,-0.24600192792806302,8.755128003696244e-05,0.038252978392226994,0.6759348200775039,1.3625778345025745,5.983811593016276,1.032335334011277,1.0978298903026422,1.2849785411467172,1.4706151922550579,1.8344525442286255,1.6031749762393048,2.7364405923277038,0.8375549647676365,Stress
105.37998896918896,569.4174757281553,36.89001253643228,,,,,,,26.0435156206368,26.170344192656398,0.06478552926261764,0.045737120356787564,565.0,37.065,0.06560176991150442,47.5,1.4164759118465846,539.4,597.4000000000001,5.825242718446602,33.00970873786408,496.0,673.0,9.363636363636363,31.25,,,0.04666355869686207,0.011954186672936285,0.0024848162790104935,0.061102561648808854,3.903532709800004,0.763692346731125,0.1956413340187567,-4.426673712762878,18.505227844613323,48.9996221246211,0.377660623536011,2848.636536511833,2.6478799686265075,4.161607150195626,518.9804715762097,0.47572815533980584,0.4851485148514852,0.7755102040816326,0.06451612903225806,50.78720162519045,50.787065718491,50.784800852032106,50.495049504950494,0.5615541390225923,0.43844586097740773,13.868191398782587,12.254116301742597,0.5265557429647109,0.47344425703528925,35.556164579904724,33.71531000483886,0.5309249097908675,0.4690750902091324,26.986733521366926,25.36617329298037,1.2716291931487402,2.5728248015651154,1.5488552525449886,2.018511756839761,-1.4355704289568134,-1.0021189150109215,-0.3174549219173151,0.0036472436629955613,0.4399023850990637,0.6529187287150511,1.3068301897656436,5.967674313422948,1.003994813446962,1.094054260298904,1.1153747390813378,1.376910284055045,1.7549636021944084,1.5906880369405527,2.486580217394611,0.9737622126965852,Stress
