PPG_Rate_Mean,HRV_MeanNN,HRV_SDNN,HRV_SDANN1,HRV_SDNNI1,HRV_SDANN2,HRV_SDNNI2,HRV_SDANN5,HRV_SDNNI5,HRV_RMSSD,HRV_SDSD,HRV_CVNN,HRV_CVSD,HRV_MedianNN,HRV_MadNN,HRV_MCVNN,HRV_IQRNN,HRV_SDRMSSD,HRV_Prc20NN,HRV_Prc80NN,HRV_pNN50,HRV_pNN20,HRV_MinNN,HRV_MaxNN,HRV_HTI,HRV_TINN,HRV_ULF,HRV_VLF,HRV_LF,HRV_HF,HRV_VHF,HRV_TP,HRV_LFHF,HRV_LFn,HRV_HFn,HRV_LnHF,HRV_SD1,HRV_SD2,HRV_SD1SD2,HRV_S,HRV_CSI,HRV_CVI,HRV_CSI_Modified,HRV_PIP,HRV_IALS,HRV_PSS,HRV_PAS,HRV_GI,HRV_SI,HRV_AI,HRV_PI,HRV_C1d,HRV_C1a,HRV_SD1d,HRV_SD1a,HRV_C2d,HRV_C2a,HRV_SD2d,HRV_SD2a,HRV_Cd,HRV_Ca,HRV_SDNNd,HRV_SDNNa,HRV_DFA_alpha1,HRV_MFDFA_alpha1_Width,HRV_MFDFA_alpha1_Peak,HRV_MFDFA_alpha1_Mean,HRV_MFDFA_alpha1_Max,HRV_MFDFA_alpha1_Delta,HRV_MFDFA_alpha1_Asymmetry,HRV_MFDFA_alpha1_Fluctuation,HRV_MFDFA_alpha1_Increment,HRV_ApEn,HRV_SampEn,HRV_ShanEn,HRV_FuzzyEn,HRV_MSEn,HRV_CMSEn,HRV_RCMSEn,HRV_CD,HRV_HFD,HRV_KFD,HRV_LZC,Labels,HRV_DFA_alpha2,HRV_MFDFA_alpha2_Width,HRV_MFDFA_alpha2_Peak,HRV_MFDFA_alpha2_Mean,HRV_MFDFA_alpha2_Max,HRV_MFDFA_alpha2_Delta,HRV_MFDFA_alpha2_Asymmetry,HRV_MFDFA_alpha2_Fluctuation,HRV_MFDFA_alpha2_Increment
92.34029726546412,651.054945054945,48.63317629340938,,,,,,,65.09130339590519,65.42471347727111,0.07469903525470502,0.09997820290023583,657.0,28.1694,0.04287579908675799,36.5,0.7471532102776856,621.0,672.0,28.57142857142857,52.74725274725275,508.0,786.0,5.6875,171.875,,,0.037657192595767636,0.06334589999729587,0.02718508655725753,0.12818817915032105,0.5944692963139707,0.29376493874375564,0.4941633496721466,-2.7591450941626707,46.262258556965314,48.93334468664718,0.9454137838566603,7111.8339147144425,1.0577379101885571,4.558951715802847,207.0346149895621,0.6593406593406593,0.6704545454545454,0.8813559322033898,0.29411764705882354,52.32110797640422,52.54214758972255,52.1214720328185,48.86363636363637,0.5469069204524296,0.4530930795475705,34.228741454704895,31.155012942713956,0.4983700740311661,0.5016299259688339,34.54465658614165,34.657451198375256,0.5212892298166409,0.47871077018335917,34.38706181274792,32.95279771907415,0.6841672139888648,1.6574540602382841,1.048997482958736,1.1469364613889366,-0.40783183151867064,-0.5662058802870198,-0.44090998913350254,0.0008734576029539036,0.1779214875695424,0.6184516804286146,1.2078115806331013,5.732747112583522,0.9490667661564784,0.8968931143603059,0.8954116044045531,1.0665597115951713,1.5950972116590367,1.9408057888807089,2.4206119643002753,1.215741855861295,Relax,,,,,,,,,
92.5887972855712,649.1978021978022,47.42344000368026,,,,,,,66.4082491529144,66.76918054508137,0.07304929228523628,0.10229278184259881,656.0,28.1694,0.042941158536585367,43.0,0.7141197156769046,616.0,672.0,29.67032967032967,49.45054945054945,526.0,786.0,5.6875,156.25,,,0.04429059624989127,0.06041437016184298,0.029070396797674036,0.13377536320940828,0.7331135974974494,0.3310818613182159,0.4516105859288304,-2.8065282857522265,47.21294033769594,47.37449349816039,0.9965898704442988,7026.766155059842,1.0034217983313245,4.553725610779928,190.14639784383897,0.7032967032967034,0.7159090909090909,0.9047619047619048,0.375,51.38782785841608,51.35197848979911,51.41897837036825,50.0,0.533568486161676,0.46643151383832404,34.49279358052583,32.24981491106193,0.4551662831295969,0.5448337168704033,31.961681665416137,34.96846492664273,0.4942399960578057,0.5057600039421942,33.251330077683825,33.636617703951714,0.57105427558553,1.276427318118456,0.9117307900243847,0.9171773927182736,-0.006630460850210795,-0.3555886082985711,-0.4957329315844497,0.0010406787494850577,0.12029741347722094,0.6601563245980757,1.2305398317106575,5.837250134609095,0.9679868461107893,0.9485699042934305,1.013075406818613,1.0945053403888627,1.5736797987271651,1.9590706424956363,3.2667201343784216,1.1442276290459246,Relax,,,,,,,,,
92.19870847746368,650.8901098901099,45.05489258164251,,,,,,,62.97265720577111,63.323176792554584,0.06922042891272254,0.09674852367383922,657.0,23.7216,0.036105936073059355,33.5,0.7154675470406142,627.0,670.0,24.175824175824175,45.05494505494506,526.0,786.0,5.055555555555555,156.25,,,0.03913845597602038,0.044316219099763667,0.015148107952411347,0.0986027830281954,0.8831632474763421,0.39693054064030586,0.4494418690706881,-3.1164045493029944,44.77624771628996,43.6803135035143,1.0250898888966877,6144.454265015407,0.9755242060540739,4.495453425952794,170.4448126028353,0.6813186813186813,0.6896551724137931,0.9,0.3333333333333333,49.32470455824422,49.224806081518956,49.41607139733675,50.57471264367817,0.500680862986831,0.49931913701316905,31.684274623651497,31.641158660016146,0.4376508247719145,0.5623491752280857,28.89679136609072,32.75584278430213,0.46994776547269984,0.5300522345273003,30.322580774748886,32.20332403540225,0.5828153033761874,1.9796463206897938,1.0673794557095169,1.108003684262516,-0.3675043024640612,-0.3051803383810838,-0.47947904727807955,0.0018102962949913086,0.28466014925271005,0.6867098946000842,1.1067094989007293,5.706763288664838,0.9634048502725965,1.1389631602719859,1.0666136572335019,1.080389796771345,1.5183514964137053,1.9481110594446271,2.7737256608908307,1.0727134022305544,Relax,,,,,,,,,
92.16639222148522,651.3111111111111,32.315037875714516,,,,,,,42.78900415298882,43.02573344533109,0.049615364031770214,0.06569672069618536,657.5,20.0151,0.030441216730038023,30.75,0.755218274306515,633.4,669.2,14.444444444444443,38.88888888888889,526.0,768.0,5.0,156.25,,,0.053065540752951265,0.03480575225122144,0.009852715460399054,0.09772400846457176,1.5246198493264582,0.5430143685948915,0.3561637799972122,-3.357972611286023,30.42378788471845,34.125539952026614,0.8915254653109649,3261.690051161259,1.1216729514856865,4.220412798896002,153.1107804761296,0.6888888888888889,0.6976744186046512,0.9,0.4,48.74899112187248,48.74508455962433,48.762071241418006,52.32558139534884,0.5458606934642528,0.4541393065357471,22.480799888713115,20.505265399182452,0.4057420817808856,0.5942579182191144,21.737247902347537,26.30673926295793,0.4678014198560996,0.5321985801439004,22.112149488510564,23.58506349090629,0.8188997096820952,1.507847436733377,1.1212494027668722,1.20910886384451,-0.3587912568356959,-0.4824623528739309,-0.4417318629608989,0.0004966807851306308,0.13268405445179343,0.6653026339430737,1.3710268889891022,5.642923896397363,1.1962432881746183,1.1315600081288024,1.4192839984830279,1.713128563860084,1.6324795703317958,1.918587514293818,2.595074841672922,1.1541072171252755,Relax,,,,,,,,,
92.7846292095097,647.7912087912088,39.43870532118768,,,,,,,57.86824114601491,58.16357750186307,0.060881816217884605,0.0893316246974055,655.0,22.238999999999997,0.03395267175572519,32.5,0.6815259033305461,627.0,669.0,20.87912087912088,43.956043956043956,526.0,768.0,5.352941176470588,156.25,,,0.04573692502754649,0.02762590292135208,0.012693340322824724,0.08605616827172329,1.6555811825501057,0.5314775912765678,0.3210217637639058,-3.589001434742539,41.12786006963668,36.07604328188451,1.1400324516821092,4661.276712928744,0.8771680126513132,4.375474995200944,126.57900475957356,0.7032967032967034,0.7126436781609194,0.9193548387096774,0.4117647058823529,52.492401215805465,52.425662089164874,52.564844371490224,49.42528735632184,0.595916864087914,0.40408313591208617,31.764671917437962,26.156937765312417,0.40834330468834984,0.5916566953116502,23.053221276775073,27.749412383696512,0.5143973093685841,0.48560269063141587,27.752886275650923,26.96493353319155,0.7360461774845148,2.185644071876733,1.1594948382654215,1.671925599049724,-1.0666008053656064,-1.7527155766192921,-0.2655470223272461,0.0032401798728453183,0.42515314004982807,0.699008298671778,1.4434527749598394,5.698467821608096,1.0959198956819338,1.3609504285412426,1.449455470557301,1.7088190352997514,1.6368518799273326,1.949941582003261,2.6247556281798623,1.0727134022305544,Relax,,,,,,,,,
93.12838227611832,644.8461538461538,35.32670474833548,,,,,,,47.62224036915712,47.888740437332004,0.05478315182254101,0.0738505457233738,652.0,23.7216,0.03638282208588957,32.5,0.7418110629506434,624.0,668.0,19.78021978021978,42.857142857142854,526.0,768.0,6.066666666666666,156.25,,,0.0437469547246464,0.03168732527552186,0.011700192464737424,0.08713447246490569,1.3805821205881486,0.5020625418058959,0.3636600346468415,-3.451838511633413,33.86245310571989,36.937678221695094,0.9167455762238733,3929.5053371170334,1.0908151900978418,4.3013079929372875,161.16872196468498,0.6703296703296703,0.6781609195402298,0.8983050847457628,0.3888888888888889,50.26399155227034,50.23717215728225,50.29319124505418,50.57471264367817,0.5457084205008109,0.4542915794991892,25.01505164873269,22.823824532539124,0.4334318405628351,0.566568159437165,24.318120141034452,27.803257097248565,0.4847028878532589,0.5152971121467409,24.669047166262317,25.435684298912008,0.8128278590006666,2.1941567823103267,1.2200428225616156,1.6392899014054956,-0.9950218311073833,-1.4022951695570387,-0.30892565097265484,0.002573324005267636,0.3842243193255058,0.7026127866757013,1.4013322384844313,5.780992821655644,1.188082891857917,1.2444772689704657,1.3648239695323674,1.546679700016397,1.7167583977966818,1.9288993992553811,3.1124653257397465,1.1442276290459246,Relax,,,,,,,,,
93.47492977112941,642.3913043478261,36.29366079172224,,,,,,,47.93287430939688,48.19619802716293,0.05649774607171651,0.07461631872190377,649.5,27.428099999999997,0.04222956120092378,42.5,0.7571768084979443,615.2,667.8,20.652173913043477,42.391304347826086,526.0,768.0,7.076923076923077,156.25,,,0.04878065369851609,0.03974612811320169,0.012460872404478568,0.10098765421619635,1.227305803462994,0.48303581340829554,0.39357412964670313,-3.2252428485832545,34.07985845241661,38.61458694310124,0.8825643662234023,4134.272023394159,1.1330618346615542,4.323369158540522,175.01085890579353,0.7391304347826086,0.75,0.9242424242424242,0.47058823529411764,49.276361130255,49.28000462256881,49.278099827552325,50.0,0.5349199820162811,0.465080017983719,24.926558794453225,23.24244202124878,0.46209698544799843,0.5379030145520015,26.249314195355574,28.320660816086704,0.4939850069822636,0.5060149930177361,25.596482464001074,25.906282444331335,0.9006322700735357,1.1253037072091328,1.223217284738067,1.2984037408484808,0.38865651968149173,-0.2821658553233881,-0.43318563190653303,0.0013181030361112695,0.130345165792733,0.6104729288553701,1.3776362983767756,5.882045108136863,1.1192437011741432,1.610692784423617,1.3716313346333529,1.754042519957122,1.720850192468676,1.9053366263479106,2.978570305343008,1.1345325140968718,Relax,,,,,,,,,
94.30551908205895,636.2043010752689,38.28200824424857,,,,,,,48.15588365334793,48.40343848470744,0.060172507761338534,0.07569248364394607,641.0,37.065,0.05782371294851794,50.0,0.7949601448459165,604.0,666.2,21.50537634408602,43.01075268817204,526.0,768.0,9.3,164.0625,,,0.04573738588856044,0.03492018271612283,0.011461593278646329,0.0921191618833296,1.3097693749306545,0.49650241006846735,0.37907620957678495,-3.3546903156039543,34.226399585282536,41.04937056978857,0.8337862215717483,4413.8502158701285,1.1993481951703717,4.351787701242159,196.9299540230228,0.7419354838709677,0.7555555555555555,0.9264705882352942,0.5,48.07627969220476,47.94913605676986,48.20232762989553,50.0,0.5243617205772756,0.47563827942272446,24.792656658289452,23.612717750408137,0.43153351588019073,0.568466484119809,26.965828498182777,30.949877505127827,0.469617399121679,0.530382600878321,25.902043652666006,27.5268537717522,0.930078947573084,1.258301958107873,1.2756848585084495,1.248610257840901,0.5176761767101912,0.26638232375146664,-0.5215167754393872,0.0013632526520631807,0.14580123733321274,0.5732477206970819,1.3093333199837622,5.912657063726415,1.1061776479203251,1.3501319952828998,1.2677075775108992,1.5000423815091617,1.661945614129622,1.8965447943307927,3.279256084840142,0.9843894984463702,Relax,,,,,,,,,
95.03297919385349,631.7765957446809,39.31432589457052,,,,,,,47.96683442026455,48.22681431992311,0.06222820876773753,0.07592372801294672,636.5,39.2889,0.06172647289866457,55.75,0.8196147686152372,602.6,663.4,20.212765957446805,45.744680851063826,526.0,768.0,9.4,164.0625,,,0.04462812067374693,0.036838662951187116,0.011878092140781633,0.09334487576571567,1.2114478946448515,0.4780993097656277,0.3946511541099235,-3.301207361652482,34.101507440642116,44.18145200491119,0.7718512156832557,4733.293496934985,1.2955864805042552,4.382133544526428,228.96356762644228,0.7553191489361702,0.7666666666666666,0.927536231884058,0.5294117647058824,49.967018469656985,49.95613699964764,49.98091185078352,51.11111111111111,0.5385417056118444,0.4614582943881557,25.0255304421913,23.165402426144407,0.4023327119761522,0.5976672880238477,28.024163429408574,34.15621415414874,0.4531845904929966,0.5468154095070036,26.567187561268547,29.182895974434132,0.7644475210606403,1.6999670229006396,1.1499049984342786,1.4141987415462922,-0.32240206956050343,-0.9233215214927206,-0.3445300764358056,0.002035173992096136,0.25774094453393287,0.5264059864364752,1.3862943611198906,6.003796963264686,1.1333880721499063,1.504784222158712,1.0955066586684703,1.1378587357416727,1.815200530399277,1.8937845796069759,3.314146770510611,0.9762153608881589,Relax,,,,,,,,,
95.61891246031958,627.9574468085107,39.443416636895996,,,,,,,47.871243079520035,48.126625094751375,0.06281224442414149,0.07623325963059706,627.5,40.771499999999996,0.06497450199203186,52.0,0.8239480343423633,598.0,663.0,20.212765957446805,44.680851063829785,526.0,768.0,10.444444444444445,187.5,,,0.04931802364699498,0.04707010958725592,0.01484992850397557,0.11123806173822648,1.0477567203359066,0.4433556543177977,0.4231475167018348,-3.0561170953955497,34.03066296012137,44.31598468232113,0.7679094395412845,4737.843227398851,1.3022368895443663,4.382550796023076,230.83964019920663,0.7340425531914894,0.7444444444444444,0.9253731343283582,0.47058823529411764,49.03462050599201,48.9950393495591,49.0798382365768,53.333333333333336,0.5374476830389822,0.462552316961018,24.95027663870335,23.146626197954337,0.3887676105640686,0.6112323894359315,27.631562328976454,34.64683624262987,0.44392555785749827,0.5560744421425016,26.325078737659428,29.463278551201974,0.861824871814992,2.377998148519912,1.3718069682752454,1.649669504187423,-0.7964316441543957,-0.8814356615993888,-0.3831527534682389,0.003030488021584533,0.4467291544910975,0.5592396035728391,1.6835458845878222,5.961243771775325,1.068299056349349,1.2595378993399036,1.1598666454302242,1.2486287377894392,1.8151767083031995,1.8651298136403667,3.329901169459878,1.0459450295230273,Relax,,,,,,,,,
96.30652796679054,623.5957446808511,39.27660912945903,,,,,,,47.44289153276018,47.699143335020295,0.06298408779161944,0.0760795626612893,621.0,35.5824,0.05729855072463768,54.5,0.8278713177154858,595.0,656.6,20.212765957446805,40.42553191489361,526.0,768.0,8.545454545454545,93.75,,,0.03562294949965131,0.03393639375244683,0.008681887107018504,0.07824123035911665,1.0496975535912054,0.4552963870346465,0.4337405431469237,-3.383267278432249,33.728387708981955,44.177905721114634,0.7634673296172485,4681.128664261023,1.309813742130044,4.377320688156237,231.45931204816574,0.7127659574468085,0.7222222222222222,0.9076923076923077,0.47058823529411764,50.45996592844975,50.47733379682076,50.44573663944115,52.22222222222223,0.5460881778270361,0.4539118221729637,24.9249961842045,22.72424485759265,0.397869611940081,0.6021303880599189,27.866056235607253,34.28075646448991,0.45245107288989916,0.5475489271101006,26.436457070763424,29.082310500762254,0.9173173587438792,1.8819699618701464,1.356839681331102,1.6020740528213941,-0.3903315247366379,-0.8753478159270185,-0.3696927281205921,0.0022533301882100014,0.30706332560657734,0.6018143999025467,1.6835458845878222,5.956028612246888,1.0383368706590843,1.2208593116717747,1.2434178101898536,1.5053098096921418,1.7757794469816617,1.8614032283838862,2.5102563310203263,1.1156746981578958,Relax,,,,,,,,,
97.1702131501911,617.9473684210526,38.59428036696206,,,,,,,43.155212204617094,43.3865445079195,0.062455610848503464,0.06983638803234178,616.0,34.099799999999995,0.055356818181818174,49.0,0.8943133029672122,586.4,655.0,15.789473684210526,36.84210526315789,526.0,715.0,7.916666666666667,93.75,,,0.030399615604066975,0.022843694367303453,0.0045916553391552786,0.05783496531052571,1.3307661674715117,0.525626935900217,0.3949806876281812,-3.779080157392492,30.67891983380184,44.80263603158448,0.6847570266216958,4318.108041301469,1.4603720168211796,4.342263614368997,261.71406376140106,0.6736842105263158,0.6813186813186813,0.9032258064516129,0.3684210526315789,50.133536818008395,50.110512303549015,50.1578417240457,52.74725274725275,0.5453808057670667,0.45461919423293323,22.656386030366566,20.68543199389835,0.3904994356026082,0.6095005643973918,27.997146665221198,34.97764963494153,0.43993996778327366,0.5600600322167264,25.467155802630334,28.73432677790554,0.8953443485221495,2.3528495606715336,1.4128676225208303,1.6588810775292246,-0.5123851119619482,-0.6158719534490813,-0.39544021040674654,0.0033547149275088527,0.4664752587855837,0.6037643945278326,1.5976034547870979,5.9934883714660705,1.0131462044569253,1.6357106094715064,1.0003539891022424,1.1816667702387353,1.7978324281933251,1.8407887735395398,2.791046255788751,1.1065019971925807,Relax,,,,,,,,,
97.09905578343209,618.21875,35.699094231469914,,,,,,,37.627397632995816,37.82683477230652,0.05774508494197226,0.06086421292300794,616.5,31.875899999999998,0.05170462287104623,43.25,0.948752676963369,595.0,653.0,12.5,35.41666666666667,533.0,715.0,7.384615384615385,85.9375,,,0.028276069533916696,0.027968935111135896,0.0035627910159358586,0.059807795660988455,1.0109812698109666,0.47278233918192486,0.4676469815017698,-3.576660845030197,26.74761137832103,43.07230047616531,0.62099333173816,3619.3696907093076,1.6103232496893334,4.265603055168657,277.4413074974958,0.65625,0.6630434782608696,0.9016393442622951,0.2727272727272727,50.23354564755839,50.20807289562724,50.25768899501363,53.2608695652174,0.5850501475803513,0.41494985241964855,20.458962557670667,17.229983761615443,0.38543317581651426,0.6145668241834856,26.740690325165936,33.76623386228685,0.4409885625177624,0.5590114374822376,23.80791536446013,26.805138403561536,1.038015713373656,1.859226660242061,1.4758997024929863,1.4942747292213936,-0.00558467507357463,0.129055802656445,-0.49011684421198276,0.0016379113053583436,0.2610689635649991,0.640500159448373,1.5040773967762742,5.993765755906954,0.9984258735021113,0.9253254935281234,1.0280553186122592,1.3651215623523172,1.860742846460406,1.791441736450502,2.934662636816422,0.9603070313551686,Relax,,,,,,,,,
97.98124557260385,612.8865979381443,37.26953522669347,,,,,,,38.11755391767245,38.31568863551894,0.06080983880553855,0.06219348578661443,611.0,40.0302,0.06551587561374796,48.0,0.9777525417079344,581.2,642.8,11.34020618556701,36.08247422680412,533.0,715.0,7.461538461538462,85.9375,,,0.04695123801917332,0.045411795982508656,0.0069110552165184535,0.09927408921820043,1.0338996069932493,0.47294554287953633,0.4574385556204436,-3.0919833842798154,27.093283260007773,44.30427029337093,0.6115275814408715,3771.0049130964494,1.6352492190847974,4.283427208193263,289.7940935974264,0.5979381443298969,0.6063829787234043,0.8771929824561403,0.22727272727272727,49.23395445134577,49.26405750696927,49.19703703365639,55.319148936170215,0.6038226880695137,0.3961773119304861,21.054190731738444,17.054093504585868,0.35377515456065417,0.6462248454393458,26.35173731738676,35.61536615821204,0.4218381425812262,0.5781618574187737,23.850503212856694,27.922181252963327,1.043425321296626,1.5445688702262874,1.4492325029282584,1.2688010293327325,0.5829510156706474,0.8705327963001555,-0.6168167228238206,0.0013038307357638127,0.18990895749877695,0.5988505112722855,1.4441139320087168,5.994192352474102,0.9492647217037312,1.2817039410695412,1.1083844228652988,1.4340402943844341,1.8399760749225154,1.7592092608003471,2.403733792343017,0.9525647401094823,Relax,,,,,,,,,
98.42961478382655,609.7628865979382,33.61850098156405,,,,,,,33.88599145172923,34.06232516452796,0.055133727749703494,0.05557240723650794,608.0,29.651999999999997,0.04876973684210526,38.0,0.9921061636769216,582.0,636.8,9.278350515463918,27.835051546391753,533.0,715.0,6.466666666666667,85.9375,,,0.04517198419210154,0.03265375829258994,0.008317090903241973,0.08614283338793347,1.3833624842611865,0.5243847040493219,0.3790652920079588,-3.421795321382183,24.085701106818906,41.169833717581774,0.5850327516997716,3115.216814116046,1.7093060125173678,4.2004583882113575,281.4873772312111,0.5979381443298969,0.6021505376344086,0.875,0.23809523809523808,49.248666989820656,49.22711227536068,49.27207746110924,52.68817204301075,0.5878094581477417,0.41219054185225834,18.46704034076301,15.464220163433973,0.3998637767383406,0.6001362232616595,26.033654968261516,31.893636000413085,0.44779123208915783,0.5522087679108421,22.569700595642114,25.063380883173,1.1533282153407134,1.8829093155154788,1.5855822823099608,1.499100869634504,-0.08947114538251633,0.30772176219373515,-0.5459296748721969,0.001014481329428317,0.22997730673473643,0.64217310527573,1.4816045409242156,5.903935780286851,0.9194449419020997,0.885188360636628,1.001980283879704,1.1773820702227473,1.7746106472469236,1.7002302918342478,2.8600988689659657,0.8845244015302336,Relax,,,,,,,,,
99.06406326605888,605.9896907216495,30.840481664175584,,,,,,,31.665076714471,31.826818590285573,0.05089274972227474,0.05225349077599372,605.0,23.7216,0.03920925619834711,31.0,0.9739588488058653,582.0,627.8,8.24742268041237,25.773195876288657,534.0,715.0,6.466666666666667,109.375,,,0.04233838967726991,0.035330938826389116,0.005131945300352562,0.08280127380401159,1.1983375218336072,0.5113253423791976,0.42669559540855023,-3.3429962448990653,22.504959248785,36.82410105976314,0.6111475528556938,2603.5160379675044,1.6362660626346703,4.122530367287247,241.01610740447927,0.6185567010309279,0.6276595744680851,0.8813559322033898,0.21052631578947367,51.33020344287949,51.40718620215073,51.26001287301114,53.191489361702125,0.6561392937656482,0.34386070623435183,18.232128957304724,13.19868414494016,0.3867282516794999,0.6132717483205002,22.89998003182066,28.837568090979236,0.4600052162475395,0.5399947837524606,20.698062853484313,22.42555012212363,1.1484878888663927,1.2988995484770776,1.522865174698736,1.1724299825189255,0.8525698739487382,1.2687597434679243,-0.7697939133096826,0.0011304781687380275,0.14652081914434995,0.6222108858841278,1.2093636529608125,5.825485878488533,0.9079500345924496,0.7703457056630606,1.0281054764396558,1.2924331104354192,1.742215151433334,1.6902243751346562,2.0706297784229677,1.020605078688731,Relax,,,,,,,,,
99.82828666980036,601.295918367347,27.844638634650988,,,,,,,28.447093232913303,28.591866769429814,0.04630771269869154,0.047309639669854284,603.5,22.9803,0.03807837613918807,34.25,0.97882192766306,579.2,621.0,6.122448979591836,25.510204081632654,525.0,680.0,6.125,109.375,,,0.0426112180575455,0.039141637560180555,0.006604904740460498,0.08835776035818654,1.0886416796443543,0.48225778793857216,0.4429903768668124,-3.2405684793564413,20.217502879446123,33.82961527147194,0.5976273367937256,2148.6933766381,1.6732835639095867,4.039144555078593,226.42615682855495,0.6224489795918368,0.6315789473684211,0.8833333333333333,0.21052631578947367,48.89012208657047,48.89302085435107,48.8900256212132,52.63157894736842,0.5993299021606197,0.4006700978393804,15.653307690921642,12.79872226695566,0.39414697316479214,0.6058530268352078,21.238613253700674,26.33180921386788,0.44815257799926506,0.551847422000735,18.65616164443984,20.702312288029617,1.119459214317295,1.262668429189719,1.442362784700561,1.077639850699334,0.8614213584835415,1.4646760734561872,-0.7888509172873494,0.0007515493430295838,0.12261078406529471,0.6179640908378476,1.4628344382422251,5.706347088924861,1.039196370396774,1.5143927496819598,1.1721536891475446,1.4932952407998683,1.7898357916600145,1.6897908975049525,2.5463761686036492,0.9449585491593154,Relax,,,,,,,,,
99.81276255554519,601.3367346938776,31.56794141705047,,,,,,,31.705962234840207,31.869050553185794,0.0524962796977982,0.05272580304108772,603.0,30.3933,0.050403482587064674,37.75,0.995646849738625,571.4,626.2,7.142857142857142,26.53061224489796,523.0,710.0,6.533333333333333,117.1875,,,0.05373584279201313,0.026354614339430343,0.006432406374838645,0.08652286350628212,2.0389538659124478,0.621059458903733,0.30459711192425837,-3.6361119020800676,22.53482175613457,38.69507664013042,0.5823692240155393,2739.426869141678,1.7171237056533009,4.144629821101509,265.77693356335686,0.5714285714285714,0.5789473684210527,0.8363636363636363,0.15,50.7928388746803,50.725448468234035,50.859888286185836,56.84210526315789,0.6731855893181282,0.3268144106818717,18.49028461111402,12.883290211225805,0.316131136799603,0.683868863200397,21.756515862131284,31.99942145924511,0.4065655534861308,0.593434446513869,20.189559275268618,24.392028824936467,1.113659334074445,1.285857747908389,1.4207536386641335,1.2677257248894034,0.3338881419001076,0.4535928669953093,-0.6190084315497958,0.0005377751045931512,0.10704064645841459,0.6130184307778119,1.264933504115623,5.821093134821153,0.9923937494316477,1.2177231168577887,1.2814394341172457,1.5451910106520155,1.761332666045655,1.6968556622397866,2.6813917640558715,1.0124555883849808,Relax,,,,,,,,,
100.10949748911672,599.5612244897959,33.49567330930862,,,,,,,37.341555304744865,37.5355329935969,0.055866977284617064,0.06228147148195103,603.0,31.1346,0.05163283582089552,42.5,0.8970079857667964,570.0,627.0,11.224489795918368,26.53061224489796,517.0,710.0,8.166666666666666,132.8125,,,0.05496774610229856,0.02776731944943491,0.0055696336870787715,0.08830469923881225,1.9795841727681498,0.6224781532140566,0.3144489442667219,-3.5838955091703055,26.541629915223762,39.48346961517229,0.6722213162600236,3292.2497345552138,1.4876053106491904,4.224462881285011,234.943276329545,0.5714285714285714,0.5789473684210527,0.8363636363636363,0.15,50.04424778761061,50.015925966303364,50.07598230242174,56.84210526315789,0.5797672561660849,0.42023274383391496,20.20945014096128,17.205710050251728,0.3462374371273595,0.6537625628726405,23.232841072078894,31.92459034305307,0.41892093558482213,0.5810790644151779,21.773685715565886,25.643867950302376,1.1332972460294222,1.164099655698212,1.6801401735206927,1.1287958134350513,0.892529164792565,1.2165772791519909,-0.9736229904259804,0.0014912185885900253,0.1363245396853425,0.5918977417004179,1.252762968495368,5.894003818777547,0.9958707983411017,1.3174667360873555,1.2293600449074755,1.5903093949285576,1.7132806605023447,1.705555680860274,2.723196849631278,0.9449585491593154,Relax,,,,,,,,,
100.43050196791648,597.989898989899,35.80459865273692,,,,,,,39.238283055491316,39.42587262113197,0.059874922157074295,0.06561696630958329,599.0,40.0302,0.06682838063439066,51.5,0.9124914717114806,565.6,628.4,13.131313131313133,34.34343434343434,516.0,710.0,9.9,46.875,,,0.04881754662846752,0.021383613418653705,0.006944841235523682,0.0771460012826449,2.2829418804345853,0.6327942578593471,0.27718369148271405,-3.845130378374132,27.878301884599455,41.89472707815988,0.6654370091154664,3669.2352313037277,1.5027718421150817,4.271545664830966,251.8328647446197,0.5353535353535354,0.5463917525773195,0.7924528301886793,0.08695652173913043,52.0299566417028,51.94692191734832,52.11310731953782,57.73195876288659,0.6425158233091427,0.35748417669085736,22.35445480177354,16.674414006921708,0.3510664522247933,0.6489335477752067,24.822986482685668,33.74888885628544,0.4405586094283011,0.559441390571699,23.62098968506751,26.61788479113371,0.9917073097973752,1.25425915055864,1.3471192011239175,1.2328631183048515,0.3592740969887487,0.17058172160357543,-0.591094478177159,0.000978031026051798,0.12537082381437722,0.5437617810135498,1.2770950691548986,5.963959620272265,1.0208299095840185,1.271667534789931,1.050305451014256,1.2556695430143308,1.840803606383591,1.7514105609481292,2.5902154889748537,0.9374847745567124,Relax,,,,,,,,,
100.3234830924903,598.6060606060606,35.24341541680073,,,,,,,41.23761409595044,41.44393727533581,0.058875807874578516,0.06888940291416243,602.0,31.1346,0.05171860465116279,44.0,0.8546424469368527,569.2,624.6,14.14141414141414,33.33333333333333,516.0,710.0,8.25,125.0,,,0.05515204857828377,0.02753815666619306,0.010696430341327312,0.09338663558580414,2.002750193007313,0.5905775299893932,0.29488327203832987,-3.592182720884954,29.30528908645988,39.529220563407456,0.7413576252901896,3639.268795139546,1.3488766634167553,4.267984243573504,213.28017256413617,0.5353535353535354,0.5463917525773195,0.8113207547169812,0.08695652173913043,51.29393588258014,51.11670057481589,51.48087006578379,57.73195876288659,0.6467810360449556,0.35321896395504426,23.571343776345895,17.41918009125419,0.3603744197947871,0.639625580205213,23.729862901637848,31.61412477074112,0.46197422527775195,0.538025774722248,23.650736148724935,25.523329720782257,0.9314503226651336,1.114237446705887,1.2895413119432837,1.026748777740319,0.8505879526288673,0.864182364600143,-0.735849670085923,0.0011714448606525072,0.12177485927438016,0.6080470296744052,1.3862943611198906,5.932189448275025,1.0514615579494713,1.176882931474241,1.0060074068828377,1.181855641436387,1.822976459332022,1.7480421664421333,3.3226789314166125,0.9374847745567124,Relax,,,,,,,,,
100.49709547541612,597.0909090909091,34.66047884930443,,,,,,,40.08002199681665,40.2835625450278,0.058048914028981234,0.06712549360002788,601.0,34.099799999999995,0.05673843594009983,49.0,0.8647819318077554,566.0,623.4,15.151515151515152,38.38383838383838,516.0,710.0,8.25,125.0,,,0.05240666715188501,0.04726994105936502,0.014197701277011516,0.11387430948826155,1.1086679182880492,0.4602150159012575,0.4151062805279862,-3.05188068107083,28.48478024594157,39.71584849808695,0.7172144451934255,3554.075025165601,1.3942831278730172,4.2576967013183875,221.5005498801742,0.5656565656565656,0.5773195876288659,0.8214285714285714,0.09090909090909091,49.177262528047876,49.090656820078856,49.26551325057433,55.670103092783506,0.5744149706532511,0.4255850293467491,21.59001773920951,18.58374747200071,0.37689979094661985,0.6231002090533801,24.38241919606658,31.350378882403955,0.44399552487694866,0.5560044751230514,23.02858258590938,25.77015644280582,0.9545858233673186,2.128194569371481,1.3420901629376938,1.3531897973193607,-0.3643848665078391,0.3166364740751595,-0.49478448326980506,0.0008530462722247243,0.26241460992712823,0.528098294429356,1.4328143767547834,6.039815933447283,1.13522788604719,1.2617235774752977,1.0587180436867503,1.2588205663387662,1.8748200091007938,1.7559331332365615,2.966335907655591,1.0044479727393347,Relax,,,,,,,,,
101.19528138578319,592.84,36.45191103607352,,,,,,,40.24570997904214,40.441100144669065,0.061486929080482956,0.0678862930622801,593.5,40.0302,0.06744768323504634,49.5,0.9057340783665083,563.0,622.2,15.0,41.0,509.0,710.0,8.333333333333334,125.0,,,0.060016445166869034,0.046235006092348485,0.009752892823069308,0.11600434408228683,1.2980736943560447,0.5173637732419469,0.39856271295799084,-3.074018060183354,28.596176150939762,42.359897975606756,0.6750766058834011,3805.5088981649483,1.4813133669347143,4.287382851721904,250.99313237302815,0.56,0.5757575757575757,0.8245614035087719,0.08695652173913043,48.43522561863173,48.280366914459606,48.58627148112685,56.56565656565656,0.56811888844542,0.4318811115545799,21.559007776948608,18.79711766875606,0.3490258959240324,0.6509741040759675,25.025555747172675,34.17722218157827,0.41763681809090375,0.5823631819090961,23.356682735155026,27.580918664015048,0.9594466881379213,1.859437296020885,1.3350947015552637,1.3368939151886683,-0.3070450187492213,0.07150221206073804,-0.49903238811157824,0.0007605632217565994,0.2044234714083621,0.5668438734177874,1.4939250253122562,6.108758439731454,1.1432973195682004,1.2193605648021213,1.1479476677052909,1.1438557407819845,1.8920936206642325,1.7840503670902803,3.2327595648759826,0.9965784284662087,Relax,,,,,,,,,
101.8464403394066,589.44,37.545210457298396,,,,,,,39.40235341379312,39.59962217336086,0.06369640753477604,0.06684709794685315,591.5,41.5128,0.07018224852071006,52.5,0.9528672072708069,553.8,621.0,17.0,37.0,516.0,710.0,8.333333333333334,117.1875,,,0.05007943805363545,0.061939800994290285,0.024251904137071414,0.13627114318499717,0.8085179036699174,0.36749848047909356,0.4545335097849944,-2.7815923173209907,28.00116137120863,45.173146586680716,0.6198629824796124,3973.8023294964873,1.613259749759118,4.306176369981676,291.5040766330419,0.62,0.6363636363636364,0.8571428571428571,0.15789473684210525,49.0594431903687,49.07329185239932,49.05053967338212,55.55555555555556,0.5429857776736802,0.45701422232631983,20.63507020702812,18.93113190229366,0.4044680912428203,0.5955319087571798,28.72913007494161,34.86043972297006,0.4429219465700524,0.5570780534299475,25.011687641099854,28.05029423001539,0.9387962411582079,1.5014509950089674,1.3050777334808308,1.3991261371624273,-0.009242153779446483,-0.40185236859741336,-0.43736165616178846,0.0011125410965458684,0.17832350672357056,0.5307433858150952,1.3971052772241062,6.028758439731455,1.0803580575187195,1.015886742902562,1.1394643216546965,1.1897547181149521,1.858325004120208,1.7867389667400595,3.052057227485862,0.7972627427729669,Relax,,,,,,,,,
102.99410546202208,583.0,38.7226032182755,,,,,,,40.51296088907845,40.716343230459756,0.0664195595510729,0.06949049895210711,580.0,47.4432,0.08179862068965517,60.0,0.9558077802384077,546.0,615.0,16.831683168316832,41.584158415841586,516.0,710.0,9.181818181818182,109.375,,,0.03483244269506038,0.05588056990372548,0.024891003080595074,0.11560401567938094,0.6233372844098025,0.3013082416761849,0.4833791419383393,-2.8845385459387702,28.79080240337707,46.875396833337085,0.6141985849365968,4239.831517608767,1.6281379093428374,4.334318708906735,305.2784423993812,0.6633663366336634,0.6799999999999999,0.8676470588235294,0.25,50.42253521126761,50.40536901403502,50.44045612380508,54.0,0.552513251690733,0.44748674830926705,21.400934559032695,19.259786965057373,0.40393860829746364,0.5960613917025362,29.792204457955883,36.19015586894013,0.44463573886579605,0.5553642611342038,25.93815188544325,28.98850440914101,0.9024902053131639,1.6799005352930476,1.1459042065126068,1.411628220787131,-0.8527583566066355,-1.017967015442517,-0.34182157890189,0.0005114761600729451,0.15799981755855388,0.5836387401902523,1.586965056582042,6.101135616350901,1.1258245108075828,0.8636219897837879,1.1669088027213268,1.1367251258856321,1.8819034172125495,1.832152359109168,2.9130707087762833,0.7910746316140745,Relax,,,,,,,,,
102.9023738789501,583.2475247524752,40.262490221195726,,,,,,,43.024411675233864,43.239810500523845,0.06903156638047071,0.07376698545526279,579.0,48.925799999999995,0.08450051813471501,62.0,0.9358057124665349,546.0,620.0,20.792079207920793,48.51485148514851,516.0,710.0,11.222222222222221,117.1875,,,0.04052185282043006,0.057808240046359025,0.0193803610356765,0.1177104539024656,0.7009701867403983,0.3442502469152511,0.4911054042341787,-2.850623952109017,30.575163222141693,48.238703602527764,0.633830533135213,4633.554596605261,1.5777087844814714,4.372884394587662,304.4265057028242,0.6633663366336634,0.6799999999999999,0.8529411764705882,0.22727272727272727,49.453024453024454,49.448596572775664,49.462155005025004,55.00000000000001,0.5457025552374265,0.4542974447625736,22.587092944351376,20.608789926199506,0.42021576741583166,0.5797842325841684,31.270282145425956,36.7306681098776,0.4561820740698903,0.54381792593011,27.276430421989907,29.78140528937647,0.8154939108164339,1.2801480049152352,1.0696427437234268,1.3299819478446908,-0.27475387230829185,-1.0247918377807816,-0.2966335118113923,0.0008265038136342517,0.13047414147974443,0.6440610124877852,1.5184661342283738,6.034255542072054,1.1619414865105477,1.0732995677167048,0.9309673369667015,1.3696091693913541,1.8954942270979052,1.8642005339766061,3.8435209265801062,0.9229204035497537,Relax,,,,,,,,,
103.01222566170952,583.2843137254902,43.2325916320932,,,,,,,49.86079632237125,50.09708594121997,0.07411924273423828,0.08548283426980197,577.5,50.4084,0.08728727272727273,68.75,0.8670658076252153,542.6,620.8,25.49019607843137,51.9607843137255,516.0,710.0,10.2,109.375,,,0.015170551547163997,0.02093789514295857,0.008758835039782639,0.0448672817299052,0.7245499819147707,0.3381205850287211,0.4666628851955371,-3.8661945970754212,35.4239891867219,48.627963270953344,0.7284695225531171,5411.696336971267,1.3727410262755144,4.440303529284698,267.01440082502603,0.6274509803921569,0.6435643564356436,0.8307692307692308,0.2608695652173913,51.53592978606692,51.37406912110695,51.71246861640485,52.475247524752476,0.5488777200751904,0.45112227992480963,26.250809511327457,23.79863441460455,0.45874876536810133,0.5412512346318987,32.9362032639253,35.77548499236012,0.4900057090370604,0.5099942909629395,29.78169308016759,30.383057173683035,0.7234322617570069,1.870451008908062,1.039720430982174,1.4323870320140952,-0.9333430955012432,-1.4304162141992327,-0.29006849195095813,0.0014936854383315991,0.2577770177800299,0.6876497676423701,1.923687012270603,6.061987474260806,1.2171304037176256,0.9924172316903154,1.1046736391896896,1.4900069505259546,1.9551880195663047,1.8876833338323267,3.9831304004925525,1.0466549556033717,Relax,,,,,,,,,
103.16607950513284,581.960396039604,43.712451496588294,,,,,,,51.09618381053521,51.34376123914003,0.07511241622980397,0.08780010488386907,576.0,45.9606,0.07979270833333334,68.0,0.8554934681359803,542.0,621.0,26.732673267326735,52.475247524752476,511.0,710.0,11.222222222222221,70.3125,,,0.013006037734425067,0.033564858550859535,0.016697971484049026,0.06326886776933363,0.38748972276220145,0.20556773327827882,0.5305114463756596,-3.3942756357859256,36.30552174381893,48.95507319899738,0.7416089767906318,5583.6766360131805,1.348419492341604,4.453890369279347,264.0478998021525,0.6039603960396039,0.62,0.7903225806451613,0.21739130434782608,51.36165577342048,51.249255903416035,51.485333655130894,52.0,0.5117013045709777,0.4882986954290224,25.975512944449676,25.374567717868356,0.4737791176486951,0.5262208823513049,33.696567340087476,35.51254062178798,0.4872384489665591,0.5127615510334408,30.08476294764779,30.86267347689461,0.7693143800138041,1.5997115654994625,1.047670692064725,1.2555471682244979,-0.4594210538604635,-0.6817007732654359,-0.3700537767913995,0.0007742472211386808,0.16486665499074243,0.7091662713817444,2.032921526044943,6.101135616350899,1.2638624304336148,1.0312249716252095,1.1257164803190118,1.4832486974442047,1.8637312541270328,1.916604508302618,4.197359749399691,1.1206890614532723,Relax,,,,,,,,,
102.74937503269105,584.3725490196078,44.817323729886574,,,,,,,55.588837115748234,55.86529236555653,0.07669306815502518,0.09512568174019931,578.0,48.925799999999995,0.08464671280276816,67.5,0.806228841171241,542.4,621.0,29.411764705882355,54.90196078431373,511.0,710.0,11.333333333333334,70.3125,,,0.005445453587843443,0.006628170577014965,0.006260190443595723,0.01833381460845413,0.8215620772837494,0.29701694405333534,0.36152708634669883,-5.01642644392898,39.50272706465408,49.64006586028932,0.7957831316306768,6160.4054987416785,1.2566237712916242,4.496579409799895,249.51554707408542,0.6176470588235294,0.6336633663366337,0.8125,0.21739130434782608,49.628344895936586,49.613000965553546,49.645416132173175,51.48514851485149,0.48887543174987663,0.5111245682501233,27.62055394086078,28.242078535405287,0.4624162433480726,0.5375837566519275,33.75583766278134,36.396147629904654,0.47267548768181683,0.5273245123181834,30.841137919311986,32.57525565746042,0.6647164089106671,1.6504084316448706,0.9920776669629169,1.2176757453618015,-0.1769127705004312,-0.5499256136280195,-0.3633077279094827,0.0016625119354868297,0.22426090107390007,0.6092409124269977,1.6650077635889113,6.167427547811426,1.2517459548713552,0.9329813688026346,1.0652862892158794,1.4599674060737655,2.0025455557450025,1.9584095360012999,3.524813262065816,0.9812390208781611,Relax,,,,,,,,,
103.55047448219045,579.9705882352941,41.71911162642462,,,,,,,54.30861573060261,54.579479696680835,0.07193315052986647,0.09364029285666052,576.0,43.7367,0.07593177083333333,58.75,0.7681858774190065,541.2,613.8,28.431372549019606,56.86274509803921,511.0,700.0,9.272727272727273,70.3125,,,0.005562041172992692,0.016232542918721053,0.012160189182488347,0.03395477327420209,0.34264755687649956,0.16380734243390102,0.47806365213029106,-4.120737229585679,38.59352020715651,44.89527969189925,0.8596342526878208,5443.333553877817,1.1632854285102032,4.442835057574862,208.90409869790577,0.6372549019607843,0.6534653465346535,0.8636363636363636,0.25,50.025087807325654,50.04778348275144,50.00227759997531,49.504950495049506,0.47591744659138213,0.5240825534086179,26.624424876417518,27.939219745726614,0.507419540053175,0.49258045994682487,31.98042825530954,31.509337460836285,0.49403280953037576,0.5059671904696241,29.424545802722264,29.77783023677901,0.5797277168461904,1.8684957272224194,0.9431234775170974,1.1052416211639104,-0.32897192218788973,-0.3213331310225771,-0.41323601050573067,0.0014300229288061273,0.24741534988008468,0.5809748184287042,1.4701758451005928,6.140418846809824,1.3173075237463474,0.9088708593575087,1.2226833825796728,1.451172760555014,1.9897528010172003,1.9662434648909635,5.0741008752574945,1.1120708903285825,Relax,,,,,,,,,
103.45871279973065,580.4313725490196,43.77835936387414,,,,,,,56.91612728001138,57.2,0.07542383378006828,0.09805832346735291,575.0,45.9606,0.07993147826086956,61.25,0.769173193188231,541.2,613.8,31.372549019607842,54.90196078431373,509.0,702.0,8.5,70.3125,,,0.014699386302344911,0.02440947193849514,0.01512541252051347,0.05423427076135352,0.6022000942659941,0.27103501339635344,0.45007467779743693,-3.712784027810235,40.44650788387052,46.17836277001179,0.8758757447792511,5867.720717801024,1.1417144566002706,4.475439544784645,210.8900174266167,0.6372549019607843,0.6534653465346535,0.8484848484848485,0.2608695652173913,49.99999999999999,49.99963766773474,50.0018854569153,50.495049504950494,0.5056695926451171,0.49433040735488276,28.761693274214576,28.437387362414288,0.4750184309474504,0.5249815690525494,31.826857640488402,33.45881529359485,0.48832470546342344,0.5116752945365767,30.333017219425393,31.049777139706627,0.5766853089161215,1.9558710969329995,0.9940499014602275,1.2468556916194644,-0.2763565173569784,-0.5772523766824049,-0.37074516794298895,0.0029703805156056293,0.34247936723784594,0.5742171277233532,1.5040773967762742,6.160026689947078,1.3041848808263932,1.0477604263669469,1.2118853573406245,1.5038652661591854,1.9696096860952368,1.9565250423532916,2.962957382256013,1.0466549556033717,Relax,,,,,,,,,
103.43382218461217,580.6138613861386,41.9051238626089,,,,,,,55.562127389076814,55.841886273891774,0.07217382609944237,0.09569548900611777,575.0,41.5128,0.07219617391304348,58.0,0.754203012587441,544.0,610.0,28.71287128712871,53.46534653465347,511.0,702.0,10.1,125.0,,,0.004587311187509432,0.020234213219432574,0.011160675797490601,0.03598220020443261,0.2267106280714617,0.12748834594456862,0.5623395207761627,-3.9003803835731956,39.48617645851686,43.96138054927278,0.8982014660404027,5453.386479885561,1.1133359694995402,4.443636387060665,195.77514493745133,0.6435643564356436,0.66,0.8636363636363636,0.2608695652173913,49.832947828321764,49.84540958969543,49.822301122205126,50.0,0.5025573749250927,0.4974426250749072,27.992333005141017,27.849523507520907,0.4672026833334298,0.5327973166665705,30.04858229567242,32.08871580194791,0.4829894797779813,0.5170105202220188,29.038663924589446,30.043981439001566,0.6573872653357887,1.5549601816607468,1.0202471162488331,1.1320677922107414,0.09247336736101364,-0.23384094829416124,-0.42808775602055593,0.0015401802958515483,0.20561809191611405,0.5858741576381359,1.5214691394881434,6.113463462864134,1.2406744493134851,0.8508313463240423,1.2583511940557315,1.5076866720933442,1.9692368484501046,1.9316343729678302,3.8673593296779196,1.0547661754854327,Relax,,,,,,,,,
103.76008589987573,578.843137254902,43.36667176257768,,,,,,,59.88743566471226,60.186120567045116,0.07491955759938558,0.10346056091935656,574.5,40.0302,0.06967832898172324,53.5,0.7241363949088042,542.4,605.8,32.35294117647059,55.88235294117647,511.0,702.0,9.272727272727273,117.1875,,,0.014393243161645801,0.026234918161557548,0.01447229468781731,0.05510045601102066,0.5486292380639652,0.26121822220068386,0.47612887552709715,-3.640664001285814,42.55801398626873,44.543504154660276,0.9554258200814716,5955.464015078981,1.0466537317514901,4.481885714796123,186.4864993950527,0.6372549019607843,0.6534653465346535,0.8636363636363636,0.25,50.0351041422888,50.01120447046689,50.06046411253464,49.504950495049506,0.5305476801099833,0.4694523198900168,30.99870965056449,29.159303832567744,0.4618941105199535,0.5381058894800463,30.273009106864087,32.67519980033728,0.49465674545247107,0.5053432545475287,30.638008097657686,30.967189749733198,0.5504191558406248,2.021429366918131,0.9684796574165659,1.2322503782160101,-0.4870153290672423,-0.7319100074886595,-0.3695127689761483,0.0024167227835753145,0.3336931225748386,0.6234848226578205,1.6933193964148026,6.020177057530508,1.2868306304397856,1.1808307205411517,1.2479148782039076,1.4847507841092529,1.952126897312504,1.9823917436423166,3.9035014111247586,1.0466549556033717,Relax,,,,,,,,,
103.58429073048455,580.0392156862745,43.70443518482198,,,,,,,59.04403458269074,59.33145860501004,0.07534737997518495,0.1017931770575765,575.5,42.9954,0.07470964378801041,54.75,0.740200690784676,542.0,608.8,30.392156862745097,53.92156862745098,511.0,702.0,9.272727272727273,93.75,,,0.030386746003873075,0.04981430071886689,0.026300214657258278,0.10650126137999824,0.6100004529896826,0.2853181794293747,0.46773437303365495,-2.9994531731454854,41.953676717291536,45.32690390730192,0.9255800220348389,5974.147695886173,1.080403613078805,4.483246065209389,195.88540300449924,0.6274509803921569,0.6435643564356436,0.8615384615384616,0.2,51.10843373493975,51.088594140849,51.1262550097513,50.495049504950494,0.5459123104974071,0.45408768950259293,31.001532220198406,28.274281600068992,0.46406387103353625,0.5359361289664637,30.877699362323103,33.182765103465584,0.5018343649295904,0.4981656350704096,30.93967774484738,30.82637588098683,0.6266241900927929,1.887242934024333,1.026126036951446,1.213610972955848,-0.24806479407281756,-0.4248819399835755,-0.4006567026298986,0.002083004098684723,0.28844885300576917,0.630767463298465,1.6933193964148023,6.054586616396458,1.25997684200562,1.1805379022661684,1.408131442038336,1.644942224243813,1.9561765777618767,1.9536724715461635,3.3794035336223,0.9812390208781611,Relax,,,,,,,,,
102.76315353296808,584.7128712871287,48.30410678889805,,,,,,,63.695290249750805,63.95990773898754,0.08261167003655351,0.10893430498551937,581.0,40.0302,0.0688987951807229,54.0,0.7583622996220986,546.0,611.0,32.67326732673268,57.42574257425742,509.0,776.0,8.416666666666666,93.75,,,0.05095824136912414,0.08572470978464657,0.054465883330993545,0.19114883448476427,0.5944405235916103,0.26658933865058865,0.44847100436534104,-2.4566141660614957,45.226484486304024,47.29157942856724,0.9563327136201385,6719.338532023975,1.045661186486617,4.534296632118094,197.80387622440682,0.6237623762376238,0.6363636363636364,0.873015873015873,0.14814814814814814,52.98057602143336,52.753796966800536,53.25050790135346,49.494949494949495,0.5917172160341525,0.4082827839658474,34.820245475147,28.92379398671375,0.5194790100376059,0.4805209899623939,34.08535494115686,32.78234377502375,0.5540181867751762,0.4459818132248238,34.45475958713209,30.91332982686997,0.5256297953307149,1.97174840523334,0.9832773172962381,1.224074347756844,-0.22482471430128648,-0.6085254381560998,-0.377876391419163,0.003296332580142048,0.3674029574640679,0.7103306387093866,2.040220828526555,6.081333636152881,1.2688590295055362,1.2156363867427116,1.3754130505148507,1.804805173900133,1.8672135689211504,1.9508319463387547,2.5795461118194547,1.0547661754854327,Relax,,,,,,,,,
101.67146634590918,590.88,47.3120481377619,,,,,,,65.29281365626323,65.62447906950334,0.08007048493393226,0.11050097085070273,585.0,41.5128,0.07096205128205128,55.25,0.7246134067194311,551.8,620.0,37.0,59.0,511.0,760.0,7.6923076923076925,93.75,,,0.050737350555284305,0.07476060240510429,0.05253613962028214,0.17803409258067074,0.678664282028581,0.28498671136425296,0.4199229558868271,-2.593464238574052,46.403514161880466,48.54099504924736,0.9559654497152704,7076.3518475796,1.0460629098026974,4.55677952855552,203.1077381037361,0.61,0.6224489795918368,0.8688524590163934,0.1111111111111111,50.300687285223376,50.27492886483829,50.32571940410734,50.0,0.5519367281756751,0.448063271824325,34.4746283518764,31.061656919943033,0.48640007496021676,0.5135999250397834,33.85364933480376,34.787334291192806,0.517694032460453,0.48230596753954696,34.16554970495762,32.9771523763002,0.6479813631147422,2.1044047451430528,1.0633247481721084,1.5121470428156005,-0.747191936270271,-1.3776775280498708,-0.2867224469630332,0.003559269047578523,0.4121808733865491,0.6965651603625025,2.12389330425067,6.033660689688184,1.3371299994972838,1.2334840486457725,1.4990589938635228,1.9264930569859118,1.8909243257717305,1.9381397521112584,3.1316244940289204,1.1294555522617031,Relax,,,,,,,,,
100.86007659391636,596.3030303030303,46.72181122115009,,,,,,,68.13020247875328,68.4738451759125,0.07835246317196631,0.11425432878335492,594.0,35.5824,0.059903030303030305,45.5,0.6857723817233702,564.0,619.4,38.38383838383838,57.57575757575758,511.0,760.0,7.615384615384615,109.375,,,0.05590941349422402,0.04410246980882581,0.02568996045193771,0.12570184375498755,1.2677161559563133,0.44477799071269125,0.35084982440502926,-3.121239493362264,48.4183202578055,44.373522739387795,1.0911534011435917,6749.684908379389,0.9164614241700043,4.536253609348942,162.66648738071763,0.6262626262626263,0.6391752577319588,0.9193548387096774,0.07142857142857142,50.9730069052103,50.84620552853353,51.099598682900506,49.48453608247423,0.5754282912974373,0.4245717087025627,36.73224376428375,31.552035240774114,0.47354100501836704,0.5264589949816328,30.535336040970623,32.19631614281309,0.5289223982756127,0.47107760172438734,33.77620818781885,31.87580352715064,0.6734398277286173,1.917598657948358,1.0971848944906117,1.45970393198174,-0.4933748062865071,-1.158137212503461,-0.31095155861290186,0.003103159054911124,0.3520193985890835,0.7612546629502175,1.8918429277850377,5.9553257518654625,1.3173301166390914,1.0339272290644055,1.5743492532365182,2.001034502993291,1.7956445699646577,1.9405563400744774,3.858897748505419,1.2053375672872018,Relax,,,,,,,,,
101.4401774858466,592.49,53.730997580634046,,,,,,,78.36440389602794,78.75653258269162,0.09068675856239607,0.13226282957691765,592.5,36.323699999999995,0.061305822784810116,46.75,0.6856556664671766,555.6,617.4,40.0,59.0,396.0,760.0,8.333333333333334,226.5625,,,0.05681624031612491,0.04948085933199736,0.02739976033348817,0.13369685998161043,1.148246838942509,0.42496316161755626,0.3700973930038693,-3.0061693643492133,55.68927825196052,51.59231488571679,1.079410341934046,9026.231681897903,0.926431738840151,4.662476586595341,191.18703196145282,0.67,0.6836734693877551,0.9552238805970149,0.10714285714285714,49.0587138863001,48.88924564975713,49.226636664099175,52.04081632653062,0.5526147408451585,0.4473852591548416,41.40183866566748,37.25196885633657,0.4477324687538449,0.5522675312461551,34.52186973686505,38.340676378200165,0.504177526482523,0.49582247351747716,38.11739586479537,37.800242385541296,0.5560982087556373,2.5168205884814494,1.0637993567615471,1.398560460155096,-0.8272352225216562,-0.852256896250543,-0.3669904780159437,0.003773336992425866,0.5157927741772379,0.7201941725142689,1.875458488104702,6.025113159965452,1.2036419703879526,1.317878668466695,1.5767988767913086,1.8037746615874555,1.6251831223501094,1.956322522494622,3.3011789816943944,1.063016990363956,Relax,,,,,,,,,
100.39781679453934,599.929292929293,125.22455361088724,,,,,,,178.2267244442383,179.14132243025855,0.2087321874207034,0.2970795501149898,589.0,37.065,0.06292869269949065,53.0,0.7026137859031696,549.0,618.4,37.37373737373738,57.57575757575758,396.0,1705.0,9.9,226.5625,,,0.027333387850433336,0.030182179462900197,0.01859232551900414,0.07610789283233767,0.9056134559146537,0.359139989733359,0.39657095131237186,-3.5005036127793288,126.67204388116158,124.6690137174229,1.01606678439182,49612.27866832969,0.9841872752474268,5.402559284394774,490.79062767333807,0.6565656565656566,0.6701030927835051,0.9384615384615385,0.07142857142857142,49.458432972288655,48.991178013807904,50.09803483374643,52.57731958762887,0.5427377979772864,0.4572622020227135,93.32113936052426,85.65794478712782,0.4486652904368516,0.5513347095631483,83.50639976114832,92.56913189722734,0.49645165228223614,0.503548347717764,88.5498555973275,89.18051268455713,0.05916609326675271,3.452195749917385,1.06466929415774,0.4947937625499532,0.06170159197105285,1.76187896429649,-0.6650762508532213,0.0073079860907717155,1.0059316409611836,0.7920460825576119,0.8696036179015016,6.140826034457387,0.7154302797244898,0.8293795616876822,1.328265040929919,1.1217676821426796,0.9310736355508055,1.9584762162773706,1.7409795315420011,1.1383743691045793,Relax,,,,,,,,,
100.97804747185855,595.6868686868687,74.72570883238906,,,,,,,103.8154268745395,104.34537049319479,0.12544461320276257,0.17427852170619454,597.0,41.5128,0.0695356783919598,52.0,0.71979387921503,553.2,619.4,32.323232323232325,52.52525252525253,396.0,1108.0,9.0,242.1875,,,0.05127141359581509,0.06013335170523726,0.02282070657815265,0.134225471879205,0.8526285687040732,0.3819797604582559,0.44800253531128376,-2.8111906545023033,73.78331906116071,75.64769385185608,0.9753545059239156,17534.918562000767,1.025268242394327,4.950873863175844,310.2367124667064,0.6565656565656566,0.6666666666666666,0.9375,0.10714285714285714,49.186459697026365,48.927308715302814,49.497406630798274,53.125,0.5732539677279781,0.42674603227202185,55.86600316183672,48.201306822340854,0.41166161834489706,0.5883383816551031,48.53621228672188,58.02421634078665,0.4904449535756785,0.5095550464243217,52.32960066931565,53.3393647381737,0.7625830800496118,2.2730798699194796,1.318260872421118,1.468304457577211,-0.2332425794243811,-0.271169494387125,-0.43399106334023885,0.0039025618568350536,0.4641832764027631,0.7630806014812177,1.2800373864150274,6.0725948475668465,0.8812692431488528,1.0174853916947157,1.3187169951800752,1.7214846680111908,1.307329454345558,1.830438022151213,2.2788746212747832,1.0714111709219571,Relax,,,,,,,,,
101.1110103649456,595.1616161616162,74.21764835922527,,,,,,,103.48912986396203,104.02111205220467,0.12470167151886935,0.17388407964108282,597.0,41.5128,0.0695356783919598,52.0,0.7171540475486212,552.0,619.4,31.313131313131315,52.52525252525253,396.0,1108.0,9.0,218.75,,,0.057711804397221275,0.0577474945551246,0.033499972382006284,0.14895927133435216,0.9993819617945631,0.38743344996419904,0.38767304671828906,-2.851675314848208,73.55403371867962,75.44294056912686,0.9749624439848488,17433.114192544606,1.0256805338191473,4.94834508489907,309.5214222233129,0.6868686868686869,0.6947368421052631,0.9393939393939394,0.11538461538461539,50.13217522658611,49.856808267809164,50.42582401796307,52.63157894736842,0.5786590826806914,0.4213409173193086,55.952345334700745,47.74454143787959,0.41493865377798445,0.5850613462220156,48.59712246078115,57.70577934876757,0.4947237164807122,0.5052762835192877,52.403937160874506,52.9598820210263,0.636713127690343,2.068196744975687,1.1569743880149317,1.1449759005135256,-0.0244728663912106,0.18184380557815927,-0.5058014246132791,0.0026284948820388594,0.3496790205242663,0.7296486473089545,1.2114077828134542,5.996738534391825,0.8741930646375974,1.0148968119363633,1.165639703139409,1.6593732307215012,1.3416292029995414,1.846561445761951,1.9669288186993303,0.9374847745567124,Relax,,,,,,,,,
101.12788490619822,594.9191919191919,73.56985806474601,,,,,,,102.01395462766607,102.53822520828992,0.12366361526749844,0.17147531297245938,597.0,41.5128,0.0695356783919598,52.5,0.7211744543505223,553.6,623.2,31.313131313131315,50.505050505050505,396.0,1108.0,9.0,218.75,,,0.0353255533850563,0.047848020218609774,0.030991022392359683,0.11416459599602576,0.7382866255209647,0.30942651771207635,0.4191143480267336,-3.0397255366808293,72.50547437561518,75.22685971706386,0.9638242862764165,17135.374634340602,1.0375335154329248,4.940863713904114,312.20155286889894,0.6565656565656566,0.6631578947368422,0.9523809523809523,0.07142857142857142,50.20479812755998,49.920906855534376,50.50384328483864,51.578947368421055,0.5742098755626937,0.4257901244373062,54.94233152874414,47.31180842553839,0.4255132861209702,0.5744867138790296,49.071518288790664,57.01812444936863,0.4971235258766299,0.50287647412337,52.08970004224227,52.39023636241076,0.5905657169223631,1.927814798905703,1.233261856672125,1.048780629695726,0.47544374247996934,0.48623816756483196,-0.5956944759844758,0.003906816513680759,0.3891528890332286,0.7304651718343251,1.2710283164726612,6.133200908172907,0.9052262719961802,1.221171053447249,1.2618462375405193,1.660732178170642,1.349434099949637,1.8401905340231548,2.042095266762581,0.9374847745567124,Relax,,,,,,,,,
100.9557547947452,595.8787878787879,72.96116841495176,,,,,,,100.88779380467942,101.40603371333181,0.1224429697769227,0.1693092552661931,598.0,31.1346,0.05206454849498328,48.5,0.7231912371501145,555.2,619.4,29.292929292929294,52.52525252525253,396.0,1108.0,8.25,218.75,,,0.05689519997166473,0.09251881090544371,0.026626160531709877,0.1760401714088183,0.6149581843395382,0.3231944136178835,0.5255551057751879,-2.3803432939988993,71.70489409192857,74.85644441995049,0.9578987440234072,16862.729221459602,1.043951676770926,4.933897976211117,312.5860426772678,0.6565656565656566,0.6631578947368422,0.9365079365079365,0.07142857142857142,50.30036043251902,50.03774740291088,50.577316549010874,50.526315789473685,0.5745028963044798,0.42549710369552,54.349669713238775,46.77341742186033,0.42535475944473916,0.5746452405552608,48.82079454793538,56.7451961923247,0.4967234778322046,0.5032765221677953,51.659251728174794,51.99889358546491,0.7024715800276238,2.2464541693196556,1.3093460948867293,1.3735743914079703,-0.3924604551698998,-0.49233415575293293,-0.4714090332229245,0.0028671354585840594,0.4154646363256808,0.7039762894654289,1.1104467463151126,6.011988786960784,0.8627570147609473,1.2253171065552533,1.2261802541618194,1.544941731599184,1.2819898276825563,1.8238003853074674,1.9347807060717017,0.9374847745567124,Relax,,,,,,,,,
100.87878556111886,596.3333333333334,74.91273835167782,,,,,,,104.6227430693104,105.1584739794893,0.12562225548073416,0.1754433925142153,600.0,40.0302,0.066717,49.0,0.7160272819653531,555.2,628.4,34.34343434343434,53.535353535353536,396.0,1108.0,7.071428571428571,226.5625,,,0.06107103524885582,0.10527474562244699,0.01991031993053153,0.18625610080183433,0.5801109742680212,0.32788743555751687,0.5652150193697719,-2.251181721251983,74.358270050126,75.79098707537644,0.9810964722780882,17705.031885382377,1.0192677562870227,4.955066823187135,309.0052373723907,0.6565656565656566,0.6631578947368422,0.9365079365079365,0.1111111111111111,49.39715016441359,49.15885219199968,49.688340544254025,49.473684210526315,0.5593511699449987,0.44064883005500144,55.61354133105932,49.36107235380452,0.4308785328542556,0.5691214671457443,49.75021842754299,57.17682649703146,0.4938904136590407,0.5061095863409595,52.7633879360001,53.41210046510605,0.8471848554959104,1.9063525230341551,1.2764225753851122,1.2930757099968468,-0.12736742637433984,0.058371259776253126,-0.4912643992071154,0.0015452901308415229,0.26129514489873673,0.6765467204596831,1.132658130077827,5.956334493987784,0.9022099000752412,0.8997949591533788,1.3217652322179565,1.65780346758426,1.253976276667025,1.8567812660104004,2.2388188954768244,1.2053375672872018,Relax,,,,,,,,,
101.55862579390904,592.5,73.65747920221165,,,,,,,101.62184804460112,102.13900637551073,0.12431642059445004,0.17151366758582468,598.0,35.5824,0.05950234113712374,50.25,0.7248193239891081,553.0,617.4,31.0,50.0,396.0,1108.0,7.6923076923076925,218.75,,,0.05805054279889439,0.13135024589291575,0.03131000304418595,0.22071079173599611,0.4419522963529168,0.2630163316541935,0.5951238036879988,-2.029887890808825,72.22318403177965,75.79799954282353,0.9528376008258078,17198.249592101,1.0494967863708542,4.942454357382372,318.1990277341311,0.63,0.6391752577319588,0.9193548387096774,0.1111111111111111,49.970845481049565,49.71443833321992,50.26119627487161,51.546391752577314,0.561535760431858,0.43846423956814184,54.1209435487986,47.82376234569964,0.43222364899306087,0.567776351006939,49.83242326200147,57.11450189339492,0.49375854973262245,0.5062414502673778,52.020894546208595,52.67437029252733,0.8085762790713051,1.7664909424692814,1.339989537630536,1.148465397787978,0.5535956255083274,0.7237130514486196,-0.6084206747048682,0.0025067164889230986,0.29458092526453916,0.6827197295137397,1.113318436057805,5.9736606896881845,0.8656080059069469,1.0560567292603975,1.3956030825553765,1.7900793227714602,1.2575184879877215,1.8230259368676935,2.005234382942831,1.063016990363956,Relax,,,,,,,,,
101.95712013761282,590.27,74.35688647096896,,,,,,,101.91281677111188,102.42926877626734,0.12597097340364402,0.17265457633136003,598.0,38.547599999999996,0.06446086956521739,60.0,0.7296127104206004,543.8,617.0,33.0,49.0,396.0,1108.0,7.6923076923076925,218.75,,,0.05305642370876068,0.09637865225037388,0.0274771090126166,0.17691218497175118,0.5504997472980834,0.2999025969705398,0.5447824425760348,-2.3394705515741574,72.42843054367813,76.79157097031046,0.9431820397538263,17473.202076895748,1.0602407147839705,4.949342609500898,325.67020037978386,0.63,0.6391752577319588,0.9193548387096774,0.11538461538461539,50.63364055299539,50.43514766627602,50.846118672581056,52.57731958762887,0.5649724382340242,0.4350275617659759,54.441740064260344,47.772366275827665,0.4299626407447482,0.5700373592552519,50.353413037356034,57.978264613367415,0.4935247120429864,0.5064752879570135,52.43743541466853,53.12098524674354,0.615869662280869,2.052247422202277,1.2175341935299466,1.1818180001155985,-0.28409563617739764,-0.370382047199147,-0.5174034539051927,0.0030268716762868087,0.35340270111076716,0.6003147125662087,1.013619075834717,5.978562939644915,0.8804136390788565,1.034696829275137,1.2210008567919826,1.4500782836966635,1.3064284486688562,1.8565383292201958,1.9327300911563885,0.9965784284662087,Relax,,,,,,,,,
102.49703103542467,586.58,74.82601772975045,,,,,,,101.62691721699672,102.13596783999783,0.12756319296558088,0.17325329403831824,588.0,42.9954,0.07312142857142856,63.0,0.7362814870196228,545.4,617.0,33.0,51.0,396.0,1108.0,8.333333333333334,218.75,,,0.06283923366358965,0.11683062503339016,0.02205051940232476,0.2017203780993046,0.5378661086990694,0.31151653717729316,0.5791711582846419,-2.147030042328247,72.22103546271359,75.76862652858122,0.9531786277724141,17191.073544986306,1.0491212988451155,4.9422731082373055,317.96191950150245,0.6,0.6082474226804123,0.8983050847457628,0.12,51.2204497405343,50.84121028767478,51.606520642620445,51.546391752577314,0.5617535881072885,0.4382464118927113,54.1341398937936,47.81426650731613,0.4580437761823475,0.5419562238176527,51.2793968067001,55.77910208284657,0.5074181124453414,0.49258188755465876,52.72609239693294,51.949553948043054,0.5498843783869457,1.982907593733891,1.0477441125162081,1.1050646816548853,-0.5940582505162624,-0.7091756272255312,-0.4710926674950393,0.0016442378089331607,0.2764941376486663,0.5941087681595101,0.9504820966224345,6.073660689688184,0.8683419056100412,0.9885550505610755,1.3028822572229957,1.6041651627574594,1.334310383976588,1.8595512850076055,2.097402800532631,0.9965784284662087,Relax,,,,,,,,,
102.67051490730228,586.3366336633663,75.52049751262538,,,,,,,103.47850018240504,103.99971056680783,0.12880057833122532,0.17648308879471308,588.0,44.477999999999994,0.07564285714285714,66.0,0.7298182461042908,543.0,617.0,37.62376237623762,54.45544554455446,396.0,1108.0,10.1,234.375,,,0.05818770307617284,0.13809293870128667,0.03071387724811068,0.2269945190255702,0.42136624525053057,0.2563396831163936,0.6083536258676402,-1.9798283516534068,73.53890058322806,78.10588384308245,0.9415283070219187,18044.745313330113,1.062102958075715,4.963320866692816,331.8259610914243,0.594059405940594,0.5979381443298969,0.8620689655172413,0.1111111111111111,50.12442232492001,49.89985966637588,50.38418436916285,54.63917525773196,0.559308167877622,0.4406918321223782,54.99752060527158,48.81856742318977,0.4388617478417751,0.5611382521582249,51.74252467357927,58.50846290335383,0.4954608965743907,0.5045391034256096,53.39483183007149,53.88178150620883,0.6514238325428685,1.917448767817433,1.1391567427784932,1.0411910835511566,-0.19310919049704367,-0.02013020366462004,-0.5510916697601509,0.0014923056215808653,0.25992084859295306,0.6219327455296848,1.050462944770527,6.07871321529654,0.9299653456589763,1.0112507595701967,1.2533205952760014,1.5800828696784903,1.3970386292826282,1.857614841977609,2.1003311192022207,1.0547661754854327,Relax,,,,,,,,,
103.09025726525189,583.4455445544554,75.2976062365232,,,,,,,102.51019461497476,103.02649654287478,0.1290567850578476,0.17569796456883743,581.0,47.4432,0.0816578313253012,64.0,0.7345377356792537,541.0,616.0,33.663366336633665,51.48514851485149,395.0,1108.0,11.222222222222221,234.375,,,0.039993004768201376,0.06529088363662901,0.026447021373161093,0.13173090977799148,0.6125358172632358,0.30359620863168957,0.4956382958765329,-2.7289028598480845,72.85073434735915,78.38348362410606,0.9294143482665349,17939.418756925537,1.075946376193907,4.960778477613607,337.34570063524546,0.594059405940594,0.5979381443298969,0.8620689655172413,0.07142857142857142,50.14776505356484,49.923821680760476,50.40718497553338,53.608247422680414,0.5570632469067426,0.44293675309325736,54.37342822528019,48.484767992357426,0.44016440130479895,0.5598355986952012,52.00343353077658,58.64821741588235,0.4943429862769245,0.5056570137230755,53.20162965530095,53.80699830567272,0.6283405032871576,2.2705454832043683,1.1370586713954038,1.3079651684352425,-0.9107743837702991,-0.9910829608494305,-0.42472888197833325,0.0016455413160403592,0.3527799562978346,0.6033782708030735,0.9965281625548302,6.120937596548921,0.8834346844209909,0.934423186016791,1.0486766442793316,1.3313132231737168,1.4354787734735444,1.8498651406092008,2.0287822618268723,0.9888432895175933,Relax,,,,,,,,,
101.99365169355004,589.3960396039604,71.16840299007991,,,,,,,95.24190254294588,95.72157858111517,0.12074801696648811,0.16159236938026061,588.0,45.9606,0.07816428571428571,65.0,0.7472383592714258,546.0,618.0,31.683168316831683,52.475247524752476,482.0,1108.0,10.1,148.4375,,,0.054971754670202794,0.02302740409919153,0.018967670703099418,0.09696682947249374,2.387231944747641,0.5669129842571211,0.23747712722445605,-3.771070289731486,67.68537732058752,74.11977884587631,0.9131891429591499,15760.821186700268,1.0950633915330434,4.904548951767703,324.6634256105778,0.594059405940594,0.5979381443298969,0.8620689655172413,0.1111111111111111,50.16266775111833,50.02616008226435,50.354844203521495,54.63917525773196,0.5598786024063448,0.44012139759365543,50.64567946513156,44.90365668671521,0.4516448190946092,0.5483551809053908,49.81184536216098,54.886443479039315,0.5008607748691134,0.4991392251308867,50.23049266565423,50.14409268107342,0.5423747665672833,2.371821860647139,1.1059662913359338,0.9569529194187587,-0.27968725400892147,0.30198234364081755,-0.5628265446025181,0.001868059245876208,0.38842617433429155,0.7082711706541818,1.172720260821832,6.066385368783307,0.9214771552402368,1.109730104012846,1.184141423404273,1.318871751382442,1.4030606808303574,1.8820414856951233,1.824185300331483,0.9229204035497537,Relax,,,,,,,,,
102.20621126727485,587.6237623762377,46.869147951535986,,,,,,,55.53512402074925,55.81469612055864,0.07976047081895761,0.094507961686532,586.0,45.9606,0.07843105802047781,63.0,0.8439550424705012,550.0,619.0,29.7029702970297,50.495049504950494,482.0,742.0,10.1,78.125,,,0.05174619280849869,0.023085880031658366,0.016553998845338293,0.09138607168549534,2.2414650313324667,0.5662371940724504,0.2526192406115047,-3.7685341023870667,39.4669501167135,53.142394478505494,0.7426641291573095,6589.076629416644,1.3465037030059412,4.525794668281718,286.2257238076406,0.6039603960396039,0.6082474226804123,0.8813559322033898,0.10714285714285714,50.195771339075954,50.14972814545504,50.247873056822876,54.63917525773196,0.5615323508908451,0.4384676491091548,29.574849402350594,26.13388218347588,0.44332469855255763,0.5566753014474424,35.38360535658149,39.649899910072754,0.4853457342082679,0.5146542657917322,32.60882737236974,33.578969317554886,0.9495117427990877,0.9722161129044301,0.9428014501808635,1.3542224158275973,0.2702246518697091,-0.5669805812828801,-0.076821490421876,0.0009586545989654668,0.09463928036376186,0.6970253445335288,1.8763168572561182,6.026781408387266,1.140427057474329,1.198535746302605,1.183476353315193,1.508471765705909,1.670901168409412,1.798317241581309,3.3739380759839097,0.9229204035497537,Relax,,,,,,,,,
102.05744600359985,588.71,48.608993431506505,,,,,,,55.842672217615444,56.11942275531361,0.08256865592822697,0.09485599398280213,585.5,48.1845,0.08229632792485056,64.5,0.8704632407647016,550.0,625.0,30.0,51.0,482.0,742.0,10.0,78.125,,,0.05583093220845749,0.02609726534139527,0.01924301541334745,0.1011712129632002,2.1393403285017345,0.5518460298461116,0.2579514920997125,-3.64592474633465,39.68242438655689,55.37927454065973,0.7165573170775623,6903.91335590887,1.395561773171813,4.546065442308749,309.14079429972696,0.56,0.5714285714285714,0.8392857142857143,0.06896551724137931,51.168831168831176,51.02184039066302,51.327862522116185,54.08163265306123,0.565829451739753,0.43417054826024715,29.85372502652196,26.15085747999051,0.47762056222251525,0.5223794377774847,38.27267081320716,40.025825631380094,0.5075515427362624,0.49244845726373776,34.3223121972814,33.80779543546443,0.9565067958947191,1.4181306794365591,0.9854213624054498,1.5719842282040317,-0.49362383270920596,-1.3064480178912719,-0.08638306447778808,0.0014331783586215266,0.1708585851382566,0.7343934254042841,2.4423470353692043,6.061209564709819,1.143437630620823,1.220875225010646,1.3270001906455295,1.5778526144730691,1.7393221026126355,1.7970690580515498,3.7600399898122676,0.9965784284662087,Relax,,,,,,,,,
100.91934864638078,595.0505050505051,53.975877782537104,,,,,,,54.531960297403124,54.80649355455834,0.09070806145766717,0.09164257459587352,594.0,57.8214,0.09734242424242424,71.5,0.9898026311206622,550.6,639.6,29.292929292929294,49.494949494949495,482.0,742.0,9.9,78.125,,,0.055890413153513493,0.020113990142778905,0.012657455420771836,0.08866185871706424,2.778683531053565,0.6303771876909297,0.22686181446935627,-3.9063396790276377,38.754043245485,65.97711096319588,0.5873861810515352,8032.674831857171,1.702457484120253,4.611830296744889,449.2929053597009,0.5353535353535354,0.5463917525773195,0.8113207547169812,0.07142857142857142,51.06732348111657,51.02792834356909,51.10659116851281,54.63917525773196,0.56227652989095,0.4377234701090499,29.062854032873002,25.642667407127856,0.41319203865504317,0.5868079613449569,42.410097122136285,50.54070471551451,0.4514409562608404,0.5485590437391593,36.35426950473022,40.074363531398774,0.9554676243880871,1.4855292301493734,1.2728040826425155,1.5000357026562827,-0.42147647749075645,-1.0177969338011459,-0.34703658776817303,0.0010223805475522887,0.16598227500947532,0.6242687182526692,1.900958761193047,6.061026695771627,1.0177047964107624,1.0985639166072083,1.0923176196851345,1.3842738178739717,1.7513317537884823,1.771712302523908,2.892000634890886,1.0044479727393347,Relax,,,,,,,,,
100.63556946097258,596.704081632653,53.29091703882219,,,,,,,54.56878757421304,54.85212274302433,0.08930878584408528,0.09145033401632913,600.0,60.7866,0.101311,71.5,0.9765823909198466,550.4,638.0,27.55102040816326,51.02040816326531,482.0,742.0,9.8,117.1875,,,0.03897182970716688,0.014829768322697345,0.006314000607357844,0.06011559863722207,2.6279459570194015,0.648281487511238,0.24668752634719873,-4.211118745159493,38.78630795406935,65.05708816716576,0.5961888096560208,7927.2569460496625,1.6773209825541064,4.606093045163266,436.4864761866384,0.5510204081632653,0.5625,0.8333333333333334,0.16666666666666666,49.83534577387487,49.810467012931014,49.86755091094804,58.333333333333336,0.5606733092832759,0.4393266907167239,29.042533463869848,25.708299567779015,0.3981058364885934,0.6018941635114068,41.04817881277139,50.472484949179226,0.44073651964470056,0.5592634803552993,35.55574309338264,40.05239320946871,1.0010756868269504,1.6004775090186065,1.3503739511672177,1.3263096644129302,-0.04745508019649591,0.10452998404578207,-0.515035691922371,0.0007200968124930713,0.16150637880603227,0.5887225616754344,1.6462518855568167,5.983339405534316,1.0061858571539413,1.1183939735323847,1.0118235001784435,1.169461013847235,1.7912371959233186,1.7455597455750314,3.6624906188896618,1.0799526276106464,Relax,,,,,,,,,
100.49281036558465,597.929292929293,51.68670387689869,,,,,,,46.970355392675984,47.18150890171693,0.08644283611475581,0.07855503309189833,601.0,54.856199999999994,0.09127487520798667,67.5,1.100411173064237,551.6,635.0,21.21212121212121,46.464646464646464,473.0,742.0,11.0,93.75,,,0.0388761194637351,0.013091850677516781,0.008471079936371419,0.0604390500776233,2.9694899843685807,0.6432284990218341,0.21661244941312957,-4.3357653280363575,33.3623648910175,64.07653128862319,0.5206643402830546,6715.922786537087,1.9206231781810883,4.534075804340602,492.26748468150157,0.5252525252525253,0.5360824742268041,0.8269230769230769,0.07692307692307693,52.63494091344617,52.79662330086467,52.49203367713001,56.70103092783505,0.6218242533844568,0.3781757466155433,26.325088969998763,20.529711935751763,0.40775303594301776,0.5922469640569821,40.916416927727404,49.31174999711821,0.4534551632564514,0.5465448367435483,34.40322283945189,37.7698144021336,1.114512588220108,1.212223618475659,1.3651633224111412,1.3766346851654343,0.07444905057714735,-0.13313301649610576,-0.49053692521787523,0.0002979102302479379,0.08709124708952017,0.6426718990726479,1.555853666299994,6.009315428309366,0.9534940239481781,0.8668247852450809,1.021864860416215,1.2305573449816518,1.764424236003523,1.7021652427538763,2.1519898581010244,0.9374847745567124,Relax,,,,,,,,,
100.92633958193413,595.2020202020202,53.117117383593445,,,,,,,50.00173466378697,50.2535387505547,0.08924216582054732,0.08400800562944268,601.0,62.2692,0.10360931780366056,73.0,1.0623054928144873,550.0,633.8,23.232323232323232,49.494949494949495,482.0,742.0,9.0,85.9375,,,0.05489064538446295,0.015488681075249689,0.008916882198225416,0.07929620865793804,3.543919919183827,0.6922228226729734,0.1953268805330099,-4.167645775031387,35.534618029138166,66.38672134140052,0.5352669526545489,7411.101217608462,1.8682266765035667,4.576852854674873,496.1017751024524,0.5555555555555556,0.5670103092783505,0.8181818181818182,0.12,51.05247554106137,50.9994446685317,51.10708224283116,55.670103092783506,0.5704747017553883,0.4295252982446115,26.842035045071096,23.29118677618852,0.4080073153935423,0.5919926846064577,42.404817211335605,51.07864766939289,0.4441953107415163,0.5558046892584835,35.48706361540505,39.69576570099937,1.1527545750728216,1.2534875353206405,1.4095833501818484,1.6285344592004771,-0.3639147523151518,-1.061055304108034,-0.3253264569059945,0.0006120428157757392,0.11086244911665365,0.632737704448628,1.5892352051165808,6.010324170431688,1.00510235585511,0.9408598268068491,1.2194334900252886,1.356625488907228,1.8186703892937177,1.7253517301044283,2.902974196477909,0.9374847745567124,Relax,,,,,,,,,
100.76159246619694,595.63,51.868453463029574,,,,,,,47.971687778134594,48.214194324107716,0.08708166724817348,0.08053940832082769,592.5,55.5975,0.09383544303797468,71.0,1.0812305312858124,551.0,633.4,20.0,49.0,482.0,742.0,9.090909090909092,93.75,,,0.05411634965993778,0.01829514327871895,0.008851068351266492,0.08126256128992322,2.957962604364314,0.6659444250946636,0.22513618803432422,-4.001119648963664,34.09258375602251,64.69822913675677,0.5269477111028626,6929.504522010472,1.897721498603863,4.547672292474079,491.11688141768866,0.57,0.5816326530612245,0.8245614035087719,0.16,49.396097863115514,49.31427817371412,49.48242820702644,55.10204081632652,0.544917854336843,0.4550821456631566,25.16750009882765,22.999556339997838,0.4137584943438003,0.5862415056561997,41.61652897886602,49.53711102984797,0.4422645570646582,0.5577354429353416,34.3899588940819,38.619327810179584,1.135774577971002,1.0153885839434516,1.4486651891467428,1.3410086938985994,0.6496733095210914,0.30265962569498406,-0.6060249218383362,0.000906064857808091,0.09636626399136872,0.6665886830152785,1.7346010553881064,6.025113159965452,0.9644365351029147,1.218658428231631,1.2921914101871421,1.479556173057216,1.8677732758168077,1.68777272994735,2.615412147573502,0.7972627427729669,Relax,,,,,,,,,
100.59216702873451,596.5050505050505,51.261310098432205,,,,,,,46.217763172324354,46.451579209157316,0.08593608730559807,0.07748092515426747,594.0,51.891,0.08735858585858586,70.0,1.1091257252607147,552.0,633.8,20.2020202020202,48.484848484848484,490.0,742.0,11.0,85.9375,,,0.02952069948172042,0.008832992230000525,0.006851711410448559,0.04520540312216951,3.3420950356387515,0.6530347578571413,0.19539682471427122,-4.729261450875305,32.846226655619176,64.19584947844201,0.5116565466845245,6624.3353217795675,1.9544360498851912,4.5281124181457155,501.866729894682,0.5858585858585859,0.5979381443298969,0.8448275862068966,0.16666666666666666,49.061488673139166,48.909971051824364,49.20986486917886,57.73195876288659,0.5726869721404821,0.4273130278595176,24.858776375489562,21.473071124204722,0.37792250657489873,0.622077493425101,39.464656610873824,50.632479386699956,0.4183368309129102,0.5816631690870898,32.98043271623937,38.889206422539345,1.1901890864936258,0.7448826353455367,1.39744926575454,1.243242918446894,0.6865574745443066,0.44356285871204904,-0.7070209990008864,0.00038906326875724713,0.042383470119747094,0.6832400371736851,1.9070703157390494,6.024565680878325,0.9874323402639659,1.2553817446486912,1.1613922839933435,1.6182118658920048,1.8815713287657034,1.7194577313863546,2.6072768837522924,0.8705215763740901,Relax,,,,,,,,,
100.34496855362435,598.1428571428571,49.72460238628587,,,,,,,45.998879412617164,46.23776191759033,0.0831316495591118,0.07690283159501318,600.5,53.373599999999996,0.08888193172356369,68.5,1.080995950798027,554.4,634.2,17.346938775510203,46.93877551020408,490.0,730.0,9.8,85.9375,,,0.023968819087269378,0.0062658641467926825,0.004129089743898504,0.03436377297796056,3.8253014310146405,0.6975025443987755,0.1823392370451096,-5.072638767696959,32.69503499881722,62.56417581460516,0.5225839639556924,6426.246895610352,1.913568094264725,4.5149275170380685,478.8832427311888,0.6020408163265306,0.6145833333333333,0.847457627118644,0.21739130434782608,50.13596193065941,50.06800303019154,50.21167793804355,56.25,0.622820865125072,0.3771791348749281,25.8026363317136,20.079659069150882,0.36356119123179,0.63643880876821,37.723717738837735,49.91189452747034,0.419175654925083,0.580824345074917,32.31760295648617,38.04201574348195,1.071208326545151,1.3450481452178402,1.4533032718906025,1.217797153606832,0.5805894282060446,0.800323612604465,-0.6750912181999468,0.0011446564031212425,0.14634574529161182,0.6989257294502291,2.1633230256605382,6.089099895091463,0.9636080613515856,1.6813620941571688,1.2318702972395754,1.4582012252981995,1.9360011656915574,1.6990439583309134,3.160032449414958,0.8099644707079847,Relax,,,,,,,,,
100.36129578467173,598.3030303030303,48.78617538904756,,,,,,,45.72700715849955,45.96093713664283,0.08154091307934408,0.07642783813971259,596.0,51.891,0.08706543624161074,69.0,1.0669006878133152,555.0,635.0,17.17171717171717,45.45454545454545,490.0,730.0,9.9,78.125,,,0.020573381223018522,0.006332829466361517,0.005860935492990051,0.03276714618237009,3.2486870730215345,0.6278661287288957,0.19326765386021957,-5.062008149591626,32.49929031900877,61.10960790590653,0.5318196505048687,6239.262350362978,1.8803366875418703,4.502103357319915,459.6265508270991,0.5858585858585859,0.5979381443298969,0.8103448275862069,0.2857142857142857,50.5427408412483,50.506062816045,50.58591280314295,54.63917525773196,0.6224074489785958,0.3775925510214041,25.640255076975563,19.970855052961348,0.37361284181409077,0.6263871581859093,37.35256196464569,48.36496968975518,0.4284679598554063,0.5715320401445935,32.03620269113575,37.00003611239676,1.1027390145431395,1.2022948171819499,1.4408316251744049,1.1821231852781557,0.706213003649113,0.9543042537765718,-0.7151788697739162,0.0008986400298684293,0.11593282972883423,0.7466154579481215,2.4203681286504293,6.106382503808729,0.968069090449431,1.4263041946473676,1.25236613928004,1.478366620323695,1.9657735320243412,1.694358184678316,2.620914731818498,0.8705215763740901,Relax,,,,,,,,,
100.87381636639812,595.4646464646464,49.27459773830423,,,,,,,47.34728404166863,47.59013174594124,0.08274982911387625,0.07951317399408313,589.0,45.9606,0.07803157894736842,64.5,1.04070589761684,556.2,631.0,20.2020202020202,47.474747474747474,490.0,730.0,9.9,78.125,,,0.013565445403252678,0.003679843444437148,0.003931309626146808,0.021176598473836634,3.6864191664891837,0.6405866088462026,0.17376933547583379,-5.60488506997876,33.651304875116246,61.40590781359681,0.5480141255670029,6491.752266140756,1.8247704819019945,4.519332048179925,448.206751970586,0.6161616161616161,0.6288659793814433,0.8360655737704918,0.2857142857142857,50.36589245943366,50.331438203134546,50.405199518009894,54.63917525773196,0.5744607247386124,0.4255392752613874,25.50570989236336,21.952150400735114,0.38647417903457704,0.613525820965423,38.174239855954305,48.097951368348525,0.42989203870787174,0.570107961292128,32.46393249202361,37.38522323758757,0.9931978440431294,1.0068040239709153,1.2361114845206362,1.1511233391197304,0.4686028880325761,0.2762741737398122,-0.58441379193709,0.0003410654170535709,0.06743315759736808,0.682896849578297,2.46080909820894,6.129257882662168,0.9708638776013769,1.2136863705202088,1.396985273166873,1.643342500446039,1.920221872121214,1.730241977732301,2.98504228336361,0.9374847745567124,Relax,,,,,,,,,
101.24269845290297,593.18,48.68894882181928,,,,,,,44.68226774129812,44.90231500956151,0.08208123810954396,0.07532665926244668,587.5,47.4432,0.0807543829787234,67.0,1.0896704953230907,554.8,631.0,18.0,48.0,490.0,730.0,9.090909090909092,85.9375,,,0.02432904003188238,0.004238637949274125,0.00830911322938408,0.036876791210540584,5.739824991669499,0.6597385302040149,0.11494053061923092,-5.463513299725116,31.75073143423544,61.21869159309971,0.5186443977808607,6106.43376123571,1.9281033484189358,4.492757760468215,472.14385698592685,0.59,0.6020408163265306,0.7966101694915254,0.3333333333333333,51.31061598951507,51.28938681656186,51.33255023796146,54.08163265306123,0.5689335910226961,0.43106640897730375,23.952759629686742,20.849558307855183,0.37944764268639897,0.6205523573136011,37.71029874000122,48.22511347120833,0.4196238977854412,0.5803761022145589,31.589565721434735,37.15081190864859,0.8662069744906818,1.391979829064044,1.1885270682833,1.31098640340026,-0.12512437280379451,-0.6220505552610835,-0.41202506490392116,0.0008103554222654882,0.1435235267901614,0.739051246302322,2.3136349291806306,6.16120956470982,1.0295986805640394,1.1899691144442144,1.5249716054227056,1.6450406978649497,1.9331921352167618,1.7416234970220221,2.5800008617706336,0.7972627427729669,Relax,,,,,,,,,
101.586695518337,591.06,47.423051974602586,,,,,,,44.195045199682966,44.41694005677813,0.08023390514432137,0.07477251920225184,585.0,42.2541,0.07222923076923077,57.75,1.0730400152400517,555.0,625.0,17.0,47.0,490.0,730.0,9.090909090909092,85.9375,,,0.022424278785132742,0.00685796756426757,0.012640164830173814,0.041922411179574126,3.2698140629843664,0.534899547859464,0.1635871451880845,-4.98234415457237,31.40751951370421,59.52151510729463,0.5276666673737792,5872.96602574951,1.8951358155273388,4.4758275984818825,451.2054202971425,0.61,0.6185567010309279,0.8166666666666667,0.38095238095238093,49.14112495789828,49.130130702837896,49.164107998853716,55.670103092783506,0.5575356705125486,0.44246432948745124,23.453057761565912,20.89307081697818,0.3765260303703413,0.6234739696296586,36.5234236082492,46.998407298548834,0.4159526473871592,0.5840473526128409,30.692070559307027,36.3687413637285,0.8896860857723066,1.3561244797042635,1.219558059496889,1.3179782221543572,-0.032763118398058566,-0.5328471204406218,-0.42742542138983347,0.0008570987462770997,0.14069821559681553,0.744243740143876,2.176815705705012,6.053660689688185,0.9701704378367892,1.3361377718816434,1.3323493734460106,1.3735195961275435,1.8572136303298241,1.7372291013623917,3.0695950390538824,0.8637013046707142,Relax,,,,,,,,,
102.4976081774319,585.990099009901,45.27328021018688,,,,,,,48.558933266701814,48.80256968726963,0.07725946272246136,0.0828664739365867,581.0,38.547599999999996,0.06634698795180723,52.0,0.9323367949936414,554.0,618.0,20.792079207920793,49.504950495049506,490.0,730.0,8.416666666666666,125.0,,,0.041860215859348064,0.014856153602156391,0.029053058780645173,0.08576942824214963,2.817702144199155,0.48805520471893177,0.17321036069184892,-4.209341115583165,34.5086279651974,51.96446872720831,0.6640812233904139,5633.5746910511225,1.5058398954492036,4.45775416661549,313.00068062101116,0.6138613861386139,0.6262626262626263,0.8225806451612904,0.4,49.53214609115605,49.554319835722104,49.50697232440471,56.56565656565656,0.593463869345242,0.40653613065475813,26.584817570420253,22.00321372303178,0.275653453997797,0.724346546002203,27.282754232946377,44.22620638903654,0.3729186941360394,0.6270813058639606,26.936046515662603,34.9292051563378,0.7526998605294368,1.2377971762570645,1.0522012803748175,1.1435395969541835,0.047409349834287795,-0.49075915175889806,-0.42620897968473237,0.0007215972201058703,0.11688965421786111,0.7346431440377605,1.8632184332102002,5.982323735162781,1.0506331502238273,1.3239362331498647,1.3828724128845746,1.5333471821268012,1.8604113397499866,1.7994436683651973,2.426681348409576,0.9888432895175933,Relax,,,,,,,,,
103.40085794452396,580.4950495049505,37.79619657118325,,,,,,,47.09299310937881,47.329341487670895,0.06511028234162558,0.08112557230167593,581.0,34.099799999999995,0.05869156626506023,45.0,0.8025864162721046,554.0,608.0,21.782178217821784,48.51485148514851,490.0,730.0,7.769230769230769,101.5625,,,0.04719352829932248,0.019379801504626603,0.02809709843430323,0.09467042823825232,2.4351915208241848,0.498503378273022,0.204708079019717,-3.9435239148512986,33.46689831502589,41.83161230312296,0.8000384511243761,4398.149024167798,1.2499399230056973,4.350240050602129,209.14800904547877,0.6633663366336634,0.6770833333333333,0.8461538461538461,0.42857142857142855,49.55094456488076,49.53156588769755,49.57904753980421,54.166666666666664,0.5704069439747493,0.42959305602525083,25.276451291646737,21.935741785423343,0.40243395268470794,0.5975660473152922,26.53700528497798,32.33683871969921,0.4679897462391641,0.5320102537608359,25.914394063858982,27.630127633261175,0.672906694781317,1.9236932408417848,1.073943765710315,1.4530111463114346,-0.9714230116668414,-1.6272466999475819,-0.30294811430784874,0.001810359052031308,0.28852445493199025,0.6155789587343268,1.7414976344471667,5.912823240027594,1.1282387699627372,1.3296811248642564,1.3507069370306586,1.5745081468965232,1.7957983492084741,1.8182799939865604,3.3249010225792737,1.0547661754854327,Relax,,,,,,,,,
103.60265707468106,579.5294117647059,36.22064010957817,,,,,,,44.40185528190514,44.62320135321872,0.06250008951104638,0.07661708686483835,580.5,28.1694,0.04852609819121447,37.0,0.8157460961848362,555.0,601.6,18.627450980392158,43.13725490196079,490.0,730.0,6.8,117.1875,,,0.026097249022929307,0.016965081240853306,0.023607321888958147,0.06666965215274076,1.5382920159607012,0.39144120570991253,0.2544648230950141,-4.07659809202453,31.553368275113677,40.373116239045565,0.781544037579092,4002.0994018672372,1.279518430077973,4.309257981155116,206.63258523015637,0.6568627450980392,0.6701030927835051,0.8615384615384616,0.36363636363636365,50.16778523489931,50.128017976282635,50.214669400629106,53.608247422680414,0.5674403889033968,0.432559611096603,23.7687820470465,20.75246973254027,0.4044408306708606,0.5955591693291395,25.67555080091753,31.156935117578367,0.46624959585787384,0.5337504041421264,24.74054272778284,26.470923726997025,0.6771532793108942,0.5810548445778853,0.9030693574606281,0.7776505980431672,0.5061733885894117,-0.11838622804545995,-0.7158466805462623,0.0008952843121456362,0.03620509835406229,0.6793204902150909,1.4712875739532834,5.878369278641191,1.0716400077046764,0.8715286492001632,0.8546947413062286,1.219991364721413,1.7074191282040565,1.818235790970395,3.270276565085426,1.1120708903285825,Relax,,,,,,,,,
104.10730246786322,577.5098039215686,40.71362072860211,,,,,,,50.37709286122528,50.588041086704465,0.07049857933516815,0.08723158034571994,576.0,26.686799999999998,0.04633125,35.25,0.8081772570869995,552.2,597.8,21.568627450980394,41.17647058823529,490.0,740.0,7.285714285714286,117.1875,,,0.03790078838103101,0.013318856057127652,0.021440743079913383,0.07266038751807205,2.845648921984423,0.5216155552652998,0.18330284921498655,-4.318574499154953,35.77114689935241,42.255853188793516,0.8465370877622964,4748.644001905254,1.1812831528071164,4.383539722415293,199.66450991765058,0.6666666666666666,0.6804123711340206,0.8787878787878788,0.34782608695652173,53.10872894333845,52.7722656433731,53.4893809279503,53.608247422680414,0.6400205990098431,0.3599794009901569,28.640181563670296,21.479175961847325,0.41006609275012346,0.5899339072498764,27.059128499517797,32.455518691887434,0.5061523677201969,0.4938476322798031,27.86087252001825,27.520135297264208,0.8061997709748365,1.3099989085449795,1.1576785734037385,1.1601620007377351,0.19298344942005308,-0.15528158312908724,-0.4981042523640306,0.0010735384260160002,0.1386437979055653,0.7465453418998793,1.3975939163738236,5.874542224469002,1.0410029784456691,0.9619922563603228,1.264574615566429,1.4582343595339966,1.6770240400926877,1.853843181364799,2.511887958005361,1.0466549556033717,Relax,,,,,,,,,
102.8505108929226,583.4705882352941,42.38828202600219,,,,,,,44.212918680152995,44.429554876620735,0.07264853255792289,0.07577574529313448,581.5,29.651999999999997,0.05099226139294927,38.5,0.9587306898386267,557.2,606.6,18.627450980392158,42.15686274509804,472.0,730.0,7.285714285714286,132.8125,,,0.03996462535886094,0.019380769897364595,0.01792354611970338,0.07726894137592892,2.062076252414273,0.517214609741125,0.2508222521526891,-3.9434739469223867,31.416439538358365,51.0190335284609,0.6157788057829975,5035.4590030763275,1.6239597573164986,4.409009174408031,331.4114292296067,0.6176470588235294,0.6288659793814433,0.8360655737704918,0.28,49.02155887230515,48.90708013455776,49.14224902429509,54.63917525773196,0.5744024555165549,0.4255975444834451,23.812391732037334,20.4971949300386,0.4752420187022283,0.5247579812977715,35.171398993027736,36.958280196073325,0.5025079800083775,0.49749201999162246,30.033791861224852,29.883519496969107,0.9770976595134967,1.101013375914427,0.9631334745984317,1.4636473246498465,0.041377698383453065,-0.8307082559748193,-0.04540620395667593,0.0012528782152980578,0.12081997330970859,0.7245757426704307,1.3981288187668934,5.858761435503937,1.0372344091480978,0.9232366069537603,1.1687568893961122,1.3367336182415366,1.6305577762227752,1.784804669876227,2.8587205839067806,1.0466549556033717,Relax,,,,,,,,,
102.23839476696519,587.6138613861386,42.34594910898319,,,,,,,43.05194536835705,43.243602901691624,0.07206424472202232,0.07326570763119955,586.0,32.6172,0.05566075085324231,42.0,0.9836012925006459,558.0,611.0,17.82178217821782,39.603960396039604,472.0,730.0,7.769230769230769,140.625,,,0.04255494357737814,0.033121109106626315,0.01801285853948536,0.09368891122348982,1.2848284591068984,0.4542153710791412,0.353522190343505,-3.407584462506862,30.577844854724404,50.75176018244256,0.6024982137526479,4875.373076118848,1.6597559580658674,4.394977964601537,336.9421453805564,0.5841584158415841,0.5979381443298969,0.7931034482758621,0.19230769230769232,52.56365538890828,52.48087151416948,52.64696105022425,54.63917525773196,0.6265922836625356,0.3734077163374642,24.21880478162589,18.696134748804486,0.48770989962190947,0.5122901003780906,35.44311588142101,36.32529006398053,0.5247296229382951,0.4752703770617051,30.354282798596504,28.888338069000934,0.8880338882934641,0.5178309125598664,1.0891184850297047,0.9296264463794948,0.7030064033402086,0.17138909060689622,-0.8080002270659558,0.0005004308567281803,0.026814212690483542,0.6662924001760322,1.3375041969504589,5.9910423937888835,1.062207245797228,1.089074188777543,1.0875928231071323,1.2342299216870931,1.6490403588922837,1.7771190893777693,2.329528992126219,1.0547661754854327,Relax,,,,,,,,,
101.5953892412713,591.21,40.81327150956085,,,,,,,43.49631355562553,43.70747336783918,0.06903345936225849,0.07357168105347596,589.5,31.1346,0.052815267175572514,42.0,0.9383156450113076,562.0,620.0,19.0,40.0,472.0,731.0,7.6923076923076925,140.625,,,0.04519152984302394,0.03639392439470492,0.014842965167621567,0.09642841940535044,1.2417328055338548,0.4686536409256589,0.37741907021951626,-3.3133534305042205,30.905850806929507,48.63451785029448,0.6354715163839622,4722.100123149406,1.5736346542962656,4.381105301190376,306.13185073685486,0.6,0.6145833333333333,0.8305084745762712,0.19230769230769232,51.633298208640674,51.55455277835615,51.710143077314626,54.166666666666664,0.6194093998430333,0.38059060015696666,24.32937252267182,19.070893518444194,0.4891661142292072,0.5108338857707928,34.01518185122464,34.76037586331209,0.5266443523672327,0.47335564763276716,29.571531611660063,28.03553735663512,0.9678620533024284,0.7455745108380714,1.1463429127999905,1.25081565742895,0.1420402471552542,-0.5801946950053702,-0.35987618526346116,0.00045125677754867093,0.03967439270935224,0.7332004386032205,1.3553321355159238,6.032662034987087,1.0066937332216763,1.0227994655967236,1.072246722715298,1.2345507794449555,1.6440875426468695,1.8233770216748437,2.490437525020905,0.8637013046707142,Relax,,,,,,,,,
101.78490293413186,589.71,37.71003001372929,,,,,,,38.59920970562726,38.79460313929656,0.0639467365547969,0.06545456191285082,589.5,31.1346,0.052815267175572514,41.5,0.9769637850443259,562.0,618.2,18.0,39.0,472.0,702.0,6.666666666666667,132.8125,,,0.02898978279525163,0.025758841551352017,0.00809631197261624,0.06284493631921989,1.125430378437575,0.46129067022995257,0.40987934844122326,-3.6589773495898106,27.431926953237518,45.95371327947651,0.5969469058224932,3960.2882619384195,1.675190859096869,4.3046969085168225,307.9249617093498,0.59,0.6041666666666666,0.8275862068965517,0.15384615384615385,50.537221795855714,50.48879413435843,50.584237971122846,51.041666666666664,0.5572677966101693,0.4427322033898306,20.478585131292437,18.253179762128337,0.5539553369314911,0.4460446630685088,34.20251055690301,30.690911289456267,0.5548256366383054,0.44517436336169464,28.18850986993329,25.249857496685458,1.001634936650334,0.48561836071229014,1.2350367702978902,1.2444441170064793,0.5980324940571791,-0.4061940028697397,-0.48062810744060297,0.0018716062252949108,0.05144623856258579,0.626214123412089,1.2447947988461912,5.97101406462328,1.0279414920338716,0.9930125535908388,1.023005666192093,1.172765418290591,1.655172034257516,1.8227373569398744,3.0458052594825613,0.9301398665684615,Relax,,,,,,,,,
101.10777404940481,593.5252525252525,38.399974339474696,,,,,,,41.18623705133766,41.39455716042738,0.06469813066267287,0.06939256059637551,594.0,29.651999999999997,0.04991919191919191,40.5,0.9323496655353594,565.4,620.4,18.181818181818183,37.37373737373738,472.0,702.0,7.615384615384615,164.0625,,,0.054739852668940846,0.042309683455025254,0.020301069581896956,0.11735060570586306,1.2937901728130092,0.4664641681198066,0.3605408186905624,-3.162739295842193,29.270372072352355,45.50941297656907,0.6431718222210968,4184.844732875754,1.5547944817399664,4.328649459290784,283.0311366527792,0.5959595959595959,0.6063829787234043,0.8421052631578947,0.15384615384615385,49.00076863950807,49.09523449663072,48.90723114459416,52.12765957446809,0.4804737785584523,0.5195262214415477,20.2907982801407,21.09929885970465,0.5584251421874278,0.44157485781257205,34.00820542729626,30.24150513924083,0.5356122320739354,0.4643877679260647,28.002451064420626,26.074211833321666,0.9468361657889115,0.8962450439745349,1.3893719503616158,1.394958687776179,-0.09024973683732895,-1.0843018621480671,-0.49376650676941214,0.0015995746448300406,0.09553635470886283,0.6097594991519921,1.248672983243843,5.928507347501285,0.9322155804963234,0.8028904653808254,0.9847905648447924,1.2402042437919374,1.628372325288253,1.8207531345882313,2.3298121151350335,0.9374847745567124,Relax,,,,,,,,,
100.32246283796054,597.9090909090909,35.88675240453937,,,,,,,37.88058573346252,38.05340793766182,0.06002041606354464,0.06335509245371564,599.0,29.651999999999997,0.0495025041736227,39.5,0.947365298336402,573.8,623.0,18.181818181818183,34.34343434343434,472.0,702.0,8.25,171.875,,,0.06329151470625237,0.044954738412113955,0.01903412549940972,0.12728037861777605,1.4078941829455114,0.497260578524183,0.35319456856043285,-3.1020991084453478,26.907822799978664,42.27664542723139,0.6364701486614806,3573.789357822965,1.571165595280526,4.260099061200508,265.6944431165589,0.5858585858585859,0.5957446808510638,0.8392857142857143,0.07407407407407407,47.436940602115534,47.32264760523376,47.549931888364824,54.25531914893617,0.5246899533507794,0.47531004664922066,19.50204853104454,18.56168317998739,0.5359428152258104,0.46405718477418956,30.949935348050296,28.799587679884425,0.5326959084037411,0.46730409159625885,25.867241783341626,24.22759101732545,0.9221481046714064,1.1121478980188546,1.1898647501324384,1.330298107203715,0.08412604051903827,-0.5172854881358524,-0.3737278042592715,0.0008753768747615894,0.10209719032651686,0.6984759951867039,1.3449091449570363,5.941084241418826,0.994436349538431,0.9605784559742654,0.9929137549479687,1.2120043457811898,1.6190595510958359,1.819551802341172,2.403321434931279,0.8705215763740901,Relax,,,,,,,,,
124.50082587969041,483.4016393442623,62.38161148796811,,,,,,,85.08143886694337,85.4295014881739,0.12904716577417735,0.17600568955942503,469.0,47.4432,0.10115820895522387,73.75,0.7331988306582952,438.0,530.4000000000001,31.147540983606557,54.91803278688525,347.0,720.0,8.714285714285714,109.375,,,0.04831454813629736,0.016740806209526365,0.026184030110559073,0.0912393844563828,2.8860347304423093,0.5295361035605654,0.18348223532272237,-4.089906054415838,60.40777981567401,64.24757662300091,0.9402343713311011,12192.689045454219,1.0635646073906955,4.7930696079355535,273.32579442738233,0.6885245901639344,0.6974789915966386,0.891566265060241,0.36,49.07937490329569,49.297749637130615,48.86478144155625,49.57983193277311,0.42922202395019543,0.5707779760498045,39.57882430458658,45.64103599466894,0.5491494466998317,0.45085055330016843,47.61042148247153,43.13929610215942,0.49287240317934455,0.5071275968206556,43.77919350029144,44.40778667562961,0.3160538669374953,2.5927023784337515,0.8606707521608893,1.3679868060587637,-1.3076481671179163,-1.807496646409792,-0.3043292365071446,0.004319728642203645,0.5834045596766196,0.6282600091673451,1.052092273033217,6.192711927584956,0.854890942879254,0.8349942547644208,0.8245237008949107,1.1247124747126453,1.5406388493927665,1.9326033779453677,3.3663670100675573,0.7953305141465608,Stress,,,,,,,,,
127.08887188634078,474.0403225806452,61.82277308112126,,,,,,,88.64499398922419,88.99890230496518,0.13041669692688176,0.18699884749602422,459.0,37.065,0.0807516339869281,59.5,0.6974197898714566,434.6,515.8,33.87096774193548,57.25806451612904,347.0,720.0,9.538461538461538,109.375,,,0.020215870949730992,0.015418537048346146,0.0131365654659268,0.04877097346400394,1.3111406669998842,0.414506201412026,0.3161416710233598,-4.172184788995852,62.93172733799993,60.42216258604153,1.0415338452738225,11945.815150841834,0.9601224238057254,4.784185900166039,232.05069277477526,0.7016129032258065,0.7107438016528925,0.9186046511627907,0.37037037037037035,48.905845090699685,49.01525751866531,48.78779380282951,49.586776859504134,0.44087484454634446,0.5591251554536556,41.78972538245476,47.06156588562005,0.5489536423263809,0.45104635767361917,44.76762971489723,40.579515291386706,0.49271110855999095,0.5072888914400089,43.304282801076,43.94023238952227,0.38038830944755553,2.3435608081233434,0.8949032991703503,1.2475580351414925,-1.0578095662049307,-1.4163813577567672,-0.349521832440295,0.00289048276250455,0.4365289516025674,0.6199434969982351,1.1260112628562242,6.234162338490549,0.8821302461944915,0.8218145779556637,1.0947160811558498,1.2262975806836605,1.538189909117952,1.9407034092021098,3.7904107863280387,0.8973156529531452,Stress,,,,,,,,,
128.86821360432174,467.40157480314963,60.758337313128216,,,,,,,89.43051749999806,89.78748419161948,0.1299917257204731,0.19133550745451067,454.0,35.5824,0.07837533039647578,46.0,0.6793915434194993,431.2,493.40000000000003,35.43307086614173,61.417322834645674,347.0,720.0,7.470588235294118,109.375,,,0.019958771212344094,0.0204071520034637,0.017419372356448783,0.057785295572256576,0.978028252494836,0.34539532963687986,0.3531547567831672,-3.891869851168638,63.489338937574075,58.31529326490117,1.0887253648741755,11631.43081645159,0.9185052835758727,4.772603251815615,214.25161990835292,0.7244094488188977,0.7338709677419355,0.9230769230769231,0.4230769230769231,49.92526158445442,50.09976893956177,49.73555278530769,46.774193548387096,0.44050509811704586,0.5594949018829541,42.138248658433824,47.489662032909855,0.5910033624379195,0.4089966375620805,44.83089817122787,37.29428907664585,0.5093728087628784,0.49062719123712184,43.5054101856252,42.69737695533782,0.40949581162705756,2.2394107570079336,0.8784279479476821,1.3456619904887812,-1.0286167367421086,-1.6686307933278763,-0.29135848969245454,0.0033760491074125783,0.44430176579723035,0.6463846197966587,1.1128778658269323,6.244359292969171,0.9649325493481632,1.178627810638164,1.13609804578281,1.2118061995998615,1.5035237471676797,1.9608512076695719,3.621923541645646,0.8804642125067295,Stress,,,,,,,,,
130.4871955721721,461.6484375,60.296719050442796,,,,,,,87.93241857370053,88.27893281385234,0.13061176894039156,0.1904748536567949,448.5,32.6172,0.07272508361204012,46.0,0.6857165995031186,426.4,483.6,33.59375,60.9375,347.0,720.0,6.7368421052631575,117.1875,,,0.02708174544681598,0.013879710129624552,0.013697241946527404,0.05465869752296794,1.9511751465913751,0.49547001070481156,0.25393415428152505,-4.277327208154366,62.422632028586605,58.39077625923447,1.0690495319235374,11450.80972505256,0.9354103529709267,4.765806308138868,218.4773465235877,0.6953125,0.7040000000000001,0.8977272727272727,0.37037037037037035,49.51469772601221,49.645612286418505,49.36916401504167,47.199999999999996,0.43726743368996046,0.5627325663100394,41.27852549046134,46.82757124356791,0.6009537151001121,0.399046284899888,45.265233087634606,36.8855178312314,0.5136524164175926,0.4863475835824075,43.31776767762022,42.15069901110489,0.40799719916390914,1.2488033716298714,0.7943865978944036,0.7986912135758089,0.30045726286746444,-0.2287896800743312,-0.49655300763979593,0.0017210757739888098,0.15484989743448277,0.6414457567459029,1.0960448931628637,6.265319531114781,0.9556015509537151,0.8075325439429566,1.2043349596740809,1.311501337845689,1.4959932591624818,1.9537524237117154,3.3805549452557146,0.9296875,Stress,,,,,,,,,
131.46705522440888,458.1085271317829,61.39157621241665,,,,,,,89.57438424292963,89.92633926499155,0.1340109877386244,0.19553092539829975,445.0,32.6172,0.07329707865168539,46.0,0.6853697821234253,421.6,483.4,38.759689922480625,62.7906976744186,347.0,720.0,6.45,117.1875,,,0.010812980150399493,0.012556561225405494,0.006055873785163976,0.02942541516096896,0.8611418330459585,0.3674707762404746,0.42672503197375494,-4.37751194321499,63.58752430155762,59.61228048808532,1.0666849813649864,11908.512737863004,0.9374839033735596,4.782827635502367,223.54221360387885,0.7054263565891473,0.7142857142857143,0.9111111111111111,0.32142857142857145,49.96736718444067,50.12035683130021,49.79120360035621,46.82539682539682,0.44512603004624085,0.5548739699537594,42.42417970476326,47.366264282989256,0.5926083165961145,0.4073916834038856,45.89016373429706,38.048874588213046,0.5141133577767335,0.48588664222326655,44.19116513050228,42.960911591559295,0.3577252915117461,1.2376252582972787,0.7161874801812406,0.668469412946181,0.4988515792458754,0.202354049231389,-0.5385561517229456,0.0015206243847797815,0.1464726820551071,0.6826426633429081,1.1517221139820581,6.307397894807199,1.0470885582308536,0.8159008515926138,1.112026198173278,1.2692482915612857,1.53337812269836,1.9801852605273684,3.2862214436112303,1.0326613787057506,Stress,0.03801945664244786,4.04006387719409,2.698282605846172,1.5198832494900891,-0.9510904034932839,-0.7234984317021773,-0.7916783972174486,0.024448345153825643,1.7635238166553655
132.85080262113507,453.6,60.73166294216659,,,,,,,89.65441834445289,90.0005174672893,0.1338881458160639,0.1976508340927092,442.0,29.651999999999997,0.06708597285067873,42.0,0.6773973225595544,417.8,478.8,36.92307692307693,60.76923076923077,347.0,720.0,5.909090909090909,109.375,,,0.004674272510847012,0.017934641972052856,0.007466137782404582,0.03007505226530445,0.2606281473659092,0.15542026226964878,0.5963295363161459,-4.021021130725561,63.63997621141857,57.80109331216318,1.101016824504022,11556.22355146118,0.9082513343522,4.769786044503537,209.99168051115294,0.7153846153846154,0.7244094488188977,0.9239130434782609,0.35714285714285715,49.34116112198304,49.43372273853191,49.23029925549502,48.031496062992126,0.44500145145439596,0.5549985485456042,42.45484733808379,47.412460453450414,0.5858258724623258,0.4141741275376742,44.24053061577233,37.1986806071977,0.5086557836999427,0.49134421630005737,43.35688302717971,42.612693209689915,0.36156323791743616,1.3435057524271774,0.7500850459192966,0.7361047963188205,0.4030627060153611,0.06162361573472008,-0.5104057980959289,0.001810009711654973,0.175594048110492,0.7318816127218812,1.2072461296709054,6.2462612515701394,1.0294228457704049,0.7264265798158256,1.1972754652115922,1.2535253426781756,1.4883967328528664,1.9836732354976878,3.590626687885767,1.0263460649810818,Stress,1.030158159224032,2.4824961797325638,3.2087648725712103,1.9675167827049285,6.472537610988615,5.472537610988615,-1.0,0.005953017247410433,0.5331856950646796
132.64456459492,453.9846153846154,60.95480402373429,,,,,,,90.98956410047143,91.33723397430819,0.13426623272705712,0.20042433381445127,440.5,29.651999999999997,0.0673144154370034,40.5,0.6699098366536572,418.0,478.8,39.23076923076923,64.61538461538461,347.0,720.0,5.909090909090909,117.1875,,,0.004401983106552719,0.02489743997843139,0.009969801616322771,0.03926922470130688,0.17680464780178803,0.11209753031885605,0.6340191375767804,-3.692990292908192,64.58517751805564,56.67715717419882,1.1395274699391027,11499.81328321299,0.8775567297675069,4.7676608989477,198.9496828092356,0.7307692307692307,0.7401574803149606,0.925531914893617,0.38461538461538464,49.076183244748165,49.24772297297159,48.89274858379957,47.24409448818898,0.4398241954149983,0.5601758045850015,42.83571450904023,48.34244705742563,0.617012443744685,0.38298755625531494,44.51998610425539,35.07521892484413,0.5169053345086828,0.4830946654913173,43.68596800016621,42.23306270048233,0.3110318374395211,2.621635267345969,0.8418167767891007,1.2821921225249744,-0.9423651345991608,-1.21692986850204,-0.3320226496717482,0.005150411944221295,0.6176909372855481,0.7508605517365421,1.2726147370480994,6.233680697543986,1.043898904913645,0.8322299726478545,1.2133087504327538,1.2632405690507367,1.4814062123070295,2.043521139765718,3.842239203149462,1.0803642789274546,Stress,0.20555094138445534,0.7417128581927619,-0.5293152015832633,-0.15845877248688234,1.0,-1.7678316319726606,0.0,0.0003791461528852926,0.04237711695449682
133.7150127234175,450.1136363636364,49.57601114785666,,,,,,,76.64805062180079,76.94214831111296,0.11014110025274895,0.17028599986666168,441.5,29.651999999999997,0.06716194790486976,40.0,0.6468006784996551,418.2,472.6,35.60606060606061,61.36363636363637,347.0,677.0,5.5,93.75,,,0.007663869137835583,0.04260282619622341,0.01326469351649235,0.06353138885055135,0.1798910969553226,0.12063122302998533,0.670579173020136,-3.1558346852730352,54.40631482984903,44.55151339584601,1.2212001497332274,7614.8551118550395,0.8188665881006084,4.5886317543744335,145.92698307669988,0.7121212121212122,0.7209302325581395,0.9247311827956989,0.2962962962962963,49.86141502552881,49.987313391133256,49.717912114806914,48.837209302325576,0.45363720821449677,0.5463627917855032,36.64413060358108,40.21523821408229,0.5834170335869073,0.41658296641309267,34.02922150849613,28.7549896432941,0.5057296878627238,0.4942703121372763,35.36085564693396,34.957937682315695,0.2801365217487317,1.6838287622939572,0.7049991323175363,0.6172896014751735,0.2312120191544631,0.4410098943330576,-0.5520893411529995,0.0015518693313703806,0.21842985430022113,0.7258357099073298,1.5976034547870974,6.19409994543779,1.1925157410519014,1.2408340793400132,1.404927648069761,1.7794401640715427,1.551419980469062,2.038433388809915,3.691713690388587,1.0673324423270385,Stress,0.43716308823207,3.5807556545339114,2.7353481606206103,1.765143200708149,-1.0753840173449802,-1.1430124043280374,-0.7709497808609194,0.01628785808187934,1.2631552018761507
134.43467013874383,447.6818181818182,41.968784870891945,,,,,,,63.754838163961935,63.98248897992143,0.09374690498117806,0.14241105082822242,442.0,29.651999999999997,0.06708597285067873,40.5,0.6582839213387766,418.2,477.00000000000006,30.303030303030305,56.81818181818182,346.0,596.0,5.5,117.1875,,,0.008149798867443079,0.07087734153451869,0.02239993997967344,0.1014270803816352,0.11498454500404708,0.08035131088046892,0.6988009638829359,-2.6468044799558745,45.24245183489598,36.85378180211668,1.2276203315529888,5238.151626724237,0.8145840976215831,4.4261481755852845,120.08201837287974,0.7196969696969697,0.7286821705426356,0.9361702127659575,0.27586206896551724,51.67796904886106,51.723467109961554,51.64457004300298,47.286821705426355,0.5172055672306387,0.48279443276936107,32.54570750380266,31.44439536706025,0.5404480840510707,0.4595519159489294,27.093121898268556,24.983273983279048,0.526473447301608,0.47352655269839194,29.94378342091657,28.398186376277515,0.34025701281461757,1.5096660923910545,0.6977217931224238,0.511159851206189,0.3285148683337962,0.8071680313757665,-0.6235782818840109,0.0008255606398322582,0.14919925524315053,0.7591061154243328,1.9049021253279363,6.182662256011071,1.249939811956038,1.1897976698995174,1.4567952027428688,1.8997836576141034,1.6814709547318036,2.002258547110343,2.802595838573954,1.1740656865597423,Stress,0.07676401878272186,1.422761487916206,0.292094595368015,0.5058425764627901,-0.3159052853520654,-0.5852922120984796,-0.3497654154191136,0.0006447333861548961,0.1287719237430206
133.61104270091894,449.9541984732824,42.38937867608961,,,,,,,64.04613721613266,64.28980115924152,0.09420820790186855,0.14233923682331331,442.0,31.1346,0.07044027149321266,46.5,0.6618569131349907,419.0,483.0,31.297709923664126,56.48854961832062,351.0,596.0,5.24,93.75,,,0.0032576250271329375,0.03684934232417558,0.008810207036280741,0.04891717438758926,0.08840388516230646,0.06659470968869835,0.753300712592357,-3.3009175078825685,45.45975436083443,38.99328566271379,1.1658354403384894,5568.866268028226,0.8577539894564017,4.452736898734159,133.78658535682345,0.7175572519083969,0.7244094488188977,0.9347826086956522,0.27586206896551724,50.81568899687608,50.83661419179252,50.79170875561064,44.881889763779526,0.4902896963514162,0.5097103036485839,31.83326230764429,32.45760502611072,0.5438772678492461,0.4561227321507541,28.756781990259288,26.334840351494442,0.5130025930398233,0.4869974069601765,30.33404934708345,29.555202083302593,0.38508259108715304,2.692884603198986,0.8789321379561392,1.2739947664072973,-1.0951913108682447,-0.9773437705776863,-0.35329388864942546,0.004274720643672663,0.5706167090803309,0.7474802107841856,1.817467825938262,6.144083356773955,1.2739803752431176,1.298258490599416,1.3853996263667625,2.0196008238089127,1.6409923680276468,1.988218525840803,3.308581425560832,0.9664245345623977,Stress,0.10164410140978329,0.8952218952837492,0.4608227970641826,0.01321184942230802,2.0123411459649603,0.44438981950826495,-1.0,0.00014850621775429934,0.037310591149896134
132.56488015789208,453.8076923076923,44.504175599555424,,,,,,,67.40396556318784,67.66673886371068,0.09806835880908898,0.14852979952901804,446.0,40.771499999999996,0.09141591928251121,55.0,0.6602604939888143,420.6,490.2,33.07692307692307,60.0,351.0,596.0,6.190476190476191,93.75,,,0.003028118152436862,0.020767992689097552,0.005563142479727954,0.029359253321262366,0.14580697315184027,0.10314016229574402,0.7073746890578138,-3.8743422904877947,47.847609911309114,41.21903200957297,1.160813526630045,6195.950079216369,0.8614648064130486,4.499078019951444,142.0349817226401,0.7153846153846154,0.7265624999999999,0.9247311827956989,0.2962962962962963,49.95936941329432,49.96282662928743,49.95734546907529,46.875,0.4861991008130219,0.513800899186978,33.363176744728605,34.29712770408041,0.5156313316446594,0.4843686683553406,29.598345676638747,28.687044689413398,0.4987368538062082,0.5012631461937919,31.53699121106672,31.616763763566958,0.34217979451993774,3.0187029735416466,0.8596477008296899,1.4857717136408688,-1.4292111341703517,-1.557908918501146,-0.29258508760251145,0.007700231687497317,0.8193126578677772,0.7051813667441564,1.9183221925364844,6.291448197577271,1.3117607002344918,1.204178701339724,1.3688476075565925,1.745437287530681,1.768166218756694,1.992420497590914,4.123578495765925,1.0263460649810818,Stress,0.254817465493794,1.8331682775107683,0.523691884237216,1.1634677458620468,-4.168553613674584,-5.168553613674584,-0.15099992757153047,0.0012096645392786233,0.20275484157427037
132.56800046242262,453.5,42.69546932374902,,,,,,,61.21869552816805,61.45598175766497,0.09414656962237933,0.13499161086696373,446.5,37.8063,0.08467256438969765,55.0,0.6974253364171067,422.0,490.0,28.46153846153846,57.692307692307686,351.0,596.0,7.222222222222222,117.1875,,,0.003960168351527698,0.016664588899198987,0.006655844342037197,0.02728060159276388,0.23763972669725145,0.14516426032841312,0.6108585561258015,-4.094469236041619,43.455941445321656,42.04602786592718,1.033532622484347,5740.160152911827,0.9675553323089664,4.465894119529724,162.72743385635692,0.7384615384615385,0.75,0.9479166666666666,0.3333333333333333,50.4831358249772,50.47585941853223,50.488328210214384,47.65625,0.48627489104511884,0.5137251089548812,30.303993651827476,31.147582169407627,0.512621602763776,0.48737839723622406,30.10394597196662,29.35337963879526,0.4990136156598665,0.5009863843401333,30.204135431535576,30.263780094522563,0.4255091702654997,2.1146216778310816,0.8883157571583262,0.8560828504196416,0.08322622582051853,0.6800603716034835,-0.5152428716098972,0.002357177125230162,0.33145496828215226,0.7403760084875692,1.7107904066943878,6.212489255219653,1.2707399607461491,1.477961851271536,1.2386413597032893,1.582156546561573,1.7604297702993164,1.9343277158101257,3.8964148498719227,1.0263460649810818,Stress,0.5002139143517182,0.7416565443461015,1.1638166453982848,0.8710421865247691,-0.16643353206974965,-1.1528956067206044,-0.8947574670586196,0.0007066911803937399,0.06823959914508827
130.43757388609907,460.4296875,48.8964329880687,,,,,,,59.66309612624942,59.89652995551921,0.10619739412017976,0.12958134053041362,452.0,45.2193,0.10004269911504424,62.25,0.8195423329121566,422.0,497.6,30.46875,60.15625,351.0,614.0,8.0,117.1875,,,0.014999655944849585,0.01681157419673975,0.0057595450833141095,0.037570775224903444,0.8922219757242277,0.39923732888288127,0.4474641285973879,-4.085687689501209,42.35324250109081,53.37167608408038,0.793552790704354,7101.455650590581,1.2601556086929067,4.558317489134763,269.0264678507798,0.7109375,0.7222222222222222,0.9340659340659341,0.34615384615384615,49.325309992706046,49.50614760597906,49.12558455224022,48.41269841269841,0.4472150946735092,0.5527849053264907,28.32471857829628,31.490928398962314,0.4758112633788961,0.524188736621104,36.815287878759314,38.64156293976829,0.4647610589724901,0.5352389410275101,32.845510379164494,35.24804219993393,0.6025727592178113,2.4090910558104404,0.584517622386254,1.681007356762166,-1.0671804507599205,-1.8149585900381893,-0.04485334552577027,0.0070086016361925645,0.6118173062007325,0.6548348542675573,1.513556140730818,6.2830122069467365,1.2598047714853093,1.202389918710099,1.33884409152811,1.6983071941007233,1.8053614010666537,1.9266543828133473,2.7906630283939253,0.984375,Stress,,,,,,,,,
128.78521484796238,466.8346456692913,49.55528639003966,,,,,,,55.344304706916894,55.53833110764332,0.10615168957520978,0.11855226517640072,458.0,47.4432,0.10358777292576418,67.5,0.8953999269205071,427.2,503.6,25.984251968503933,55.118110236220474,378.0,653.0,10.583333333333334,85.9375,,,0.028692600380821692,0.014405157732289923,0.005411583379362014,0.04850934149247363,1.9918282683226516,0.5914860828459904,0.29695636529151664,-4.240168960676374,39.27153054199837,55.86916831539528,0.7029195480466232,6892.867124419907,1.4226379146503294,4.545370016529759,317.9263884218488,0.7086614173228346,0.72,0.9111111111111111,0.36,52.170434086817366,51.909902367199464,52.484430006843894,48.0,0.5076890787874705,0.49231092121252945,27.99542819818979,27.568170051709995,0.5939285549397466,0.4060714450602536,43.05655804991932,35.601920975530184,0.5653907578328206,0.4346092421671796,36.31536307890967,31.839447051950323,0.6105951194446341,1.7720200135348003,0.992980082725283,1.259171077888538,-0.13581851704626935,-0.6494851001881079,-0.34978104472293126,0.003038680623545689,0.3010642400287443,0.6407263250073116,1.4816045409242156,6.4039235646738195,1.230273755802465,1.1896263873588095,1.3967972093834269,1.6353952005480843,1.8481669815214103,1.8817189300154775,2.8462344048347648,0.9905222390700708,Stress,,,,,,,,,
126.82187927517148,473.8,50.72172659114728,,,,,,,55.949069582047336,56.17532955082901,0.10705303206236234,0.11808583702416069,473.0,51.891,0.10970613107822409,71.0,0.9065696171545026,428.0,513.6,27.200000000000003,54.400000000000006,378.0,647.0,11.363636363636363,46.875,,,0.025592665737635134,0.010849134509354952,0.007887636734375559,0.04432943698136564,2.3589592068903915,0.5773289146079904,0.24473882927760854,-4.523669970900408,39.72195646078024,59.98336900157775,0.6622161629456896,7485.337010474916,1.5100809312049561,4.581181468213974,362.31896687485215,0.688,0.7016129032258064,0.9080459770114943,0.3076923076923077,49.64795815731241,49.67848861637354,49.62153148195215,51.61290322580645,0.4832013850065825,0.5167986149934176,27.612151207556124,28.555964165667636,0.49562590147496477,0.5043740985250353,42.228713595903436,42.59976883522489,0.49183826984054063,0.5081617301594593,35.67698940685567,36.264193043865546,0.5977655545532757,2.176635403882325,0.9834738085888333,1.34141555831066,-0.8189706678120388,-0.9976273009935825,-0.33555273010657233,0.0024883631115324247,0.36414227062746346,0.6317287448702125,1.3609765531356002,6.409706084627473,1.1974224074697108,1.3788687178808983,1.2232866510761071,1.7179103467534111,1.8454750568748053,1.8741988592538927,3.9460042834261566,1.0587992112686373,Stress,,,,,,,,,
