PPG_Rate_Mean,HRV_MeanNN,HRV_SDNN,HRV_SDANN1,HRV_SDNNI1,HRV_SDANN2,HRV_SDNNI2,HRV_SDANN5,HRV_SDNNI5,HRV_RMSSD,HRV_SDSD,HRV_CVNN,HRV_CVSD,HRV_MedianNN,HRV_MadNN,HRV_MCVNN,HRV_IQRNN,HRV_SDRMSSD,HRV_Prc20NN,HRV_Prc80NN,HRV_pNN50,HRV_pNN20,HRV_MinNN,HRV_MaxNN,HRV_HTI,HRV_TINN,HRV_ULF,HRV_VLF,HRV_LF,HRV_HF,HRV_VHF,HRV_TP,HRV_LFHF,HRV_LFn,HRV_HFn,HRV_LnHF,HRV_SD1,HRV_SD2,HRV_SD1SD2,HRV_S,HRV_CSI,HRV_CVI,HRV_CSI_Modified,HRV_PIP,HRV_IALS,HRV_PSS,HRV_PAS,HRV_GI,HRV_SI,HRV_AI,HRV_PI,HRV_C1d,HRV_C1a,HRV_SD1d,HRV_SD1a,HRV_C2d,HRV_C2a,HRV_SD2d,HRV_SD2a,HRV_Cd,HRV_Ca,HRV_SDNNd,HRV_SDNNa,HRV_DFA_alpha1,HRV_MFDFA_alpha1_Width,HRV_MFDFA_alpha1_Peak,HRV_MFDFA_alpha1_Mean,HRV_MFDFA_alpha1_Max,HRV_MFDFA_alpha1_Delta,HRV_MFDFA_alpha1_Asymmetry,HRV_MFDFA_alpha1_Fluctuation,HRV_MFDFA_alpha1_Increment,HRV_ApEn,HRV_SampEn,HRV_ShanEn,HRV_FuzzyEn,HRV_MSEn,HRV_CMSEn,HRV_RCMSEn,HRV_CD,HRV_HFD,HRV_KFD,HRV_LZC,Labels
60.24742448453163,997.5084745762712,102.91381946700908,,,,,,,113.10926971982325,114.02012775900698,0.1031708723183786,0.11339178824307294,1012.9999999999999,97.85160000000016,0.09659585389930915,121.0,0.9098619390075742,909.8000000000001,1080.6,52.54237288135594,86.4406779661017,782.0,1246.0,11.8,242.1875,,,0.005579614726911673,0.04645371105698569,0.013578779747492888,0.06561210553139026,0.12011128066963368,0.08503940975102932,0.7080051871641465,-3.069298923329421,80.62440553015034,119.72783021204269,0.6733973662377524,30325.747189288133,1.4850072930741698,5.188781620116629,711.1868041953173,0.7288135593220338,0.7543859649122807,0.9534883720930233,0.4166666666666667,52.528856243441766,52.870823549715794,52.19977540109616,50.877192982456144,0.4651842568072936,0.5348157431927065,55.02654861638679,59.0013380758169,0.4824800567087613,0.5175199432912386,83.16388998991061,86.13083494910383,0.47707895169442827,0.5229210483055717,70.5129550185125,73.82302697589218,0.5461467691778351,1.7957393293669701,0.8319596012468342,0.9098951494914039,-0.6719203165003407,-0.3507379620542441,-0.45659974308629564,0.000255361637667768,0.15692851338682498,0.36391433025736264,1.4213856809311607,5.814846439192349,1.1523194707153677,0.6299994923998176,0.9213587938586364,0.9976223120664994,2.00194570252294,1.9208744709724581,2.4065952445971424,0.9970581439596342,Relax
58.97392475942212,1021.5,93.3637011999545,,,,,,,120.18450727724304,120.99095069622331,0.09139863064116936,0.11765492636049245,1020.5,84.5082,0.08281058304752573,109.75,0.7768364102419791,949.2,1093.8,58.620689655172406,89.65517241379311,806.0,1275.0,11.6,195.3125,,,0.004235013264575723,0.02619455366413485,0.007488049817335457,0.03791761674604603,0.16167533598307623,0.11168985891016847,0.6908280612564175,-3.642203765238875,85.55352169950673,92.49971042425715,0.924905832754598,24861.546331019235,1.0811911489645956,5.102498247225727,400.03947276997985,0.7413793103448276,0.7678571428571428,0.9767441860465116,0.3333333333333333,54.43087829854273,54.45602533789984,54.44586424621052,50.0,0.5085251771473269,0.49147482285267313,61.14108391954745,60.10734445259461,0.5904242330641746,0.4095757669358255,71.07591514912569,59.198063433576216,0.5525768682435088,0.4474231317564911,66.2948635157463,59.65443642944156,0.424214324164831,2.1134254177712406,0.7870129645679863,0.8785313712874177,-0.8631637916305959,-0.4125540950316656,-0.4566966470877671,0.0005050028864037214,0.23373743761491242,0.37955193281773747,1.6094379124341003,5.7545327192655025,1.2026775341817018,1.0018332963081178,0.9985774245179969,1.020278350460487,1.9059536810598054,1.9898658885721554,2.4962868262962075,1.110996395627643,Relax
58.2630710634705,1031.107142857143,83.76779128724152,,,,,,,109.46290363738427,110.36310745994555,0.08124062748234431,0.10616055217508086,1024.0,79.31909999999999,0.07746005859374999,98.75,0.7652619152579537,967.0,1096.0,55.35714285714286,89.28571428571429,806.0,1246.0,11.2,195.3125,,,0.00498570045717975,0.04580882988504292,0.016975317631147707,0.06776984797337038,0.1088371056342488,0.07356812219999137,0.6759470657665211,-3.08327841419419,78.03850167774715,86.39111790297225,0.9033162618105474,21180.094279323916,1.107031991205014,5.032897998920179,382.55092509821804,0.7321428571428571,0.7592592592592592,0.9512195121951219,0.36363636363636365,53.00607971177661,53.26404421517429,52.755600803398195,50.0,0.4627771362498996,0.5372228637501004,53.14010133948157,57.25503374279757,0.5536507596438985,0.4463492403561016,64.2816541526901,57.71736473470693,0.5127739494767852,0.48722605052321466,58.97457685722056,57.4866640222238,0.3572829779991946,2.06575950247348,0.7523868449970861,0.7151711459743788,-0.4423330780888275,0.1787958933788426,-0.5180155042143804,0.0006263617442696094,0.23701866829688845,0.35004573829684515,1.5686159179138452,5.700212064914747,1.3216854463630854,0.840093846785475,1.0593512767826485,1.0871134767536177,1.8733550598784499,1.9908148734650002,2.5404578560443563,0.9333248981878292,Relax
57.850080833060346,1038.6607142857142,81.14863507186041,,,,,,,107.45705273186206,108.38409999309462,0.0781281451736299,0.10345731888565762,1036.0,71.9061,0.06940743243243243,90.5,0.7551727225792324,982.0,1096.0,53.57142857142857,89.28571428571429,806.0,1246.0,11.2,195.3125,,,0.007782074785497099,0.0775891653522784,0.032078436318219446,0.11744967645599494,0.10029847273345592,0.06625880138897464,0.6606162544972941,-2.5563274832899774,76.63913207791803,84.5526094868974,0.9064076501363845,20357.64167958456,1.1032563547422984,5.015697575921946,373.132814905854,0.7321428571428571,0.7592592592592592,0.926829268292683,0.5,52.33041070604523,52.42605533522142,52.231146022667374,48.148148148148145,0.44298567438110736,0.5570143256188925,51.03865637381576,57.23182227992991,0.5462640571618751,0.4537359428381249,62.492561810218,56.954573911494165,0.49965308735886055,0.5003469126411395,57.05376729913793,57.09336638752936,0.41299932346769547,1.648444142577888,0.7403945510273175,0.5752780635076061,0.28088751439925996,0.9369308642642151,-0.6001650485175052,0.00048612787744046663,0.15900030150158592,0.4029357165056142,1.9095425048844386,5.664497779200461,1.3620585071225455,0.8439698934194664,0.9536419996606895,1.0986122886681098,1.915360402640573,1.9874289766552733,3.0357150603273215,1.0370276646531436,Relax
58.022821124093404,1033.2105263157894,87.2798734863283,,,,,,,110.40299555977379,111.35901925228676,0.08447443310275778,0.1068543077599563,1030.0,71.1648,0.06909203883495145,83.0,0.7905571134532641,977.2,1094.4,59.64912280701754,87.71929824561403,741.0,1246.0,11.4,265.625,,,0.007529874293042239,0.06038669726307763,0.013236235709875753,0.08115280726599562,0.12469425609150256,0.09278636866327336,0.744111008571119,-2.8069864422874176,78.74271765957525,86.3973604695415,0.9114018904239,21372.766782548308,1.0972108029476353,5.036830856768553,379.1844690133676,0.7719298245614035,0.8,0.9545454545454546,0.6666666666666666,48.12227074235807,47.792676715976945,48.37366715046845,47.27272727272727,0.3849838991816272,0.6150161008183729,48.87646765989837,61.776282592181694,0.5055947006930214,0.4944052993069784,61.433001010633866,60.74940561792645,0.4508447698461514,0.5491552301538488,55.51091200872867,61.26499560858731,0.4557873640845284,1.8044877398791361,0.774561262077726,0.710409176349821,-0.3862731805757704,0.1829040640796089,-0.5355514112454995,0.00031839917187772177,0.16150444325674443,0.44070608681534873,1.7346010553881064,5.69253913697176,1.2358377333638522,0.8482072829979097,1.1634077423416398,1.2658978798089953,1.8528578417412294,1.9631267394471148,2.866978125331709,1.0233140375727616,Relax
58.29403807372753,1032.842105263158,93.13062820455168,,,,,,,122.12281581611661,123.18580491463916,0.09016927924411343,0.1182395791126282,1042.0,62.2692,0.05975930902111324,85.00000000000011,0.7625981073412261,983.2,1095.8,61.40350877192983,85.96491228070175,800.0,1246.0,11.4,203.125,,,0.007456458448088613,0.03802124480116676,0.00812749583496367,0.05360519908421904,0.19611294914415311,0.13909953839316563,0.7092827832134649,-3.269610201764322,87.10551800106447,98.77980809362298,0.8818150154584864,27031.09996110113,1.1340246905186402,5.138833828517226,448.07496521144583,0.7543859649122807,0.7818181818181817,0.9534883720930233,0.5,51.78180370296636,51.787370028441735,51.7649614690232,47.27272727272727,0.47500368182781505,0.5249963181721851,60.054142238483436,63.135352436433955,0.4234816180616368,0.5765183819383632,64.28141971360438,75.00233040790413,0.44602827470713313,0.5539717252928668,62.20370133841139,69.32323670274329,0.5481184085003902,1.05856430910866,0.7327210725078972,0.7564439357972348,0.20477312909663858,0.04017332244177929,-0.47758958706125954,0.0001799728139329453,0.061064608199487135,0.37157749733485135,1.6422277352570913,5.69253913697176,1.3206898658819728,0.7443072004973579,1.2053685431802494,1.32974388696683,1.8567463093150396,1.962502779876258,3.5472503487469904,1.227976845087314,Relax
58.577160978913625,1025.8245614035088,85.21949031073851,,,,,,,90.66057183646201,91.47158915956706,0.08307413715474235,0.0883782424866318,1030.0,68.19959999999999,0.06621320388349514,79.0,0.9399840369908719,962.8000000000001,1090.8,57.89473684210527,82.45614035087719,800.0,1187.0,9.5,203.125,,,0.011763267523935833,0.025059135482229062,0.006467279770565795,0.04328968277673069,0.4694203250657978,0.27173374276281115,0.5788708503934565,-3.686516828025121,64.68018098063975,102.06261685720318,0.6337303801560803,20738.999372045768,1.5779581211708862,5.023757908413924,644.2021405511053,0.7192982456140351,0.7454545454545454,0.926829268292683,0.4166666666666667,49.10385465259023,49.07628815280502,49.13445100965369,47.27272727272727,0.4534688441676101,0.54653115583239,43.560198680572036,47.821543262425145,0.4169170809255138,0.5830829190744861,65.90093001043857,77.9348778372016,0.42739205517520956,0.5726079448247904,55.85885554382417,64.65580091337334,0.7448086117685611,0.821321702016403,0.8565286153814223,1.0916742781273394,-0.142006460338588,-1.0137884173252059,-0.21369846654652153,0.00019566338368100008,0.045052435465698676,0.39029538277462583,1.475906519809578,5.69253913697176,1.3373648945050027,0.9818291602807921,1.04733625829906,1.297637466339349,1.801963398728876,1.8952468916417122,3.9599277789964065,1.1256454413300379,Relax
58.623244620462465,1024.6491228070176,87.95158798778982,,,,,,,92.01436223298435,92.81182610494778,0.08583581055224757,0.08980085005188096,1030.0,83.0256,0.0806073786407767,109.0,0.9558463032661422,954.8,1094.4,56.14035087719298,80.7017543859649,800.0,1187.0,11.4,203.125,,,0.004126463199784974,0.027731448532424444,0.0046734004752131825,0.0365313122074226,0.1488008531166408,0.11295688412053645,0.759114492656791,-3.58518818370381,65.6278716131152,105.68116408120436,0.6209987577605353,21788.92384209908,1.6103091793713575,5.045205890874428,680.7173944264559,0.7192982456140351,0.7454545454545454,0.926829268292683,0.4166666666666667,51.74876847290643,51.677177954167874,51.81656945506072,47.27272727272727,0.49002598432504024,0.5099740156749597,45.95818257344981,46.88428695881344,0.41676390456083034,0.5832360954391697,68.22485753905602,80.70859468070269,0.43716476829936823,0.5628352317006318,58.16693962930762,66.0000515869886,0.7405348091381936,0.6045893735418244,0.872120523791444,0.9275330041881771,0.47976683080361227,-0.2579525508079734,-0.40834691640027687,0.0001378503783811023,0.02529546335207622,0.35919986911056645,1.6094379124341005,5.622363698375269,1.3308452179762003,0.7155502202323671,0.7489330683884978,0.9780057513570365,1.9487155947499253,1.8757641847692332,3.9095530091648465,1.1256454413300379,Relax
58.744702238123665,1022.4561403508771,86.17674325300437,,,,,,,90.1256067940738,90.93622533359343,0.08428404882328842,0.08814618372103993,1030.0,72.64739999999999,0.0705314563106796,103.0,0.9561848881628935,955.6,1085.4,57.89473684210527,82.45614035087719,800.0,1187.0,11.4,226.5625,,,0.006839106941631912,0.017817364791600263,0.0048922555537357325,0.029548727286967908,0.3838450310483686,0.23145182786428212,0.6029824776736962,-4.027581747133934,64.30162158889182,104.56153271340574,0.6149644130135037,21122.42315153807,1.626110355068695,5.031713848680401,680.1143643484927,0.7368421052631579,0.7636363636363637,0.9285714285714286,0.45454545454545453,50.65805810777253,50.66161359819807,50.6515614441053,45.45454545454545,0.45704348743698714,0.5429565125630129,43.47350290171537,47.383637375248966,0.42351637488640786,0.5764836251135922,68.04669617073156,79.38993175223649,0.4327171526868642,0.5672828473131359,57.09771586629936,65.37572314909357,0.8167448310081272,0.9432843791611445,1.0128779130838839,1.1369347631554203,0.18211569493016988,-0.5121052488486559,-0.3684841466559011,0.0003455113808107188,0.0653271174610144,0.3905710195837062,2.0794415416798357,5.727626856270007,1.3273526153289614,0.9878109296453568,0.8958797346140276,1.0789817827253791,1.9039049716948602,1.854542497747282,3.5427548548929355,1.1256454413300379,Relax
59.09976667836033,1016.1034482758621,85.94422705068318,,,,,,,89.35656937924638,90.14185770926954,0.0845821625706659,0.08794042528924373,1023.0,75.6126,0.07391260997067449,105.0,0.9618120709840531,954.4,1083.2,53.44827586206896,81.03448275862068,800.0,1187.0,14.5,203.125,,,0.013524579646215264,0.02362156111900997,0.0047516546823786684,0.04189779544760391,0.5725523210797047,0.3227993144204613,0.5637900721662162,-3.745595377297483,63.739918854977354,104.06185955495454,0.6125195064510319,20837.852582753425,1.6326010673424085,5.025823071253702,679.5660119162184,0.6896551724137931,0.7142857142857143,0.925,0.3333333333333333,50.902255639097746,50.87856960878512,50.92317458986496,46.42857142857143,0.46390418393309923,0.5360958160669007,43.41792338917848,46.67411717735767,0.43003941303258286,0.5699605869674172,68.24105188715538,78.56226480550094,0.4392798287275631,0.560720171272437,57.19246993308649,64.61618475914284,0.8928926693077825,0.8843490523527151,1.0724779312774495,1.2420739361831576,0.10999369343689303,-0.7101817474373653,-0.30822503913526406,0.000375349192691348,0.060473274896737934,0.34028475325692265,2.302585092994046,5.789015477886193,1.3628543146917544,0.9780057513570366,0.9134398205569987,1.0965418686683501,2.0892527302790413,1.8675230771478428,3.3741521583179663,1.110996395627643,Relax
60.24211180351972,998.6101694915254,98.15382314635859,,,,,,,120.05695487473062,121.09516513867804,0.09829043018492069,0.12022404592160471,1006.9999999999999,78.57780000000017,0.07803157894736859,106.5,0.8175604924243988,930.4,1073.0,61.016949152542374,83.05084745762711,737.0,1187.0,14.75,250.0,,,0.015803936399036825,0.03036068332860982,0.005238751983956007,0.05140337171160265,0.5205395487309168,0.30744941183439134,0.5906360286820811,-3.494606819178031,85.62721243846404,110.25890514851534,0.776601330505929,29660.28736202398,1.2876619711023858,5.17914546431217,567.9047965405131,0.711864406779661,0.7368421052631579,0.9285714285714286,0.3076923076923077,49.14841849148419,49.198307251164394,49.09700991469901,49.122807017543856,0.47841070439585015,0.5215892956041498,59.23103738306197,61.84622979900131,0.4307790525043442,0.5692209474956558,72.36706579954081,83.1867414442604,0.4487005770544476,0.5512994229455525,66.12604631273804,73.29730585930533,0.6467187244398972,1.5205403248650273,0.9327982422878303,1.2660187850872398,-0.6691679259499992,-1.3899024014332553,-0.2808538600717555,0.001034942480462967,0.17507257300024148,0.3159131555784005,2.833213344056216,5.780948134107604,1.325779567928076,1.1106628141225792,0.9515421046459682,0.9829564081810815,2.1365599816337384,1.9334232185561882,3.095531307439265,0.9970581439596342,Relax
61.07028139192355,984.4067796610169,96.33528351437722,,,,,,,127.05184931276327,128.16137551157428,0.09786125563616144,0.129064378606285,1002.9999999999999,77.09520000000016,0.0768646061814558,112.0,0.7582359803140595,912.0,1057.0,55.932203389830505,77.96610169491525,779.0,1168.0,14.75,210.9375,,,0.015124137898278125,0.03524160809076646,0.011789717560484716,0.062155463549529305,0.42915572579222777,0.243327569847923,0.5669913162611002,-3.3455278464136775,90.6237777104297,103.30926090036552,0.8772086540995578,29412.45591680359,1.139979633496076,5.175501399228629,471.0818135117967,0.7288135593220338,0.7543859649122807,0.9302325581395349,0.25,50.09448223733938,50.14252023041061,50.04582706647581,47.368421052631575,0.46624177833603564,0.5337582216639645,61.87969369048355,66.20866800728017,0.5045349026270511,0.4954650973729489,73.38120888900059,72.71864664423187,0.48788246855038203,0.5121175314496178,67.87451034533954,69.53987808828434,0.6933600433929746,2.146112104485642,1.1073303734314153,1.5638296837573282,-0.7645219608578806,-1.356258435253765,-0.28729009105732517,0.003941992273769275,0.4350890237189725,0.37413516295699134,2.3513752571634776,5.814846439192349,1.303760606123386,0.0,0.8589755268370598,0.8624968864578968,2.3338447807973806,1.9018659733416898,5.077473909248561,1.0967639583555977,Relax
61.27957261806869,980.9666666666667,94.95546978946422,,,,,,,128.389040664349,129.48092882459997,0.09679785564184738,0.13088012572396174,1001.5,79.31909999999999,0.07920029955067398,116.75,0.7395917073460258,901.4,1055.2,55.00000000000001,76.66666666666667,779.0,1168.0,15.0,250.0,,,0.022455027317360675,0.0398291202333076,0.010158067572057408,0.07244221512272568,0.5637841656010865,0.30997157222924787,0.5498053885546205,-3.223156970074015,91.55684280620733,99.21083259654809,0.9228512694630175,28536.438857165664,1.0835982276774385,5.162369885286336,430.01872947209023,0.7,0.7241379310344828,0.9047619047619048,0.3,49.12183398040304,49.19614754082435,49.05204543368971,51.724137931034484,0.47597684827683345,0.5240231517231665,63.17101856236684,66.28270175335446,0.49493862170285247,0.5050613782971476,69.79668023682036,70.50682755889204,0.48621655656412566,0.5137834434358745,66.56633592998733,68.42736763950326,0.8086338619608826,1.417807664188907,1.0910858993738002,1.4064824022883937,-0.09706952816384629,-0.8763450713315684,-0.2775463408183618,0.002125949022250949,0.2068736226641814,0.2890681446434118,2.70805020110221,5.873557262275184,1.2677204710585246,0.0,1.0793720283840775,1.1968729356955115,2.3255801065829598,1.8578123325744258,3.6175165659420547,1.0829299425282284,Relax
61.71556983144943,973.8833333333333,90.54993784060733,,,,,,,123.84626883796194,124.89193458495113,0.0929782189933161,0.12716745897485524,984.0,89.6973,0.09115579268292683,119.75,0.7311478875401657,901.4,1050.4,46.666666666666664,73.33333333333333,779.0,1142.0,15.0,250.0,,,0.033115802281588995,0.059927689250868034,0.01890786837920089,0.11195135991165792,0.5525960152236192,0.29580527032204923,0.5353011280806026,-2.8146166227246483,88.31193386052564,92.7531272069183,0.9521181281954514,25733.438987580557,1.0502898436513326,5.117467938672257,389.6706698893055,0.6833333333333333,0.706896551724138,0.926829268292683,0.18181818181818182,48.77362283876157,48.89688729252495,48.65153535015324,53.44827586206896,0.4838994138812026,0.5161005861187973,61.440888328707366,63.452262805769294,0.41884506824884576,0.581154931751154,60.02819214537633,70.70897223422602,0.44978206049214653,0.5502179395078535,60.73864754364765,67.17867373502159,0.8010029246162688,0.9368339503771734,1.102456889115712,1.0425743077706708,0.65365350429414,0.12235867680603807,-0.5639201657037859,0.0010014079206604137,0.09126073275074707,0.3547739458568855,1.9459101490553132,5.740223928941852,1.1534943055599538,0.8425502901803043,0.934417404570842,1.0357836815978831,2.141223782131133,1.7921373406034953,3.049768637629258,1.0829299425282284,Relax
62.107000275787584,967.5,90.2535975150397,,,,,,,127.11625534478804,128.1950748130056,0.09328537210856816,0.13138631043388946,974.0,82.2843,0.08448080082135524,108.0,0.7100083090886946,901.4,1046.4,48.333333333333336,73.33333333333333,779.0,1170.0,15.0,164.0625,,,0.0387994268430024,0.07849653504175833,0.03282343674967661,0.15011939863443735,0.49428203196946224,0.25845711610852284,0.5228940147362889,-2.5447007947633904,90.64760671499302,86.40728486562466,1.049073661508548,24606.881268170844,0.9532219106159037,5.098026683686811,329.4612686829736,0.7,0.7241379310344828,0.9285714285714286,0.16666666666666666,51.01167315175098,50.88918026559258,51.154002063723425,51.724137931034484,0.511052557601898,0.48894744239810184,64.8083381182944,63.39123185316774,0.4675334930519606,0.5324665069480395,59.08220875907848,63.05165728192939,0.4903367618554799,0.5096632381445201,62.01140250593636,63.22167255720125,0.9056658334034574,1.552709367625258,1.2763729718044843,1.4565493259257922,0.050233517183599474,-0.4945066916029184,-0.38396002633971815,0.0019172595901234487,0.22570791656030906,0.34502201119750353,2.03688192726104,5.806890595608518,1.2221214361137465,0.0,0.9571603491222738,1.1086943000148528,2.091752922383152,1.8337395574781044,3.420146613059596,1.1813781191217037,Relax
62.361351459138056,963.7049180327868,88.55983744758777,,,,,,,133.35947660365198,134.4838836877914,0.09189518055834474,0.13838206499545422,974.0,81.54299999999999,0.08371971252566734,104.0,0.6640685739251214,895.0,1030.0,52.459016393442624,77.04918032786885,779.0,1142.0,15.25,210.9375,,,0.027754900640731408,0.08208990202291701,0.02292399099906287,0.1327687936627113,0.338103712597721,0.20904686918554488,0.6182921434946526,-2.4999402661551753,95.09446611594022,81.80303873874523,1.1624808513488587,24438.500446168942,0.8602292234230545,5.095044663908162,281.47745795150746,0.7049180327868853,0.728813559322034,0.9069767441860465,0.2727272727272727,49.72551797414556,49.797094646505634,49.6539018730303,52.54237288135594,0.476599333698815,0.5234006663011851,65.65007390239427,68.79797247702254,0.4218892279434168,0.5781107720565832,53.13352819550782,62.19779198966656,0.4533321208691012,0.5466678791308991,59.72061629744227,65.58096654266001,0.590714867735092,1.9809243077383505,1.03764574685753,1.3287272651975686,-0.34760702449226955,-0.8389755910743182,-0.3530577280500079,0.00308951764513987,0.3667645030444056,0.34212595839376503,1.992430164690206,5.799589796579279,1.2197246977037053,1.0097673083242684,1.2279514287290618,1.497574214603861,2.364967744254097,1.8904154574006102,3.780258160334443,1.2639276293166808,Relax
62.53332433376032,962.0491803278688,88.87039743910009,,,,,,,135.62183944090026,136.7663220100555,0.09237614797282279,0.14097183617440429,974.0,83.0256,0.08524188911704311,109.0,0.6552808736813146,891.0,1030.0,52.459016393442624,77.04918032786885,779.0,1142.0,15.25,195.3125,,,0.02616430473236539,0.06245775620519638,0.014831984738384398,0.10345404567594617,0.41891201865155325,0.2529075065302041,0.6037246373219242,-2.7732648514805076,96.70839373125321,78.64370325809239,1.2297029479127686,23893.40246496791,0.8132045236594302,5.085248108457748,255.81366098724237,0.7049180327868853,0.728813559322034,0.9069767441860465,0.2727272727272727,49.95672494374242,49.99431798657663,49.918000417627866,52.54237288135594,0.48312925823466357,0.5168707417653364,67.21959964378831,69.5272779050162,0.4941982808041114,0.5058017191958887,55.285923815878675,55.93119603559136,0.4875354182323802,0.5124645817676198,61.54270041380345,63.09651758557324,0.6427296925338258,1.8786413076180906,1.0429299631560125,1.3993709083450174,-0.3754346761610421,-1.0133656670924087,-0.3102666305996791,0.003211575367787557,0.3462470369078755,0.3785393260160599,2.120263536200091,5.799589796579279,1.2768243359279308,1.1968729356955115,0.8432566261738648,1.0165434213138511,2.1488497138569196,1.8678222834121956,3.5921131501034202,1.36115283157181,Relax
62.74652918187799,957.758064516129,86.71541649838034,,,,,,,127.3381969145261,128.37912602911734,0.09054000139606239,0.13295445022314575,964.5,83.0256,0.08608149300155521,119.0,0.680985113654364,883.8,1027.6000000000001,48.38709677419355,79.03225806451613,779.0,1142.0,15.5,218.75,,,0.02587632063101037,0.05377446324579332,0.024639787826365556,0.10429057170316924,0.48120090967220636,0.24811754512823353,0.5156215213667219,-2.9229565853603843,90.7777505779913,83.20512542010174,1.0910115226634833,23728.99633357699,0.9165806036206683,5.0822494791944095,305.0568163275611,0.6935483870967742,0.7166666666666667,0.9069767441860465,0.2727272727272727,48.86701337295691,48.910037721756304,48.829318905482495,55.00000000000001,0.47245924643823395,0.5275407535617664,62.404393541908036,65.94183042652061,0.5056898043497203,0.4943101956502798,59.16872055538809,58.49919148170561,0.4876288621843832,0.5123711378156167,60.808082626797805,62.331695003478195,0.6621164623520787,1.5434061416331624,1.0074610084936435,1.2058770095000848,-0.13900643832766946,-0.6710730829233644,-0.3714427812264072,0.0013922854179676655,0.2003108607890792,0.3526180534807599,1.992430164690206,5.825164052322358,1.2563868804366156,1.2279514287290618,0.9460474084795653,1.1393448805379356,2.3568029000704804,1.8342069116953814,4.1267596406124865,1.1524250923329433,Relax
63.20501026691189,952.2786885245902,95.15060538387569,,,,,,,138.00712541990964,139.16493892496305,0.0999188646459126,0.1449230430996314,966.0,105.26459999999999,0.10896956521739129,142.0,0.6894615411658213,856.0,1037.0,50.81967213114754,80.32786885245902,768.0,1142.0,15.25,289.0625,,,0.02392943819410656,0.06706875503323581,0.021069430239339354,0.11206762346668173,0.35678965834759224,0.21352677476221227,0.598466827068709,-2.702036991242923,98.4044720172531,92.42032757544492,1.064749223453284,28571.445416785038,0.9391882876953093,5.162902321666027,347.2003568152867,0.6885245901639344,0.7118644067796611,0.9047619047619048,0.25,50.69280162216966,50.66218749245439,50.71761316371074,55.932203389830505,0.5081793345572728,0.4918206654427272,70.15273893199763,69.01436843764823,0.4259847712915679,0.574015228708432,60.32044548963309,70.02114541397296,0.46965909719681004,0.5303409028031899,65.42156725319569,69.51957945763266,0.6324167771717197,1.1647753823467366,0.6273724224476918,1.143132995378356,0.010037876046098404,-0.8466191780204375,-0.05720168819885837,0.0013108701606864193,0.13508239470307162,0.37188442479209405,2.9957322735539913,5.897950452316984,1.1831374224621567,1.133732460554052,1.1968729356955117,1.2168836126138958,2.3489531157817325,1.866542146720354,5.596419625090839,0.972252022551293,Relax
63.50456664166732,946.5645161290323,90.13407517215163,,,,,,,129.69529232959468,130.7609632428452,0.09522232625067563,0.13701685423407006,956.0,87.47339999999991,0.09149937238493715,128.2499999999999,0.6949679788152516,856.4,1012.8,48.38709677419355,82.25806451612904,779.0,1142.0,15.5,210.9375,,,0.024429250940302634,0.07544692511390902,0.01609635391934474,0.11597252997355639,0.3237938577804144,0.2106468742716305,0.6505585859954262,-2.5843258485562126,92.46196382350072,88.29265482572637,1.0472214705289338,25647.058450655408,0.9549078472339926,5.116007671538041,337.2453957848334,0.6451612903225806,0.6666666666666666,0.9,0.14285714285714285,49.098697126539356,49.172677048409504,49.025259281539206,58.333333333333336,0.48961331211327075,0.5103866878867293,64.70310399560957,66.06146128164791,0.4141636043782779,0.585836395621722,56.82121832683175,67.5791539161995,0.45363093324865694,0.5463690667513431,60.88982886661838,66.82461638758598,0.7005682146562462,1.845526941497416,0.9987581565306234,1.5382603751805763,-0.7726117139020712,-1.6024690934533155,-0.20767036420925186,0.003554980021037289,0.3452201130162286,0.4528579780755373,3.1780538303479453,5.921938245870746,1.2719594811934278,1.3343945946083746,1.242453324894,1.3579778549873243,2.2864337662169487,1.8647545894051578,3.825749206929234,1.056389667971865,Relax
63.868533565609305,941.758064516129,88.92134772616973,,,,,,,130.30871289264468,131.38753215795393,0.09442058536749257,0.13836750414194404,946.0,91.1798999999999,0.09638467230443964,118.75,0.6823898859274891,856.4,1007.8,50.0,80.64516129032258,779.0,1142.0,15.5,210.9375,,,0.0192528300455247,0.046781316404992154,0.015256233909622545,0.08129038036013941,0.41154955706783364,0.236840201266487,0.575484038796936,-3.0622713778844526,92.90501495225479,86.11033873559242,1.0789066251095107,25132.999806216285,0.9268642686279718,5.107214437851388,319.25038453388714,0.6451612903225806,0.6666666666666666,0.9,0.13333333333333333,50.4395218002813,50.46819315240947,50.40481613359679,56.666666666666664,0.4949565650578006,0.5050434349421993,65.3628972226089,66.02556323122128,0.42216917343146204,0.577830826568538,55.94980235762577,65.4569328131183,0.4613223165789978,0.5386776834210022,60.83867485896911,65.74186281700985,0.6579167457667894,1.3291754448537751,0.8893009790299908,1.213901267960686,-0.49077995567669497,-1.2778167676955252,-0.25578822932106976,0.0008024029550794194,0.13589396102701684,0.3710068599510352,2.3978952727983707,5.857422116838488,1.2597119512770723,1.0474136855066063,1.106048193531495,1.3144721664925096,2.3165685136940297,1.9004478803614382,5.123874178466758,1.1524250923329433,Relax
63.68357152567005,943.1612903225806,82.9918411056837,,,,,,,111.8191602104216,112.69719329712333,0.08799326473343577,0.1185578345482957,948.5,85.2495,0.08987822878228782,113.75,0.742196962931124,875.2,1006.8,46.774193548387096,80.64516129032258,779.0,1127.0,12.4,210.9375,,,0.024336281247594183,0.059010579120317305,0.010353412737943825,0.09370027310585531,0.4124053959540827,0.2597247632362921,0.6297802254391694,-2.8300385440259963,79.68894960108703,85.25172465925277,0.9347488267199298,21342.78790780107,1.0698061034310566,5.036221258597188,364.81126147397015,0.6129032258064516,0.6333333333333333,0.8947368421052632,0.125,47.88409422555765,47.972091360585054,47.796883308768095,58.333333333333336,0.4799708934529936,0.5200291065470064,55.232915910713956,57.49159358839631,0.40560786565491774,0.5943921343450823,54.29456497775631,65.72637804757878,0.4403006671952088,0.5596993328047911,54.7657501825904,61.74641732354428,0.7501863454568167,1.585075849323898,0.9798372602591408,1.4706325161658897,-0.6641841188335942,-1.5200006109278426,-0.19036481369891914,0.002365045516716117,0.24234496857831522,0.3839220289706686,2.0794415416798357,5.889680181354617,1.2997039807227846,1.2228228189512695,1.0593512767826485,1.2972040027226728,2.168619908280546,1.8986371526492625,3.077988756853497,1.1524250923329433,Relax
63.22113995492419,949.6612903225806,72.97808868294626,,,,,,,88.75154120111814,89.4706014542775,0.07684643927958472,0.0934559954222953,950.5,71.9061,0.07565081536033666,92.25,0.8222740438678359,885.4,1005.2,45.16129032258064,83.87096774193549,792.0,1127.0,12.4,195.3125,,,0.014060537040157028,0.054944280839014,0.009009819397277205,0.07801463727644824,0.25590537951264136,0.18022947399387257,0.7042816932458017,-2.901435682911942,63.2652690051586,80.27396225672084,0.7881169338923693,15954.74736009003,1.2688472446102357,4.909860041588312,407.42158329354515,0.5806451612903226,0.6,0.8888888888888888,0.05555555555555555,51.32919254658387,51.212340854610815,51.44857344460608,55.00000000000001,0.5343287123272846,0.4656712876727155,46.25454932580506,43.180724866542015,0.4111450853703978,0.5888549146296019,51.47214317146857,61.59973614983495,0.4583537348173974,0.5416462651826028,48.9329380683272,53.1935263623746,0.7329697090604405,1.2125387590226477,0.9228359950060365,1.1983896284076963,-0.4676766148466118,-1.186771319153888,-0.27274653585196196,0.0003949974471930582,0.09583403838385866,0.3395277633788294,1.9459101490553132,5.825164052322358,1.3679419888876585,1.0438997104319372,0.6597643324038146,0.833051127543801,2.169496061064392,1.900157464155279,3.775918432409168,1.2484605166940221,Relax
63.59574202141177,943.1904761904761,66.94023746376367,,,,,,,82.99183791970341,83.60861073162086,0.07097213039526618,0.0879905385123326,950.0,59.303999999999995,0.062425263157894734,84.0,0.8065882036319034,882.8,995.2,46.03174603174603,84.12698412698413,792.0,1124.0,12.6,132.8125,,,0.017004840878192477,0.058428970969953184,0.010806163139772009,0.08623997498791766,0.2910344063210891,0.19718049408728236,0.6775160936461213,-2.83994343390147,59.120215613915455,72.7052756864233,0.8131489091506922,13503.669730096482,1.229787052219584,4.8374219174905075,357.6480266688748,0.6031746031746031,0.6229508196721311,0.8947368421052632,0.10526315789473684,47.47942386831277,47.461612707372026,47.49212340486082,55.73770491803278,0.45150971585400695,0.5484902841459929,39.754368767037086,43.8163080651373,0.44044652023254577,0.5595534797674538,48.251688685602126,54.38595086625358,0.44485384869541356,0.5551461513045867,44.20766504282848,49.384716786094685,0.7284741863949992,0.6439551784934829,0.9111194138943562,0.8370127250857468,0.7712138553154038,0.21116065836392472,-0.615080507593681,0.00024562564865102094,0.0346838573268567,0.37335108102047876,inf,5.755057701277694,1.4223414016039773,0.5994738181995927,0.0,0.0,2.1607172021535384,1.898558499419783,3.134202357709561,1.2334069683412527,Relax
63.801467642398286,941.9047619047619,70.74162763312935,,,,,,,97.62461019706573,98.41230489976759,0.07510486250231124,0.10364594611417495,947.0,75.6126,0.07984435058078142,93.5,0.7246290406725292,878.4,1000.4,53.96825396825397,88.88888888888889,792.0,1124.0,12.6,195.3125,,,0.01962475398037331,0.05391485240010678,0.005821274583939279,0.07936088096441936,0.363995320523857,0.2472849814907154,0.6793630784451468,-2.920349284292454,69.58800814682375,72.25464052735055,0.9630939637777675,15796.105405158276,1.0383202860886673,4.905520133021098,300.0938360943697,0.6190476190476191,0.639344262295082,0.9230769230769231,0.10526315789473684,50.89536138079828,50.86778922326349,50.91570244877608,52.459016393442624,0.49545689166433976,0.5045431083356602,48.98669943271821,49.43384385249427,0.469500334663239,0.5304996653367611,49.50894795069672,52.62696220144052,0.48199202264884344,0.5180079773511566,49.248515959855446,51.055372237329905,0.711600247273382,0.7195077732628257,0.8954561788206528,0.8944478061363966,0.5740639599490436,-0.06798945644841448,-0.5014014757334495,0.00024381643747488458,0.03999916619248504,0.31598591245483476,1.6094379124341007,5.774821391719543,1.465758128616462,1.0357680164036986,0.7489330683884978,0.8888370153723535,2.3661622638058906,1.9658673052934363,4.582249526949762,1.328284427444426,Relax
64.19271939442322,934.3968253968254,79.7549755111968,,,,,,,111.60168226272832,112.4526999689266,0.08535450179566478,0.11943713765865228,947.0,84.5082,0.08923780359028512,112.0,0.7146395456964596,856.8,1002.5999999999999,61.904761904761905,90.47619047619048,744.0,1124.0,12.6,242.1875,,,0.021198743995188767,0.057996092462897525,0.01093575145808399,0.09013058791617029,0.36552021170651233,0.2352003297138763,0.6434673711086764,-2.8473796420346207,79.51606671076425,77.34650448265147,1.0280499066198836,19321.705285445612,0.9727154232112052,4.993015563478975,300.9445513669988,0.6507936507936508,0.6721311475409836,0.9512195121951219,0.15789473684210525,47.92355751561926,47.78021617127919,48.049868125241545,54.09836065573771,0.439455274887789,0.5605447251122111,52.74047190772168,59.56509044734171,0.4982382003113593,0.5017617996886408,54.595796022660444,54.788509856874875,0.468018194084278,0.5319818059157221,53.67615075802812,57.22665817753503,0.5876441407045833,0.930916049855851,0.7669505892595534,0.9155535048870433,-0.025754596977007438,-0.7470037269457477,-0.3403691550376637,0.00022653423545798744,0.055638163975724485,0.3296915943803924,1.5260563034950492,5.711329328227483,1.482871681646251,0.6267213891266938,0.728087666153735,0.829453943180776,2.235752279836438,2.0045806729736575,4.363793995765904,1.2334069683412527,Relax
64.49131986451985,932.6984126984127,74.76514517423011,,,,,,,105.34704552098269,106.20703069283148,0.08016004332839512,0.11294867031691473,947.0,84.5082,0.08923780359028512,108.0,0.7097032935711389,860.0,1002.5999999999999,61.904761904761905,88.88888888888889,781.0,1077.0,12.6,171.875,,,0.024100863937048786,0.07188970419256678,0.03213104758596452,0.1281216157155801,0.3352477828047699,0.18810927260354574,0.5611051951776527,-2.632622220717777,75.09971161258892,72.39313683794508,1.0373871736032467,17079.908401340806,0.9639602507582714,4.939455647222335,279.13642535793355,0.6666666666666666,0.6885245901639344,0.9523809523809523,0.16666666666666666,49.9808355691836,49.98504453601739,49.976147233269224,54.09836065573771,0.49368674390619643,0.5063132560938035,52.76719671519729,53.43772229366092,0.482868908002517,0.5171310919974832,50.305099956765375,52.05922761218499,0.48847627261239607,0.5115237273876041,51.550849318127064,52.752977847282274,0.5835162312440774,0.7061195055010256,0.7362574928437235,0.8345338396705839,0.36760312613435975,-0.42969473069624997,-0.3608219344441865,0.00021477820333770572,0.037306083161558944,0.3206259458814764,1.7047480922384255,5.711329328227482,1.54282975331328,0.7271802241410904,0.7008400952266338,0.772760613339579,1.9364454750505664,2.0014284577218975,3.5072708568302486,1.2334069683412527,Relax
64.61171953057115,929.8571428571429,70.17141618757302,,,,,,,97.62386672755136,98.40737591286567,0.07546472780964988,0.10498802690011669,943.0,77.09519999999999,0.08175524920466595,101.5,0.7187936571228772,867.4,988.6,57.14285714285714,87.3015873015873,781.0,1072.0,10.5,171.875,,,0.03667616161300145,0.07744010042138237,0.00524732014666681,0.11936358218105064,0.47360684468940345,0.3072642504760879,0.6487749362608878,-2.558250539250938,69.58452282676103,71.27458986365814,0.9762879444114648,15581.069079557568,1.0242879733630528,4.899567363004603,292.0228208149167,0.6349206349206349,0.6557377049180328,0.95,0.1,51.03476821192052,51.01878969629545,51.04780243902456,52.459016393442624,0.5031021212213522,0.49689787877864766,49.36282533030462,49.057510579546275,0.4630672344593191,0.5369327655406808,48.501676782937665,52.226951945103266,0.4826071280353167,0.5173928719646831,48.934145416808484,50.66702011041512,0.6035986278801933,0.9508336415072836,0.790332799169184,0.8604577950751324,0.172374503910957,-0.32401943226174046,-0.426248932678923,0.00020653580595995347,0.05533753584524248,0.2778064993236793,1.504077396776274,5.743075359973512,1.4809018440572232,1.1968729356955115,1.1675559345535003,1.3182176424678524,2.2110394518556977,1.9776574678033738,4.8980033236822615,1.1385295092380794,Relax
64.18893250373364,936.1904761904761,70.44097440819537,,,,,,,100.50252765237363,101.32239464858776,0.07524213950010697,0.10735264906916818,947.0,75.6126,0.07984435058078142,95.0,0.7008875901294979,876.0,1003.5999999999999,61.904761904761905,87.3015873015873,781.0,1072.0,10.5,171.875,,,0.039019612965078734,0.08469160965438005,0.0403827713681723,0.16409399398763108,0.46072583959987035,0.23778818478889555,0.5161164500680253,-2.468738741801335,71.64575234207595,70.34511228823972,1.0184894161303895,15833.402329730705,0.9818462363598854,4.906544357373692,276.2723349860868,0.6190476190476191,0.639344262295082,0.9487179487179487,0.1,49.79318495174316,49.80181455740495,49.78518487462408,52.459016393442624,0.4855049205824539,0.514495079417546,49.9217420355986,51.39058088092299,0.4781649003743458,0.5218350996256541,48.64327131345762,50.81601104740912,0.4819021604506672,0.518097839549333,49.28665220900837,51.10410346561758,0.49557082984957457,0.7723665658181491,0.6822951249676956,0.6739922651264314,0.6443925317645651,0.12018673421058601,-0.5107498954624857,0.0003070029703957884,0.046570832864638846,0.22618101597826845,1.2237754316221159,5.711329328227482,1.5334544328636266,0.9753783304540271,1.069455380418721,1.2715006482754927,2.237229012053806,1.987207006347148,5.561028688384794,1.1385295092380794,Relax
63.89452423676538,939.6507936507936,76.42857908513582,,,,,,,118.67514618731525,119.63175584632478,0.08133721548639408,0.12629707439104126,951.0,78.5778,0.08262649842271293,101.0,0.6440150405587197,878.0,1006.5999999999999,71.42857142857143,90.47619047619048,781.0,1093.0,12.6,210.9375,,,0.026213715765137535,0.09839301080088919,0.046527705364353314,0.17113443193038003,0.26641847374895694,0.15317616372958573,0.5749457294538887,-2.318785505892817,84.59242580418966,67.03436157628988,1.2619263287518214,17814.712970301356,0.7924392868394351,4.9577489393758265,212.48264672500792,0.6666666666666666,0.6935483870967742,0.9767441860465116,0.10526315789473684,49.13065076999503,49.113430629253045,49.14727776983536,48.38709677419355,0.44724832368485845,0.5527516763151415,56.57832232734591,62.8985652316229,0.609828873789347,0.390171126210653,52.34816579193494,41.87212879900977,0.5099533731616239,0.4900466268383761,54.50429808353171,53.42988245522156,0.4094158545670521,0.8425535200484722,0.5943124741019996,0.5859922331704367,0.5617445703866393,0.15830058103683875,-0.509875029578043,0.0002503639021959769,0.049122237529329635,0.3085746992182927,1.2729656758128876,5.774821391719544,1.5243629868962916,1.0242692044892068,1.1080406805828422,1.4551919721922288,2.1196745537058743,2.0352054020351678,7.921455190228664,1.0436520501349063,Relax
63.50483838079236,946.4354838709677,73.2323096677295,,,,,,,114.39541719583802,115.34363484111577,0.07737696960410417,0.12086974669203561,955.5,74.13,0.07758241758241757,94.24999999999989,0.6401682118293273,886.8,1013.1999999999999,67.74193548387096,88.70967741935483,781.0,1123.0,12.4,210.9375,,,0.04267523636112604,0.0968579732514268,0.03616798480890898,0.17570119442146181,0.44059600803692633,0.24288529455729913,0.5512653090968154,-2.334509566741494,81.56026636285787,65.11792161799234,1.2525010678523016,16685.108639989234,0.7984025129134044,4.929299148737693,207.96124902201277,0.6612903225806451,0.6885245901639344,0.9523809523809523,0.16666666666666666,49.73113616652212,49.75494464497008,49.71002132215233,45.90163934426229,0.4630479853181586,0.5369520146818412,55.50037537410594,59.76551402495143,0.6243338894853836,0.37566611051461635,51.45279666713616,39.91182069233795,0.5258347103301045,0.47416528966989535,53.51486686677041,50.817664732079145,0.5051075749302257,0.6164865543436898,0.6434593764357971,0.729312722864401,0.56505798298255,-0.2658658854982461,-0.36073768223541697,0.0002546056221597327,0.03351685413296362,0.2898349814186454,1.504077396776274,5.748472318416495,1.636904170568735,1.2166985644675914,0.9810173385750259,1.4289919208724744,2.1817610933843223,2.022435451707911,5.7996935758788135,1.2484605166940221,Relax
63.3947376544004,948.8225806451613,80.33159233861436,,,,,,,116.70349145605192,117.612689828705,0.0846645031192155,0.12299822309951584,958.0,85.9908,0.08976075156576199,115.74999999999989,0.6883392376385375,879.6,1018.8,72.58064516129032,88.70967741935483,781.0,1188.0,10.333333333333334,242.1875,,,0.03294008191701875,0.09888935917000674,0.026634125485483426,0.15846356657250893,0.333100367860504,0.20787164286086038,0.6240510756443025,-2.3137536379517254,83.16473053146738,72.33989481961983,1.1496385326359595,18900.22308598575,0.8698386245867565,4.983437040295925,251.696138450595,0.6290322580645161,0.6557377049180328,0.95,0.1111111111111111,51.87770023263545,51.661101062609184,52.12778728350364,44.26229508196721,0.4787759297642519,0.5212240702357481,57.5737208571179,60.07176263991815,0.6935221702161523,0.3064778297838479,60.243202050962076,40.04768394252806,0.5712193409227867,0.42878065907721336,58.92358070707505,51.05111975180998,0.6034592282962418,0.8899547399006477,0.7265333083273087,0.9885023248343408,-0.27995771797766533,-1.163093718852192,-0.20563782093426716,0.00022972521769486386,0.05278061846004764,0.38371868445084223,1.5404450409471488,5.792905987806229,1.6283894088657487,1.3721803479421673,0.7384694664738856,1.3427730194983518,1.954678544497391,2.0195230840212477,4.959441158603717,1.3444959410551007,Relax
63.07448327960286,953.5645161290323,82.48469723306792,,,,,,,117.66059830479624,118.63276669341118,0.08650143313628339,0.12339028593727046,959.0,89.69729999999991,0.09353211678832107,121.74999999999989,0.7010392469651887,879.6,1022.0,70.96774193548387,88.70967741935483,781.0,1133.0,10.333333333333334,242.1875,,,0.019114424320742604,0.11435640809611505,0.038952241580510485,0.17242307399736811,0.1671478200388839,0.11085769368103464,0.6632314657483754,-2.168435320764601,83.88603379983265,82.16452241186214,1.0209520038264346,21653.288833790422,0.979477973746162,5.042493978960201,321.9133597031674,0.6451612903225806,0.6666666666666666,0.95,0.10526315789473684,50.507403094327074,50.51895932521757,50.493572447911625,41.66666666666667,0.44723588932899944,0.5527641106710006,56.10139629872563,62.369931323782396,0.6979777855925833,0.3020222144074167,68.6444035087606,45.154785018820014,0.5700030508386217,0.4299969491613782,62.687402242157916,54.44705200205602,0.6377229093074537,1.0948572945381556,0.867260469816741,1.1851515565765314,-0.9108334584580478,-1.9015080115170546,-0.2096506655747435,0.0006858731529048953,0.09497625491931186,0.33671430982989925,1.5260563034950494,5.857422116838488,1.6408818198019315,0.91653061674783,0.5548008710137486,0.9571603491222738,1.9808843171023163,1.9917850584111085,6.312045096866486,1.3444959410551007,Relax
63.33227713711217,949.6774193548387,89.47584602974867,,,,,,,125.64365431191682,126.66977634951898,0.09421709330578155,0.13230140229855372,959.0,94.1451,0.09817007299270072,132.75,0.7121397934480661,863.2,1025.2,72.58064516129032,88.70967741935483,776.0,1133.0,10.333333333333334,242.1875,,,0.03907734762915781,0.10239266415306776,0.045017311009193275,0.18648732279141883,0.38164206344646634,0.20954425772343138,0.5490596498486455,-2.2789402080731325,89.56905782812822,89.26207652755411,1.0034391010439843,25117.410552994752,0.9965726858357362,5.10694497430592,355.8245893933585,0.6612903225806451,0.6833333333333333,0.9512195121951219,0.1111111111111111,50.966334164588545,50.891060008366615,51.04466849854858,43.333333333333336,0.47965971799627416,0.5203402820037261,62.04138403786083,64.61875372779431,0.6586710467692697,0.34132895323073037,72.44380827222497,52.14990842780109,0.5688463767936824,0.4311536232063175,67.44345294510144,58.716251082478735,0.8814514972751434,0.6228699676455087,1.3127281533542536,1.1367675759845735,-0.43455265035714774,-1.4345526503571477,-0.7824996973843886,0.000510139042508448,0.0492327310465537,0.3573341530291505,2.0368819272610397,5.857422116838488,1.593366806988473,0.9846804896948219,0.0,0.0,1.9504310696468856,1.988552875021885,7.65126105057662,1.2484605166940221,Relax
63.539234895288615,945.516129032258,92.24410629100214,,,,,,,135.37470766509463,136.48046358322026,0.09755952697011587,0.1431754610084246,955.5,98.5929,0.10318461538461539,150.7499999999999,0.681398378485929,850.6,1022.0,74.19354838709677,87.09677419354838,776.0,1133.0,12.4,242.1875,,,0.04912006369662683,0.07027306033670412,0.010993334790981319,0.13038645882431227,0.6989885378731837,0.3767267256089307,0.5389598043412832,-2.655366763613444,96.50626129917868,87.2692711271276,1.1058447040149482,26458.59097797736,0.9042861048837492,5.129536822572803,315.6655570543762,0.6612903225806451,0.6833333333333333,0.9512195121951219,0.1111111111111111,49.03971119133574,49.00067159747932,49.077496160532824,41.66666666666667,0.4412539527061783,0.5587460472938219,64.11448094359547,72.14712976503868,0.7056401600314227,0.2943598399685772,73.30827386988427,47.34788976584015,0.5601748958655015,0.43982510413449827,68.86497543907434,61.020615363217544,0.7502046385285285,0.7675547428065398,0.9596900296158943,1.1339820099317983,-0.7679794737109891,-1.7869175114642641,-0.27292566823493153,0.0003200590433645179,0.045521387392692785,0.37206486849427467,2.3513752571634776,5.889680181354617,1.556953213330017,0.8624968864578968,0.0,0.0,2.141193951461792,2.0031270352074815,7.1338594141469285,1.1524250923329433,Relax
63.46998582093783,947.8225806451613,91.06609456936395,,,,,,,132.48649792015615,133.58586604337066,0.09607926254233923,0.13977984975835414,955.5,100.8168,0.10551208791208791,143.25,0.687361323598768,858.2,1025.2,72.58064516129032,85.48387096774194,776.0,1133.0,12.4,257.8125,,,0.044648553690107715,0.09450178516594163,0.007180741727575664,0.14633108058362498,0.4724625424980757,0.3051200982869258,0.6458080182899759,-2.359136554015981,94.45947174994515,88.06232579283672,1.0726433909110857,26132.775438397683,0.932276289094194,5.1241556465001015,328.39367319659897,0.6290322580645161,0.6499999999999999,0.9230769230769231,0.10526315789473684,50.08183306055645,50.09811793940975,50.06660116238471,45.0,0.4644456544377439,0.535554345562256,64.37442556378011,69.12699665591342,0.6762118160478204,0.3237881839521795,72.41549921966168,50.10956691901151,0.5629156218844472,0.4370843781155526,68.51303231466072,60.37180783891417,0.6955443230519437,0.9375613256324536,1.0029443022524882,1.1643249858681706,-0.9155781992149219,-1.9448680396098892,-0.3278718637345464,0.0007923284122170988,0.08242681006574155,0.3967218749988035,2.3978952727983702,5.889680181354617,1.6225332596928852,1.0582539221364795,0.0,0.0,1.9342668871312396,1.9949658150935436,5.280366503995176,1.2484605166940221,Relax
63.87022211594126,940.1428571428571,93.0287602326009,,,,,,,129.12303460078735,130.1238487874844,0.09895172794836747,0.1373440574693073,949.0,105.26459999999999,0.11092160168598524,143.0,0.7204660308690859,852.2,1022.5999999999999,71.42857142857143,85.71428571428571,774.0,1133.0,15.75,125.0,,,0.038253141300311835,0.08796323312979451,0.014163063950321969,0.14037943838042832,0.434876481221049,0.27249817880483185,0.6266105217732395,-2.430836357152146,92.01145587172313,92.74002331737606,0.9921439803485965,26807.664271169768,1.0079182253856374,5.135229085886761,373.8974388970892,0.6349206349206349,0.6557377049180328,0.925,0.10526315789473684,48.273782602140805,48.21083326337803,48.33514816319246,47.540983606557376,0.45179358640858047,0.5482064135914195,61.871363115503534,68.15405644447044,0.6335112967700249,0.36648870322997523,73.81495894934534,56.143243228494704,0.5433318490768423,0.4566681509231578,68.10548340061918,62.43812605311749,0.7973620447949888,0.7283599649163611,0.9873856037634425,1.1615420272531694,-0.5042308347532609,-1.5058984932818666,-0.2608923720708269,0.00023565269932862145,0.038603301163862534,0.32910593814679556,2.833213344056216,5.9137878600078535,1.62542402692058,1.4836500411109528,0.0,0.0,2.3356294456693973,1.9654510820564983,5.42299108055157,1.1385295092380794,Relax
63.34633299723611,950.516129032258,93.59342521665909,,,,,,,133.15798579254593,134.24637858778323,0.09846589906049114,0.1400901907136674,956.0,103.0407,0.1077831589958159,138.9999999999999,0.702875044704216,866.6,1030.8,75.80645161290323,87.09677419354838,725.0,1133.0,15.5,281.25,,,0.039371901435208946,0.07698903444371703,0.01518194453269029,0.13154288041161627,0.5113962231074848,0.29930849402117926,0.5852770914154187,-2.5640922770915515,94.92652464915804,92.28408118058206,1.0286337950681357,27521.002291004308,0.9721632759827428,5.146634356441177,358.8607787262882,0.6129032258064516,0.6333333333333333,0.8947368421052632,0.10526315789473684,50.94478889873045,50.87520035481561,51.01673290339483,45.0,0.49013308135954914,0.5098669186404509,66.46584335832453,67.79067044955373,0.6299202625190311,0.37007973748096906,73.24358306609608,56.140263438855925,0.5580453220469562,0.44195467795304405,69.93686722213631,62.23867037053467,0.7434779764517778,0.8026395514631757,0.8388255398512596,1.0787656402456194,-0.3105917349186349,-1.160350007855787,-0.20106120492447727,0.00010853986992606178,0.0368013526752543,0.31407619429068845,inf,5.921938245870746,1.6733548125974935,0.9985774245179969,0.44793986730701374,0.6770125502755524,2.278533360830971,1.9859218679737245,5.749660110086073,1.2484605166940221,Relax
63.16188486046912,953.6612903225806,97.14784128924445,,,,,,,145.1349852186792,146.33254104369954,0.10186828623020204,0.15218714096027383,966.0,120.0906,0.12431739130434782,155.0,0.6693619814882602,862.4,1044.6000000000001,75.80645161290323,88.70967741935483,725.0,1133.0,15.5,296.875,,,0.03620585929431822,0.08027924426522812,0.01896869835652282,0.13545380191606915,0.45099900510648316,0.26729304591060765,0.5926688149733244,-2.5222441688348796,103.47273208025872,90.62465225107577,1.141772459369966,29459.280937406504,0.8758312497323708,5.17619225203637,317.4876097504848,0.6451612903225806,0.6666666666666666,0.95,0.1111111111111111,50.58503401360546,50.50426249675921,50.66451384108087,45.0,0.5034656015889003,0.49653439841109986,73.42286201631387,72.91570475556001,0.6334323276834092,0.3665676723165908,72.12676688138352,54.868543764774465,0.5598804668946574,0.4401195331053428,72.77769976932531,64.52618497504315,0.6295211893046708,1.2828174568951438,0.8142697747800591,1.2709299177522428,-1.6155359728954144,-2.623443036748923,-0.14401782925728415,0.0010329700720987044,0.130325828143218,0.3575975989887761,inf,5.889680181354617,1.5428420299416266,0.0,0.44793986730701374,0.7489330683884977,2.26774820999669,1.9875321591878978,5.241005674901271,1.056389667971865,Relax
63.18626768335591,953.983870967742,105.084274054791,,,,,,,159.98457917490202,161.3067183258316,0.11015309299536818,0.16770155559612365,954.5,124.5384,0.1304750130958617,164.5,0.6568400191865263,856.2,1047.6,75.80645161290323,90.32258064516128,725.0,1227.0,20.666666666666668,164.0625,,,0.03954477907808011,0.08565937512111987,0.03063706034475581,0.15584121454395577,0.4616515007512597,0.2537504548703726,0.5496580309117087,-2.457376601695208,114.06107437914386,92.45213353154982,1.2337311214156013,33128.69042705101,0.8105493836068473,5.2271743785770335,299.7480793885426,0.6612903225806451,0.6833333333333333,0.9512195121951219,0.16666666666666666,50.504547153357414,50.42574976172285,50.586600966886174,46.666666666666664,0.4921299507653564,0.5078700492346437,80.01885194544262,81.288426810545,0.6403833299025252,0.35961667009747494,73.98385330164609,55.44173919689052,0.5509094033374642,0.4490905966625359,77.06045424219272,69.57583912001837,0.6161255650469051,0.9316146153702114,0.6086966890003871,1.043268678319862,-0.5741756135544716,-1.4968472247301738,-0.03352815407819505,0.00021374112797009303,0.05512478100821128,0.3052349099086915,1.897119984885881,5.857422116838488,1.5002211006206931,0.8699839100151439,0.6475667913614566,0.8208535865014429,2.1319012666008796,1.9992663180243018,4.252276951091221,1.2484605166940221,Relax
62.873831203282066,958.2295081967213,105.63181235508914,,,,,,,163.47344330706034,164.84185538914437,0.11023644278485659,0.17059946694263123,959.0,124.5384,0.12986277372262772,163.0,0.6461710857626926,862.0,1048.0,78.68852459016394,91.80327868852459,725.0,1226.0,15.25,164.0625,,,0.043179872043951836,0.07996275505093958,0.029115364000094113,0.15225799109498553,0.5399998038642424,0.283596753992467,0.5251793648128139,-2.526194314579083,116.56079376903621,93.79845565085746,1.2426728453068157,34347.731313192366,0.8047170289241334,5.242868166911943,301.92485819612045,0.6885245901639344,0.7118644067796611,0.9761904761904762,0.23529411764705882,50.69580078125,50.665932995805086,50.71640158670837,45.76271186440678,0.47507568226297137,0.5249243177370286,80.34580980077537,84.45593575791912,0.6517611089199582,0.3482388910800416,75.7251093400164,55.35212821498769,0.544515369868018,0.45548463013198215,78.06965267342942,71.40260213281515,0.5127502850906296,1.191686926213546,0.6396666605804822,0.9611400768012952,-0.8212869834123957,-1.4403878159339656,-0.2302366845273201,0.00024753265721991094,0.077789726169019,0.34299455841274895,2.0368819272610397,5.83237668182518,1.6117090038382103,0.888786465544228,0.7838735539822873,0.911579959923785,1.8296689082266904,2.0082594616115563,6.68071426037232,0.972252022551293,Relax
63.05993626001122,954.655737704918,103.67800879741432,,,,,,,160.23461964673345,161.566638050909,0.10860250947285562,0.167845447650011,950.0,120.0906,0.12641115789473684,157.0,0.6470387549581449,857.0,1046.0,75.40983606557377,88.52459016393442,725.0,1226.0,15.25,164.0625,,,0.04214449638975669,0.10832606657653708,0.03439769240187938,0.18486825536817314,0.3890522172701597,0.22797043389533858,0.5859635899132657,-2.2226094653253647,114.24486537931024,92.79909652784438,1.2310988970138417,33306.60073819936,0.8122824270459538,5.229500420948543,301.51630142123673,0.6557377049180327,0.6779661016949152,0.95,0.25,50.96593797661413,50.97946362487674,50.940272956444545,44.06779661016949,0.4804532011518278,0.519546798848172,79.19842063140196,82.3575297824334,0.6694306199399144,0.33056938006008557,75.92705142092942,53.35499207110539,0.5555639576382059,0.44443604236179407,77.5799812064457,69.38846406562162,0.5623176927200005,2.162341760885034,0.5694423345532944,1.626250332720492,-1.9661876113458518,-2.9317111304618004,-0.011266897174176517,0.005292513139068581,0.46510277496172786,0.4104678850086376,3.044522437723423,5.766802911333378,1.5835545491234553,1.4776813246726679,1.0357836815978831,1.1634900875393808,1.833033260545245,1.9920622030376964,4.195077336091373,1.2639276293166808,Relax
62.676570919263376,960.7540983606557,108.57895065154278,,,,,,,167.9264223799618,169.32298808426845,0.1130142987022508,0.17478605885366122,972.0,127.50359999999999,0.13117654320987654,171.0,0.646586458001616,857.0,1056.0,75.40983606557377,90.1639344262295,725.0,1226.0,20.333333333333332,179.6875,,,0.028286778101559495,0.1297320462360337,0.04985534300993072,0.20787416734752392,0.21804002112241952,0.13607644693180984,0.6240893127386422,-2.042284138487043,119.72943308515518,94.87128583352401,1.26201971474542,35684.99051376926,0.7923806485081133,5.25945569560516,300.69668397426534,0.6721311475409836,0.6949152542372882,0.926829268292683,0.26666666666666666,50.93955715140635,50.83701525560477,51.042782291680744,44.06779661016949,0.49240494882553143,0.5075950511744685,84.02622673701953,85.31243675107856,0.6709567481024266,0.32904325189757355,77.71091980064172,54.42034380123342,0.5612619683063147,0.4387380316936856,80.93019781244448,71.55342648626697,0.49026826493749504,1.260457932406253,0.6450946254386681,1.0510511001800633,-0.9184123572861562,-1.779479002918194,-0.17792937447233032,0.0005012943876576502,0.10741634074558136,0.35074256936770265,2.9444389791664407,5.799589796579279,1.5024101493710054,1.136998617702687,1.0107628169586376,1.0826833350715828,1.9576995656461373,2.008257865441775,6.2182453194814755,1.2639276293166808,Relax
63.0227341886194,956.2096774193549,103.09777900595049,,,,,,,163.99395230752452,165.34682377096797,0.1078192173124556,0.17150417547552535,972.0,113.4189,0.1166861111111111,153.25,0.628668176815567,858.0,1045.4,74.19354838709677,87.09677419354838,725.0,1226.0,15.5,304.6875,,,0.01666935094703457,0.12938838037210096,0.05892417342742545,0.20498190474656097,0.12883190050834623,0.0813210852325941,0.6312185484473685,-2.044936697144313,116.91786033610848,86.97672416484818,1.3442430886970687,31947.271918932296,0.7439130678137,5.211403888226507,258.8124868074328,0.6774193548387096,0.7049180327868853,0.9302325581395349,0.26666666666666666,49.39434724091521,49.48117709002943,49.29841451768596,44.26229508196721,0.4664716083472769,0.5335283916527231,79.85732068299478,85.40452759270632,0.6510466385925797,0.34895336140742034,70.17931051516625,51.379129245871425,0.5322229743593656,0.4677770256406344,75.17422194825429,70.47605357636485,0.4709679804070883,2.219672010732667,0.7225483714557199,1.4727213145847655,-1.4790240575574423,-2.210627034331382,-0.1620343278188072,0.005718620098498371,0.49171887521439206,0.3995071051102035,2.3513752571634776,5.825164052322358,1.6012617550109307,1.2257619008159346,0.934417404570842,1.0357836815978831,2.032320012124463,2.0084190259063104,4.004598452569959,1.2484605166940221,Relax
64.35181740881671,938.015873015873,110.45265984377316,,,,,,,170.61657636065806,171.9609589145121,0.1177513760920164,0.1818909266557485,950.0,134.9166,0.14201747368421053,172.0,0.647373556542904,831.2,1038.6,76.19047619047619,85.71428571428571,686.0,1226.0,21.0,125.0,,,0.033791485708163836,0.15661956331323937,0.05757217690013014,0.24798322592153335,0.21575520320268557,0.136265207384858,0.6315732152093093,-1.8539355778560598,121.59476014779278,97.19842171301339,1.2509952117001617,37129.91423745395,0.7993635712169934,5.276694056057233,310.78750998867895,0.6984126984126984,0.7258064516129032,0.9333333333333333,0.2857142857142857,51.45743816049239,51.48119127672768,51.415142059317766,43.54838709677419,0.5127982220951551,0.487201777904845,87.09844627926662,84.89685158965594,0.5519972918771561,0.44800270812284404,72.21504505442064,65.05782390526744,0.5280753250393357,0.4719246749606641,80.00360015797507,75.63066792355087,0.47443647385311,1.4134790347764936,0.7102771626248692,1.0332145576000586,-0.5326190664206614,-1.2089619277429,-0.2715301132667639,0.0009174029099999515,0.15020643151438204,0.41770370336196594,3.1780538303479458,5.818549764769758,1.5714856929329704,1.1442212525609734,0.9917737587646211,1.6215223608985585,2.0211473406096063,1.973038410264446,3.5173595273619553,1.1385295092380794,Relax
64.77619250997127,929.8888888888889,106.02116512846447,,,,,,,152.35066723336533,153.59318842451052,0.11401487467513206,0.16383749612860413,944.0,126.02099999999999,0.1334968220338983,164.0,0.6959022041305867,831.2,1027.2,68.25396825396825,84.12698412698413,687.0,1226.0,15.75,218.75,,,0.019516654833238948,0.08767105940262197,0.034421669377646145,0.14160938361350706,0.22261228467207578,0.1378203501436426,0.6191048726114199,-2.434163429473566,108.60678507903451,104.25018023640587,1.0417899022596342,35569.98199185215,0.9598864395124275,5.258053755275735,400.27333730260983,0.6349206349206349,0.6612903225806451,0.8780487804878049,0.2,50.246963022293414,50.297787769518166,50.18618498075315,40.32258064516129,0.4681331281074865,0.5318668718925136,74.30960928969338,79.20667093945734,0.6624415316096419,0.3375584683903582,84.84975463861795,60.56912759062522,0.5613112849558409,0.4386887150441591,79.75399330134057,70.5064392038093,0.5268434673651403,1.2266448702154311,0.7622515870815962,0.9774502965556351,-0.14342239910013355,-0.7928937962218172,-0.32456315214015913,0.0006878512031143662,0.11437195842497995,0.4250840438336949,3.1354942159291497,5.818549764769758,1.5270265805713417,1.2246036356346055,1.100205019788146,1.5793089199428172,2.046229303989941,1.9564739901210608,3.5453389486571463,1.2334069683412527,Relax
65.29972307359351,920.25,110.02366267856361,,,,,,,156.2308527950845,157.44603509855042,0.11955844898512753,0.16977001118726923,900.5,129.7275,0.14406163242642975,184.4999999999999,0.7042377399224264,817.8,1025.8,65.625,85.9375,725.0,1226.0,16.0,164.0625,,,0.017359755080417393,0.06272927895138888,0.016414966257630698,0.09650400028943698,0.2767408675918318,0.17988637806051172,0.6500173957892917,-2.7689269714176454,111.33115908912016,107.66831332292897,1.034019719016172,37657.76257571559,0.9670995452112459,5.2828246229370075,416.5039073930661,0.65625,0.6825396825396826,0.9069767441860465,0.2857142857142857,48.5462439152743,48.44828251134512,48.62686719619554,39.682539682539684,0.4424465227165869,0.5575534772834131,74.07243621247794,83.15138739555974,0.689060357687183,0.3109396423128167,89.37510032133815,60.03796412566918,0.5615988315820021,0.438401168417998,82.08116216252323,72.52141188008405,0.5607466181403042,2.2410106465451634,0.8860630782940143,1.535479360778245,-1.4508589169373707,-2.1429708339300038,-0.21021276338628797,0.003795766017493842,0.4433487991114,0.41529284816264145,2.4849066497880004,5.812500000000001,1.398030351412618,1.5377678907400092,0.9678002527269727,0.9678002527269727,1.8979908398586731,1.9587452697225007,5.006806338737752,1.3125,Relax
65.03575329245858,927.953125,115.04939307628798,,,,,,,163.69212293543973,164.98757265183426,0.12398190164647377,0.17640128420866058,933.5,147.5187,0.15802753079807177,191.75,0.7028401306864567,815.6,1036.4,67.1875,87.5,725.0,1226.0,21.333333333333332,109.375,,,0.00806120752578041,0.0327535266621212,0.008764063383940578,0.04957879757184219,0.246117238272941,0.16259384899561774,0.6606357609754387,-3.41874463835884,116.66383143362017,110.98266564528319,1.051189667821593,40676.2829522022,0.9513031098111202,5.316311369672101,422.31261985394275,0.671875,0.6984126984126984,0.9090909090909091,0.2857142857142857,50.959902794653686,50.87732249310769,51.04870017917861,36.507936507936506,0.46392258241849393,0.5360774175815062,79.47123642774686,85.42814373457662,0.7189136271439546,0.28108637285604565,94.10084204411173,58.84032291143421,0.5850435586405998,0.4149564413594,87.09375951457632,73.34899911470276,0.5846868507179862,1.1795455801508958,0.8387211004407606,0.9548478674734848,0.1559733331723372,-0.3397289857384469,-0.401549572151448,0.0006882889692483388,0.1075571982630192,0.4058051698868761,2.120263536200091,5.78125,1.3435368534550995,1.3175493768466497,0.8685721591877991,0.8548866300825879,1.9143363781610685,1.959391228133209,5.5123395787884,1.03125,Relax
64.45516783276963,933.2857142857143,103.64539866098481,,,,,,,135.68916090497711,136.79608821693057,0.11105430745857854,0.1453886616156191,955.0,126.02099999999999,0.13195916230366492,158.5,0.7638443481389608,823.2,1026.8,57.14285714285714,82.53968253968253,745.0,1226.0,15.75,242.1875,,,0.008527911079020283,0.029757818850601286,0.011351760268961852,0.04963749019858342,0.28657715546406615,0.1718038330484255,0.5995028904876123,-3.514663363013626,96.72944161798478,109.2652616744152,0.8852716786256897,33204.019757986985,1.1295967375262885,5.228160773576526,493.70273244950243,0.6507936507936508,0.6774193548387096,0.9047619047619048,0.2,50.218681661980625,50.29462842374814,50.13685524584157,38.70967741935484,0.420038790520676,0.5799612094793238,62.691084941541256,73.66489254348113,0.7061312505982805,0.2938687494017193,91.81736523133998,59.23232943885579,0.580430175898785,0.4195698241012149,78.61488627853132,66.83930447048266,0.6168853199795219,1.5537536485671988,0.9383566843599067,1.0776629530131583,-0.2481197266486017,-0.5023041806863444,-0.4103421132547535,0.0008803431419755454,0.16668310711580925,0.38124239579653185,1.5755363607584192,5.67958329648145,1.2794058493136113,0.5909984302806723,0.6463535756254107,0.8598425498690881,2.1825311291026166,1.889138519160295,3.8575714243514,1.1385295092380794,Relax
64.43272944662809,933.4603174603175,104.70247022332059,,,,,,,131.94378079440722,132.9787082912331,0.11216595742193575,0.1413491053946343,955.0,99.3342,0.10401486910994764,152.0,0.7935385024813437,823.2,1013.5999999999999,52.38095238095239,80.95238095238095,745.0,1226.0,15.75,250.0,,,0.016305338188772618,0.0421616848326133,0.01527470845954658,0.0737417314809325,0.38673355330809644,0.22111412169632488,0.571747963953289,-3.166243412724626,94.03014638615869,110.19608022658072,0.8532984675391149,32552.408846338636,1.1719228828383668,5.219553241420984,516.5652320664897,0.6190476190476191,0.6451612903225806,0.9,0.125,51.70812603648424,51.54978015894201,51.89055708152941,40.32258064516129,0.4426794198086287,0.5573205801913712,62.58201176633196,70.2194452541693,0.7131499766706277,0.2868500233293723,93.0586145958501,59.019237091003184,0.5991491883116157,0.40085081168838427,79.29821545035007,64.86154807976497,0.6581411202160411,1.8249217866894138,1.054037329341464,1.2969106084676687,-0.4825467156988381,-0.8770282306705433,-0.3669130475082987,0.0018167061022707793,0.2653485554528944,0.3734800712831876,1.2130226398458541,5.723311669531665,1.150821871723883,0.8953176205342542,0.8926928943728978,1.037523053185424,2.0334197118002253,1.8802416761582763,4.299248960114127,1.0436520501349063,Relax
64.23759327304364,935.7460317460317,96.90966333086811,,,,,,,115.64412875770664,116.57102133153917,0.10356406550828966,0.12358495236354185,961.0,106.74719999999999,0.11107929240374609,168.4999999999999,0.8379989920103053,823.2,1020.8,49.2063492063492,77.77777777777779,745.0,1088.0,15.75,242.1875,,,0.00774253711664989,0.01973791102342722,0.005462881620448867,0.032943329760525976,0.3922673026269172,0.23502594221447856,0.59914741973284,-3.925214075124374,82.42815967337302,109.17752040806627,0.7549920474955488,28272.141317479756,1.3245172625555315,5.158328812938298,578.4300418539704,0.6031746031746031,0.6290322580645161,0.8717948717948718,0.11764705882352941,51.17031398667934,51.124280124369825,51.21755505584588,40.32258064516129,0.4423857369075485,0.5576142630924512,54.83275615488412,61.56111184671114,0.665596018265843,0.3344039817341568,89.07146269939258,63.13481998900795,0.5845415208214156,0.4154584791785847,73.96065377939229,62.352930912859726,0.7133512059970737,0.890220535459944,0.9506721650630694,1.0239617875571358,0.44051020589312806,-0.2935778401269371,-0.4176725097043504,0.0006261116143376557,0.07355635044610019,0.40153606851257306,1.5198257537444135,5.723311669531665,1.1427830574836253,0.6763294863418711,0.8762492286712971,1.1012370148294661,2.0171291096855906,1.8407170789849514,4.411794344058418,0.8538971319285595,Relax
64.86115403962543,927.921875,98.47331516509016,,,,,,,127.76634179328332,128.77990209983787,0.10612242023617577,0.13769083932123416,956.0,100.07549999999999,0.10468148535564853,175.75,0.7707297069240101,817.8,1012.4,51.5625,82.8125,745.0,1145.0,16.0,242.1875,,,0.010247228176996658,0.022718780736942397,0.006974286766901504,0.03994029568084056,0.4510465722455746,0.25656365338107084,0.5688185415172238,-3.7845633513164443,91.06114205533507,102.29889541972712,0.8901478523469474,29265.36263011616,1.1234088779335012,5.173324019832892,459.6939492692489,0.609375,0.6349206349206349,0.9,0.10526315789473684,49.05628862535495,49.30334212311268,48.78121940810586,41.269841269841265,0.40656361608553643,0.5934363839144634,58.068438487590626,70.15570241003336,0.6600503656768203,0.3399496343231796,83.11118650780452,59.645575538854466,0.547977288464726,0.4520227115352737,71.69174593745839,65.11304501406133,0.701218492793311,1.2176441778284355,1.0072423939928186,1.0796192029853295,0.20676802097965918,-0.3051300241778536,-0.4405599679197014,0.0008779763258488045,0.12270904202591242,0.40538839584102204,1.6094379124341005,5.738204882778696,1.2131634255341657,0.6141839432053261,0.8654928084817017,1.0256523382916558,1.8788213256976385,1.902643289877562,2.8826749099334688,1.21875,Relax
65.49213042523124,915.8153846153846,98.301178195459,,,,,,,120.94187653579715,121.78441383190606,0.10733733004140632,0.1320592322071431,930.0,109.71239999999999,0.11797032258064515,166.0,0.8127968658263971,815.8,1004.4,52.307692307692314,81.53846153846153,713.0,1118.0,10.833333333333334,273.4375,,,0.008697544068671702,0.03563811571374455,0.007060954783535316,0.051396614565951564,0.2440517377106254,0.16922406547830324,0.6933942247891467,-3.334339547761916,86.11458486336954,106.19194959473228,0.8109332693487088,28728.845857781933,1.2331470884196647,5.165288289115424,523.8011738254075,0.6153846153846154,0.640625,0.926829268292683,0.1,47.130584192439855,47.08343753697288,47.159995367155105,45.3125,0.41278612662425046,0.5872138733757494,55.37885390938909,66.05102645105598,0.6025451959647202,0.3974548040352799,82.43021038025641,66.94767042546607,0.5271787886849,0.4728212113151001,70.21950243219753,66.50085965848457,0.6486491064679697,1.3082477687410479,0.929942513910174,1.0187596088616189,0.014014375775584398,-0.3124802834280511,-0.43210988233756725,0.0006397781447693764,0.11888096765415093,0.3119579342918035,1.5686159179138452,5.868521659182301,1.2437829208308677,0.577622650466621,0.7911116247102985,1.028964350650323,2.0452046586533528,1.8626365979363189,3.196759160210441,1.0191699375894308,Relax
66.64171618751166,905.2153846153847,102.21369959362289,,,,,,,128.83116373766092,129.84957337761725,0.1129164410269632,0.14232100550566731,909.0,114.16019999999999,0.12558877887788777,159.0,0.79339265926186,814.2,991.2,49.23076923076923,78.46153846153847,583.0,1118.0,13.0,289.0625,,,0.005397998660528302,0.03326319258094417,0.005454744390300401,0.04411593563177287,0.16228143607660528,0.12235938291288541,0.7539949477346591,-3.4033038212207143,91.81751386949334,112.38354642889907,0.8170013919927585,32417.396633984135,1.2239881226651124,5.217748244691039,550.2245040478226,0.5846153846153846,0.609375,0.8974358974358975,0.1,50.05279831045406,50.11911184260003,49.98184946402999,45.3125,0.45890280709219566,0.5410971929078041,62.1993722216061,67.54034655447374,0.5830929517138422,0.4169070482861578,85.8166641450836,72.56418994894402,0.5333800293687795,0.46661997063122024,74.94418506379259,70.09728980368942,0.568657576198641,3.867448657219663,1.3070625827510103,2.1729427784537387,-1.4203825830952468,-1.6612006010798184,-0.2761107457531922,0.03500694802154323,1.9907224149925702,0.34555051986594476,1.4880770554298328,5.868521659182301,1.2376011797809738,0.5698837754670375,0.6730124649389422,0.7185928541374309,1.7797742873977296,1.8675099574244227,2.80525672048071,1.0191699375894308,Relax
66.62204657332411,902.876923076923,97.76126976151964,,,,,,,115.05868068077261,115.96439998332272,0.10827751519925669,0.12743562022680013,889.0,130.4688,0.14675905511811022,170.0,0.8496644423792395,800.4,994.8000000000001,50.76923076923077,78.46153846153847,744.0,1118.0,13.0,125.0,,,0.00715998307674115,0.039082756385529695,0.009105826213899448,0.05534856567617029,0.18320056564362788,0.12936167341051444,0.7061204912552295,-3.2420739224235287,81.99921360443666,110.52227204978924,0.7419247911180906,28471.435501144133,1.347845512067317,5.161379474351775,595.867793463166,0.5846153846153846,0.609375,0.8974358974358975,0.1,50.549048316251834,50.52857278734838,50.56719689406015,45.3125,0.46466036560033214,0.5353396343996676,55.897440098128,59.998280398638514,0.6037912040621808,0.3962087959378194,85.88022929337195,69.56837525460456,0.5543938907017261,0.44560610929827377,72.45666840604096,64.95980482713571,0.4442923913862035,1.5177035267914605,0.7859543871349993,1.0259342914261507,-0.2550374728126066,-0.9066238850050419,-0.34187958975196764,0.001444933749336955,0.1968818219046089,0.36119825257821425,1.83258146374831,5.764600312995171,1.378382799582868,0.6872180489056163,0.8047189562170501,0.8605048440456026,1.7454719893450765,1.883910755560461,3.914850786246356,1.111821750097561,Relax
66.54781474676697,903.0923076923077,94.38348026086898,,,,,,,109.57816844609147,110.42601487831007,0.10451144302407937,0.12133662031304314,908.0,115.6428,0.12735991189427312,165.0,0.8613347129205055,800.4,988.8,49.23076923076923,76.92307692307693,744.0,1118.0,16.25,218.75,,,0.006763780496389593,0.047873268391451854,0.009835912877265948,0.06447296176510739,0.1412851205621323,0.10490879139431958,0.7425324830875188,-3.039198001504606,78.08298393985963,108.95063821502065,0.716682207824778,26726.12854088013,1.395318579255829,5.133906162803459,608.0833988927938,0.5846153846153846,0.609375,0.8974358974358975,0.15789473684210525,48.76590821442343,48.77648420527038,48.76070634534873,50.0,0.48291805036488,0.5170819496351202,54.270705945376484,56.157587227146806,0.5617011653834386,0.4382988346165615,81.65493568563626,72.12983464305822,0.5349611724564697,0.4650388275435304,69.3283421323304,64.63894974707402,0.6574448762222157,3.63771099086191,1.3228788070358157,2.387817365298642,-1.6698818765188186,-2.4929158638097615,-0.20725036679989178,0.03648827753156798,1.9670038473329887,0.2827306072545417,1.6582280766035322,5.764600312995171,1.339457278580667,0.8137822925653936,0.9010345564147114,0.963863163484938,2.0324296639162176,1.8336822072777537,4.090123328380552,0.9265181250813006,Relax
66.14848207167238,908.4153846153846,90.4528351386256,,,,,,,106.90796275301479,107.75087006609272,0.09957210838841371,0.11768620893433979,914.0,103.782,0.11354704595185995,135.0,0.8460813657781057,816.0,988.8,47.69230769230769,75.38461538461539,744.0,1118.0,16.25,132.8125,,,0.011275480955081565,0.06743181496335703,0.0108400192829753,0.08954731520141389,0.16721307236367208,0.1259164602503184,0.7530300022025934,-2.6966383403386947,76.19137090248473,103.91739698830702,0.7331916802251882,24873.902070968852,1.3638998190662308,5.102714030131592,566.9316758007426,0.5692307692307692,0.59375,0.868421052631579,0.15789473684210525,49.56452889944576,49.56503398484837,49.56252631643284,50.0,0.5032783030475368,0.4967216969524633,54.052884157224064,53.6996349489528,0.531939099784515,0.46806090021548497,75.79127562138969,71.09506267321196,0.5219183529879623,0.4780816470120376,65.82564753206664,63.00062987843348,0.7012627004639591,3.671301641468595,1.3991517930775481,2.2873403395885585,-1.3507661548519057,-1.7869637241701684,-0.25807257663641137,0.03398248372810178,1.8768149138880827,0.3836196977897188,1.8718021769015913,5.764600312995171,1.3483014539692262,0.8348390021215469,0.9544280814892262,1.0172566885594527,2.2534832174272146,1.8186630056991908,4.547477154191779,1.204473562605691,Relax
65.67463767160744,914.1076923076923,87.04006316722113,,,,,,,107.69466386502164,108.52873289177955,0.09521860925104556,0.11781397834334292,916.0,100.8168,0.11006200873362446,128.0,0.8082114753272474,837.8,994.8000000000001,46.15384615384615,73.84615384615385,744.0,1118.0,16.25,109.375,,,0.015589648192780296,0.07424966217742829,0.012126561263417907,0.1019658716336265,0.20996254710933232,0.15289084419143154,0.7281815080659017,-2.6003220511086242,76.74140298136082,96.82139133702071,0.7926079342759652,23342.69129649393,1.261657821926151,5.0751210365569435,488.6218628405001,0.5538461538461539,0.578125,0.8648648648648649,0.09523809523809523,48.7857847976308,48.76988332791325,48.803919373743824,51.5625,0.4844486117790971,0.5155513882209031,53.42232159354779,55.1105670736076,0.5072882333494477,0.49271176665055244,68.96023196330196,67.96225590726144,0.49847418061469184,0.5015258193853084,61.68248550794973,61.87100625971221,0.7072311979176554,3.274932115738658,1.3664328030865,2.1493420818820024,-0.9270699064314574,-1.5091433154839606,-0.2609387763999749,0.03039419585013796,1.5903689564475678,0.34329649446087984,2.03688192726104,5.733831082225939,1.4172062039687954,0.7280876661537349,1.058526626149315,1.1086943000148528,2.2893262233483695,1.8667553433423958,4.1231313282536055,1.111821750097561,Relax
65.47805225666298,917.65625,84.73585825731142,,,,,,,104.18695040608796,105.02331928408078,0.09233943348319311,0.11353592416124007,920.0,94.1451,0.1023316304347826,126.5,0.813305869180715,846.8000000000001,989.6,46.875,71.875,744.0,1118.0,12.8,218.75,,,0.007996990055717754,0.05474741270961838,0.007344113092988979,0.07008851585832511,0.14607064808950854,0.11409843621004384,0.7811181623574853,-2.9050251678474743,74.26270124849343,94.7277744617717,0.7839591046073066,22100.288807013018,1.2755767413415149,5.051368059052899,483.3301834499229,0.546875,0.5714285714285714,0.8333333333333334,0.15789473684210525,49.790532048596546,49.77836587825502,49.802476759207174,50.79365079365079,0.5230003217032725,0.47699967829672746,53.706114867802036,51.289893992934424,0.5088809468808588,0.49111905311914106,67.57490276037747,66.38511709265725,0.5142554957703699,0.48574450422963017,61.03570372031446,59.31962996012477,0.6634460921691256,3.542570137860029,1.3715595765710105,2.0437824505100934,-0.9194523295923638,-0.9819032892423771,-0.31024430066890507,0.029918761529439567,1.6525093304255645,0.321310528513143,1.9459101490553135,5.738204882778696,1.4238859650339455,0.7611306094308558,1.0063379226837874,1.0621238105123396,2.3093014438904076,1.8664018769066357,3.6069335050080573,0.9375,Relax
66.06199462783549,909.6461538461539,87.47364438239933,,,,,,,111.61345125028612,112.47163663617172,0.09616227586138239,0.1226998550792125,897.0,90.4386,0.10082341137123745,114.0,0.7837195553271191,836.0,1001.2,52.307692307692314,73.84615384615385,744.0,1118.0,16.25,148.4375,,,0.016646023577456114,0.0843631286820395,0.013585116801538594,0.1145942690610342,0.19731396686571642,0.14526052405456902,0.736189770861113,-2.472624836789963,79.52945695658634,93.05447286742815,0.8546548543656738,23249.581667893603,1.170062973248074,5.07338525295293,435.51837278918083,0.5692307692307692,0.59375,0.8421052631578947,0.15,48.61319340329835,48.755504101380126,48.46038328710131,48.4375,0.4795580997486465,0.5204419002513533,55.08607982490848,57.38618826141533,0.5224714661596938,0.4775285338403063,67.26180875993991,64.30384127698896,0.5043527846621494,0.49564721533785044,61.47612182032516,60.94324657478789,0.6528347857438112,1.4843923906945244,0.916929008500172,1.1022751893332932,-0.27480175216331304,-0.6052075071680099,-0.3751366673697374,0.0006589446615045584,0.14628902414210396,0.3736266402371826,3.1780538303479453,5.826138774533633,1.5173941130183342,0.0,1.3143738430069454,1.4357507969523704,1.989263518571825,1.8979638231041673,2.904809009317034,1.297125375113821,Relax
66.56831065402473,901.8787878787879,84.37854542322312,,,,,,,105.96429006618581,106.73833029350867,0.0935586317776481,0.11749282884833451,887.5,83.76689999999999,0.09438523943661971,121.25,0.7962922732792327,835.0,986.0,50.0,71.21212121212122,744.0,1118.0,13.2,125.0,,,0.025087393221195353,0.11188353451045337,0.02236840661101586,0.15933933434266456,0.22422775014183538,0.15744632877180267,0.7021714692860715,-2.1902968191697987,75.47539716306947,91.42116717528992,0.8255790151787692,21677.142938885412,1.211271097756115,5.0429721513132675,442.9432700902349,0.5454545454545454,0.5692307692307692,0.8108108108108109,0.21052631578947367,47.9117415287628,47.954765429878485,47.87128434923657,52.307692307692314,0.501997676228475,0.49800232377152515,53.50102218649657,53.287692059236335,0.5000607060174475,0.4999392939825524,64.64845144632841,64.64060282271525,0.500846244130628,0.49915375586937205,59.337094845502335,59.236752351407745,0.6622550218951019,3.6297593935048003,1.367732152280933,2.1314054303971885,-1.0808815402360779,-1.2701683220187001,-0.2896077410853195,0.033179552937036165,1.785262763719962,0.3828332683527207,2.4849066497880004,5.851138248113551,1.4287714850194924,1.1303653426677984,1.170532806781055,1.2624640018123843,1.934370041238026,1.8814572351088066,3.071353295275354,1.2821442071366418,Relax
68.27781660844337,880.6119402985074,89.46506940224154,,,,,,,99.53878488795056,100.24528891034204,0.1015942043346754,0.11303365345490225,870.0,81.54299999999999,0.09372758620689654,111.5,0.8987960773576967,802.2,958.0,47.76119402985074,70.1492537313433,698.0,1118.0,11.166666666666666,171.875,,,0.019368625626845676,0.11370090150248462,0.02284054241703599,0.15591006954636627,0.1703471597049952,0.1242294720488571,0.7292723416345535,-2.1741839494753323,70.88412357050747,104.0122415244782,0.6814978942053241,23162.386407343787,1.4673559647107528,5.071753412432955,610.4919320155142,0.5373134328358209,0.5606060606060607,0.7837837837837838,0.2222222222222222,47.68615902397981,47.508818192460076,47.85836100543253,51.515151515151516,0.5098145661741543,0.4901854338258458,50.640588767995474,49.656125193482104,0.5256757672538578,0.4743242327461425,75.41251668343584,71.6344799270358,0.5206416142853403,0.4793583857146596,64.2320671600203,61.632903078013705,0.7389888434846412,1.4815348991806556,0.9867159927136124,1.1361178145432829,-0.444237848948946,-0.6291972787893547,-0.3991574063410216,0.0003278828539448304,0.12176698200544403,0.3992159761146157,1.6650077635889111,5.827283220308519,1.3096064148025968,0.9453901581368971,0.8834606431826488,0.8905319371186982,1.934492707818187,1.8565022914733145,3.2640012147360795,1.1770023802380751,Relax
69.78413923027831,861.3970588235294,86.82202411725599,,,,,,,97.71127129105132,98.44585395083199,0.10079210652963563,0.11343348609119061,856.0,87.4734,0.10218855140186915,117.25,0.8885568979922525,788.4,933.4,44.11764705882353,69.11764705882352,698.0,1060.0,11.333333333333334,171.875,,,0.024365129003627462,0.06666277563839121,0.011614107310286772,0.10264201195230543,0.36549826751581493,0.23737969024758773,0.6494687152992221,-2.7081085682296697,69.61173090833375,102.07693797521209,0.6819535566911104,22323.379344159956,1.4663755180808422,5.0557300493057165,598.7324912300305,0.5882352941176471,0.6119402985074627,0.8048780487804879,0.29411764705882354,50.532141336739045,50.535383563032795,50.52953308006776,50.74626865671642,0.5349814439049403,0.46501855609505965,50.91719361925404,47.471203392321435,0.5120240931448603,0.4879759068551395,73.04202962518501,71.30612298133232,0.5193118362320215,0.4806881637679786,62.959108546051574,60.57259415834871,0.6581032606442097,1.7900415623577381,0.9689461465148747,1.422998612663197,-0.7521348328724375,-1.4997354047052724,-0.2463452940443064,0.0023629127769272105,0.2874534940825409,0.5002627259357864,1.7917594692280552,5.881580488309165,1.2912725739893574,1.028688889870557,0.9009824839290594,0.9222198635284842,1.8579103827950425,1.8452048168785293,3.3179573897185115,0.9847366360846136,Relax
69.97918709132469,858.1739130434783,84.62459601463031,,,,,,,88.30028978701364,88.94346193253517,0.09861007743117323,0.10289323462870167,852.0,80.0604,0.09396760563380283,106.0,0.9583728005734823,788.6,926.8000000000001,40.57971014492754,68.11594202898551,698.0,1060.0,11.5,171.875,,,0.014179127783818789,0.023163632406834937,0.005056606368296802,0.042399366558950526,0.6121288550423951,0.33441838722058853,0.5463202468987142,-3.765171798902042,62.89252507470317,101.54228371429294,0.6193727654546587,20062.998046364166,1.6145366018248104,5.009365940824904,655.7749347584212,0.5362318840579711,0.5588235294117647,0.7368421052631579,0.23529411764705882,48.77010406811731,48.814895839486546,48.73237970506287,48.529411764705884,0.5255492349941153,0.4744507650058846,45.6006349785588,43.32711398154911,0.5117684791349675,0.4882315208650326,72.64131429161449,70.95121450617205,0.5155901543005552,0.48440984569944495,60.64725242111499,58.784834974128266,0.8953999578742871,3.2531593934643777,1.4805092755947602,2.3844096769717646,-1.2913038253243592,-2.0233416577940626,-0.22214690642181656,0.02624422825540426,1.4883636420919646,0.4626092835783462,2.456735772821304,5.9056259060535305,1.261426049334541,0.0,1.2136577614049187,1.2739482756091407,1.840911494452091,1.8066248382682084,2.7339987244918373,0.8852933995330681,Relax
69.80031192554296,860.7205882352941,84.0798919273478,,,,,,,85.79279098545882,86.43764402642773,0.09768546619726376,0.09967554181706846,852.0,84.5082,0.09918802816901409,116.5,0.9800344639865913,788.4,933.4,38.23529411764706,66.17647058823529,698.0,1060.0,17.0,62.5,,,0.007625790257759807,0.015108054390507988,0.0025999014576342386,0.025333746105902034,0.5047499870367755,0.30101313188668993,0.5963608511489836,-4.192527274025355,61.12064424087591,102.58757386777398,0.5957899376746626,19698.47270871881,1.6784439225391223,5.00140266506304,688.7499595455942,0.5441176470588235,0.5606060606060607,0.7567567567567568,0.25,50.56603773584906,50.57945980915027,50.556393280826015,46.96969696969697,0.5456993553646275,0.45430064463537234,45.15209985385088,41.19769411022902,0.5215798323343437,0.47842016766565604,74.08924247165686,70.95769487555256,0.5278988039207251,0.4721011960792749,61.35115309118519,58.01829221052623,0.9429237992022409,1.431492968733227,1.1907961944011287,1.4041593433010215,-0.5724832932102846,-1.0218484502893816,-0.3509506134083882,0.0003765504906261742,0.12107451521230601,0.46144007538180976,2.1102132003465894,5.8227569588974,1.2669802988134011,0.0,0.0,0.0,1.8662210618524562,1.8126791976598282,2.761313549881277,0.8952151237132852,Relax
68.63455224917784,873.776119402985,91.88857232597935,,,,,,,81.58904783898834,82.21289805170845,0.10516260433938501,0.09337523196987203,871.0,78.5778,0.09021561423650976,102.0,1.126236606012569,799.4,943.8000000000001,40.298507462686565,70.1492537313433,698.0,1154.0,13.4,195.3125,,,0.008379766662084561,0.019956695089539195,0.004988677315426819,0.03332513906705058,0.41989751431723915,0.2514548144937781,0.5988480663017216,-3.9141905984845433,58.13329771336134,107.56809790846769,0.5404325152502778,19645.284458938648,1.850369790457359,5.000228431633564,796.1630351471523,0.5373134328358209,0.5538461538461539,0.75,0.16666666666666666,49.5956170101748,49.695433342381286,49.47344649262536,46.15384615384615,0.4705779258763575,0.5294220741236426,39.879337236989514,42.29929986690996,0.5153298014919895,0.48467019850801046,77.2193458778237,74.88703699470769,0.5052135367498248,0.4947864632501752,61.45400278362877,60.81652357327524,0.861907016078035,1.5530748600726487,1.1063592301395364,1.2581167132172426,-0.5293644230308399,-0.5852873802969127,-0.40228578996468506,0.0003209925648836204,0.12812874980869696,0.5379232803453098,1.9042374526547452,5.916835459114489,1.1576104581271585,0.842643630362043,0.8784188412722114,1.1172967025290705,1.9169308578671207,1.8077903883400641,2.0330782249637,0.905386446336981,Relax
68.81911861942868,871.9411764705883,85.62498630185159,,,,,,,75.2038026983909,75.74538092712696,0.09820041605150624,0.08624871118347469,868.0,88.2147,0.10162983870967741,109.5,1.1385725618856726,799.8,947.0,38.23529411764706,70.58823529411765,698.0,1120.0,13.6,171.875,,,0.007195476184163713,0.018480939781002674,0.004770382426342244,0.030446798391508628,0.3893457946094409,0.2363294850131262,0.6069912357733108,-3.991015360111256,53.56007249712965,108.91961836827527,0.49173944326571345,18327.243071539855,2.0335972916039724,4.970067249835748,885.9945636650514,0.5147058823529411,0.5303030303030303,0.7142857142857143,0.23529411764705882,48.20652173913044,48.20858245477566,48.219144770689724,48.484848484848484,0.48931453634746624,0.5106854636525336,37.47868080858123,38.28837943815329,0.49575596597980554,0.5042440340201945,76.6902380109008,77.34397623165047,0.4945009822288688,0.505499017771131,60.35745240365985,61.024956613348415,0.805179246640553,1.8120917090922997,1.0789399495906866,1.2340964640359149,-0.48254899992732625,-0.23815323751849116,-0.4143771180748086,0.0008056124731289638,0.1900425122586739,0.4788478769276545,1.8191584434161696,5.910992253015046,1.1926574975697024,1.1024914981688185,1.0227744261587466,1.4568027712612164,1.9493355081671038,1.793915176729364,2.671759063176578,0.9847366360846136,Relax
68.5539868504492,876.5373134328358,89.7859961339401,,,,,,,78.16900881675511,78.76034286613796,0.1024326001391838,0.08917932827139681,871.0,93.40379999999999,0.10723742824339838,111.0,1.1486137216402181,799.4,947.0,41.7910447761194,71.64179104477611,698.0,1120.0,11.166666666666666,195.3125,,,0.004748933530960417,0.010160693813812086,0.0018961256520092075,0.01680575299678171,0.4673828006218321,0.28257784889911414,0.6045961651202331,-4.589228550402341,55.69197252922367,114.06767099592052,0.48823625522445724,19957.449879232892,2.0481887391592197,5.007075157227194,934.5284769438526,0.5671641791044776,0.5846153846153846,0.7894736842105263,0.29411764705882354,50.938967136150225,50.87383485739008,51.00113343002711,46.15384615384615,0.5022415853761351,0.497758414623865,39.472190794961534,39.29562512349376,0.5413318131615381,0.45866818683846217,83.92557967835776,77.25238275992001,0.5338061545857785,0.4661938454142216,65.58032010634831,61.28652705094057,0.8343339031256901,1.9513878276976286,1.1100165549833119,1.4421042875759162,-0.9338252631896822,-0.9854544385950561,-0.3298197170859559,0.0013233387025782673,0.24325498708320176,0.44721859498269856,2.0149030205422647,5.916835459114489,1.2068104137535471,1.191383031453657,1.1161723746110808,1.4323590387587277,1.9093021937142485,1.821551131555532,3.0839713809346465,1.086463735604377,Relax
68.24792252377178,880.1492537313433,91.91386839851808,,,,,,,79.72176996317006,80.28822931725277,0.10442986574021895,0.09057755786895699,874.0,97.85159999999999,0.11195835240274599,120.5,1.1529331127618032,799.4,959.8000000000001,43.28358208955223,71.64179104477611,698.0,1120.0,13.4,195.3125,,,0.0042960315451350045,0.010008521861639495,0.0013364556713846092,0.01564100907815911,0.4292373643705337,0.2746646027546857,0.6398897802326103,-4.604318362728611,56.77235139969,116.79300768178138,0.4860937527559363,20830.68720431856,2.057216317491107,5.025673707519739,961.0739246872995,0.5671641791044776,0.5846153846153846,0.7631578947368421,0.3125,52.24186523187292,52.18843273422057,52.284687265238496,47.69230769230769,0.5238195138115752,0.4761804861884247,41.11194847842057,39.19791988201571,0.5189936302686795,0.4810063697313204,84.13909888335345,81.00134988044279,0.5199168101618254,0.48008318983817455,66.21774787998697,63.63055714643253,0.8619729332540388,1.603335216656117,1.0762650654722894,1.3963300883011251,-0.9260885786408082,-1.2646028564489535,-0.3003754801217697,0.0005463624542518008,0.1489544937529729,0.4127219543778664,2.6026896854443837,5.946686205383145,1.2382560556411115,0.9972460116410686,0.0,0.0,1.927883880663334,1.8426163748071138,2.658164479535745,0.905386446336981,Relax
68.35665693516066,878.4328358208955,99.60987900997435,,,,,,,109.5026635901307,110.34177567543246,0.1133949858749177,0.12465684241846497,869.0,102.29939999999999,0.11772082853855005,126.5,0.9096571329334497,793.2,947.0,40.298507462686565,71.64179104477611,698.0,1175.0,13.4,195.3125,,,0.005200860028263435,0.007363247195288099,0.0006097699076666662,0.0131738771312182,0.7063269628638269,0.394785830812019,0.5589278784025833,-4.9112542485272845,78.02341782826313,117.51281287081503,0.6639566862724694,28804.481722883414,1.506122343031316,5.1664301753630175,707.9546922287701,0.5671641791044776,0.5846153846153846,0.7631578947368421,0.26666666666666666,49.988766569310265,50.06920429080649,49.90321998974848,46.15384615384615,0.45118177395611553,0.5488182260438845,52.408381596252916,57.801517148041924,0.5438618484788892,0.4561381515211108,86.66216196400038,79.36580417621025,0.5155054821206416,0.48449451787935816,71.61343720913378,69.42602630552874,0.7614608868771567,2.1779333337226983,1.0840606481060253,1.1509853777131085,-1.0451618375324578,-0.3332331462364979,-0.4692714517148741,0.0003137611876962647,0.2196079030555254,0.4678637136872834,2.2246235515243336,5.916835459114489,1.1057391608517868,0.9585153659896084,0.9585153659896084,1.0760162733010423,1.8215580327060688,1.8293675148129396,2.4014876923768953,0.995925090970679,Relax
68.33468431372346,879.1363636363636,100.61654342695743,,,,,,,103.2866809493773,104.07243686675456,0.11444930227977165,0.11748653021489584,873.5,100.8168,0.1154170578133944,129.5,0.9741482880669915,798.0,962.0,45.45454545454545,75.75757575757575,698.0,1175.0,13.2,132.8125,,,0.005196737757356242,0.011131419761285722,0.001976737208396623,0.018304894727038588,0.46685309410665854,0.28389880602154016,0.6081116514067268,-4.497983560169089,73.590325843091,122.14682015131184,0.6024743480995206,28239.22437156842,1.6598217055289688,5.157822874020954,810.9677733939626,0.5757575757575758,0.59375,0.7894736842105263,0.3333333333333333,48.64218987616772,48.71241563430548,48.592389602714015,48.4375,0.46080709056010066,0.5391929094398993,49.96381503148052,54.04656557081124,0.5264411170814898,0.4735588829185101,88.62516698330134,84.05608514711398,0.5089576063785477,0.49104239362145236,71.94026353620775,70.66277909995783,0.7746357133882859,1.9254888130498533,1.110968057415727,1.1212623662715797,-0.5236816205715744,-0.026585520686690067,-0.49465366467668687,0.0003984362208609869,0.19196502842532287,0.46497387390761746,2.6741486494265287,5.953485028449361,1.1314281920914833,0.9431902345236596,0.6685371623566322,1.0445565115507007,2.0341790978042,1.8390593001104691,2.8847886755646517,1.0989807489742642,Relax
68.25766942047385,880.5373134328358,99.21866398809293,,,,,,,100.25142634819957,101.00833933584204,0.11267968145640765,0.1138525589078814,874.0,97.85159999999999,0.11195835240274599,122.0,0.9896982776432568,798.2,959.0000000000001,40.298507462686565,73.13432835820896,698.0,1175.0,16.75,156.25,,,0.006540060435004416,0.02612392256333956,0.005259635370685648,0.037923618369029626,0.25034756626412097,0.17245349247437225,0.688856277086516,-3.644903811142278,71.4236817007658,121.13485376720772,0.5896212318712587,27180.736803576026,1.6960040547154953,5.141231335183513,821.7808126262115,0.5373134328358209,0.5538461538461539,0.75,0.25,51.12372304199773,51.10451655799692,51.138995959598674,49.23076923076923,0.49056643595955507,0.5094335640404448,50.03106727132344,50.984084997937565,0.5326123271827572,0.46738767281724275,88.40457207967218,82.81475975098182,0.5217639745125349,0.4782360254874651,71.82783602788561,68.76649386034511,0.802766885060359,1.9770739858685684,1.1637447355546722,1.2494945638562063,-0.3986980923710579,-0.0823907339802048,-0.45662791128989416,0.000964835434843931,0.2406953349784178,0.5026302053696039,2.2772672850097555,5.946686205383145,1.1234536842567027,0.9964282098537082,0.67068309827948,0.7983895042209777,2.059833771851233,1.8195396739237781,2.9438752848106886,0.8148478017032829,Relax
68.05112289026242,883.2835820895523,102.67598432287458,,,,,,,111.65429601310385,112.48750979615409,0.1162435104703041,0.12640820940990127,875.0,106.74719999999999,0.12199679999999999,127.5,0.9195883005775652,793.2,975.0,47.76119402985074,77.61194029850746,698.0,1175.0,13.4,132.8125,,,0.010226636254543394,0.04494694741721704,0.010048884019269108,0.06522246769102955,0.227526825339557,0.15679621787677206,0.6891328863872299,-3.1022724309997485,79.54068097564874,121.81666122107002,0.6529540391137479,30440.085615528784,1.5315013616537179,5.190415979555051,746.2495301287136,0.582089552238806,0.6,0.8205128205128205,0.3125,51.41318977119784,51.54287406795748,51.28811106939123,47.69230769230769,0.5103931570331102,0.48960684296689,56.836607921303674,55.66721172771689,0.532460821068744,0.467539178931256,88.88951177478744,83.29437944716842,0.525862750297563,0.47413724970243687,74.6047763335568,70.84063843948378,0.6936753530405744,2.028005977546043,1.0423693970924426,1.252546824881709,-0.6412674566401471,-0.49684898324397997,-0.3963625205663405,0.0014390510319560491,0.26879572451705513,0.483986482145744,3.4011973816621555,5.946686205383145,1.1573336074362681,1.347221434797729,1.023586140555525,1.1968729356955115,2.1812420854275585,1.9003385073810612,2.5255398552884256,0.905386446336981,Relax
96.39941984579099,622.8105263157895,101.23853176310801,,,,,,,56.810060541451676,57.098264867113514,0.16255109296559334,0.09121563965450181,597.0,78.5778,0.13162110552763817,108.5,1.7820528758148204,539.8,714.4,29.47368421052631,70.52631578947368,479.0,904.0,15.833333333333334,46.875,,,0.013436298724771072,0.0014317850962881757,0.0004903857540359128,0.01535846957509516,9.384298495356559,0.8748461986446212,0.09322446414907876,-6.548833294130135,40.374570281521564,137.26629313932938,0.2941331725228434,17410.918856720116,3.3998205351092676,4.947791801462409,1866.7230487736815,0.6736842105263158,0.6881720430107527,0.890625,0.4,48.44130540672188,48.64224614979324,48.251888369977834,48.38709677419355,0.45039126622584663,0.5496087337741532,27.10364416239485,29.940532458040348,0.5722324191453962,0.42776758085460376,103.83652248872568,89.77756863304258,0.5625256149934722,0.4374743850065281,75.88356518190666,66.91953120551443,1.433852964879049,0.9038664755107826,1.6495610043758857,1.6860493602550348,-1.0548938819801563,-2.0548938819801563,-0.45963081177612075,0.0024912204715199734,0.11653028460909519,0.6262515358869938,0.9604619501872924,6.3303304767292286,0.8016961005443894,1.0188744086469,0.9380638368718085,1.116105108870415,1.729074485931206,1.6853019282396358,2.387108494575332,0.5532509985962903,Stress
98.19510127046496,611.3645833333334,87.0588572587131,,,,,,,55.79039721181981,56.07998007964592,0.1424008842384089,0.09125552695191258,596.5,68.19959999999999,0.11433294216261523,92.75,1.5604631192743816,540.0,655.0,30.208333333333332,68.75,479.0,856.0,13.714285714285714,125.0,,,0.010665345321240985,0.0016380774436422997,0.0005170650453014488,0.012820487810184734,6.51089199880951,0.8318985579291546,0.12777028985909517,-6.4142320152779915,39.65453420312413,116.71779261578716,0.33974712264872364,14540.515077572769,2.943365619122358,4.869549901036771,1374.1725517006453,0.6979166666666666,0.7127659574468085,0.8955223880597015,0.42857142857142855,49.01526341703594,49.121024706020435,48.91869972822898,48.93617021276596,0.47653655468152883,0.523463445318471,27.37728908140484,28.693631141511286,0.5392102830131529,0.4607897169868472,85.70697131806759,79.22978089447075,0.5327232779444337,0.4672767220555663,63.62075482876193,59.58474070041318,1.3665353935276132,0.4695492288433838,1.4742022768747658,1.4153261711928398,-0.18938208607162643,-1.121988961286079,-0.625388568578746,0.0013088789139352856,0.046611069119893905,0.5973307997648885,1.0843263314206333,6.327099089240286,0.8186892420387762,1.103483066259299,1.032231687207145,1.195413315961315,1.8087136605832022,1.733042493482128,2.65918841677213,0.7545269532076325,Stress
96.6244484166787,622.021052631579,94.70098282391977,,,,,,,53.077322159841245,53.332020331012295,0.15224723089880826,0.0853304272183192,602.0,83.0256,0.13791627906976744,109.5,1.784208000146084,539.8,701.2,29.47368421052631,68.42105263157895,479.0,856.0,15.833333333333334,46.875,,,0.014752993061865661,0.0020171853483220946,0.0006513645824461891,0.017421542992633945,7.313652696385723,0.8468247082421699,0.1157868363999094,-6.206052131162019,37.71143323043761,128.1208849660868,0.2943425909087321,15178.988804744205,3.397401636347197,4.888212950615634,1741.1124169361372,0.6421052631578947,0.6595744680851063,0.8709677419354839,0.375,52.16489499611098,51.91887163023357,52.41486573430607,46.808510638297875,0.5312725391496771,0.468727460850323,27.502688040669145,25.833107872758774,0.5535467892858298,0.44645321071417,95.32286739737125,85.60672938289619,0.5517690314511511,0.44823096854884875,70.15285774050545,63.229192537948855,1.404103535538034,0.5282644664040173,1.7416255209803984,1.4874443252925744,-0.20286320467740282,-1.2028632046774028,-0.9811627732943633,0.0013915458028418888,0.0686065244377416,0.658141126055833,1.1939224684724346,6.39348837146607,0.8228934051870535,0.820674405912541,0.9708639010426495,1.1900433410667732,1.883865160215296,1.6903771556748057,2.590676264851971,0.5532509985962903,Stress
94.41131588289815,636.516129032258,107.84022127195016,,,,,,,53.439929705759546,53.64429126819095,0.16942260589045485,0.08395691368733763,610.0,103.782,0.1701344262295082,172.0,2.01797086683532,539.4,765.8000000000001,29.03225806451613,64.51612903225806,479.0,915.0,15.5,46.875,,,0.017828333689530237,0.0021892744556386017,0.000542015318707014,0.020559623463875853,8.143489567336951,0.8671527336507592,0.10648417075756526,-6.1241850888404565,37.93224212768411,147.08478448514828,0.2578937193297127,17527.74858889379,3.8775663191763003,4.950696245210516,2281.324025531663,0.6344086021505376,0.6483516483516483,0.864406779661017,0.29411764705882354,53.78625134264231,53.841277985471535,53.705406493609864,45.05494505494506,0.5312823518665126,0.46871764813348765,27.694070456715792,26.012359699628504,0.5703784109153277,0.42962158908467213,111.08343169940272,96.40749467197377,0.5679327755902265,0.43206722440977324,80.9521165151888,70.60824274144453,1.4438783663412196,0.3416662540901494,1.471693000103817,1.4177740374581058,0.047862170710372354,-0.9389207134653366,-0.6578117885516568,0.0006667878104915812,0.022091102106052328,0.5989707972735445,0.989412996703118,6.367115800355344,0.7280582239777634,0.8301592259285009,1.059111380046457,1.2560588817645721,1.8155800623475022,1.6512618089651365,1.93875039755455,0.5625082848264973,Stress
91.69144502000823,655.4333333333333,113.89153621965026,,,,,,,58.17650400271168,58.25521935609513,0.17376524877127134,0.08876036820837871,632.0,133.434,0.21112974683544303,204.25,1.9576895891568464,545.8,777.4,31.11111111111111,63.33333333333333,479.0,958.0,15.0,78.125,,,0.013476639807537698,0.0030676986409529754,0.0009414363058174401,0.017485774754308115,4.3930781295229195,0.7707201995277531,0.17543967505341226,-5.7868276268489405,41.19266064620469,152.08822989678015,0.27084713047263087,19681.82301068303,3.6921196036117876,5.00103543204556,2246.1117403220733,0.6,0.6136363636363636,0.8518518518518519,0.16666666666666666,56.38496400959745,56.16025153165028,56.73241715045815,44.31818181818182,0.5856530587176855,0.4143469412823142,31.659678255988755,26.629827773996723,0.6002494216697988,0.399750578330201,117.83152012107124,96.15904813949352,0.5992438217981079,0.40075617820189213,86.27456856256988,70.55391649783222,1.4411851527495485,0.9431370268090644,1.4411851527495485,1.7614476252975977,-0.6367453864094514,-1.1789153047434136,-0.1604284812869663,0.0008122805320952106,0.06135509246257515,0.5591663913350078,0.9236708391717774,6.336297540774121,0.6983912529524424,0.6669091341338081,1.144373628450971,1.4448684259086988,1.8047314129157426,1.6512040318692907,1.8467504672276323,0.6491853096329675,Stress
88.47333974845684,679.2413793103449,109.99375939139513,,,,,,,72.22437583749878,72.62593948571894,0.1619361875495207,0.10633094219146434,647.0,140.84699999999998,0.2176924265842349,180.5,1.522945101510819,574.0,793.8,35.63218390804598,66.66666666666666,494.0,954.0,17.4,125.0,,,0.0237292673343161,0.0039787708374342465,0.001692540315578462,0.02940057848732881,5.963969352308356,0.8071020556463896,0.13532967860305994,-5.526782342200599,51.35429430039571,146.36905387273822,0.3508548627023723,23614.344999360077,2.8501813892438275,5.080146013839843,1668.7134132372228,0.6206896551724138,0.6352941176470588,0.8888888888888888,0.16666666666666666,51.758216501953584,52.187565535939626,51.38414932549661,47.05882352941176,0.49190494129605633,0.5080950587039434,36.02874669254114,36.61685564937354,0.5294766495346898,0.4705233504653103,106.5056559800949,100.40142018841277,0.5253563143901486,0.47464368560985126,79.50322428677222,75.56864195384644,1.203769232169818,1.0944522215541452,1.3888246623469274,1.5644013377622916,-0.11984805668815923,-0.6653401216507531,-0.33957575126848233,0.00034041496413484123,0.0764226870404422,0.542028533164328,0.9555114450274363,6.259035449871717,0.8038069317542075,0.730454143029952,1.1068631686849826,1.444598414399616,1.7736186004618124,1.6961015727647808,2.017904077645818,0.6665113961222823,Stress
87.18914312711058,689.2558139534884,101.92594613351422,,,,,,,75.6407142156843,76.07430762164086,0.1478782537195867,0.10974258422546813,659.5,114.9015,0.1742251705837756,167.75,1.3475011069155083,597.0,795.0,39.53488372093023,68.6046511627907,532.0,954.0,14.333333333333334,85.9375,,,0.029434917910911296,0.006072348786634903,0.005702307901696857,0.04120957459924306,4.847369435645208,0.7142737627641504,0.14735286267057077,-5.104009798734358,53.79265879333371,133.6347021302677,0.4025351045486403,22583.545930118016,2.4842553822014923,5.060762243165363,1327.930912064043,0.6395348837209303,0.6547619047619048,0.8909090909090909,0.1875,51.39459459459459,51.63591004144011,51.16661663524622,47.61904761904761,0.49864803456096596,0.5013519654390342,37.993342148579764,38.09621278515003,0.5139640607908684,0.48603593920913146,95.80443761391416,93.16514019163502,0.5118276484703191,0.48817235152968075,72.87655423432635,71.17255361267586,1.3661260092446506,0.7457764617873801,1.3709577797771937,1.7211129996170604,0.05948369629561512,-0.9047138226618245,-0.030482339170828453,0.00040028270940040443,0.04786641655708665,0.5203795995258713,1.0340737675305385,6.1704508012137245,0.9014745101797764,0.6243746143027684,1.0390368052129801,1.5409200113430235,1.8064527861922262,1.650709577669891,2.189268627081185,0.7472400877560579,Stress
83.73230994112029,717.8658536585366,112.32500927452234,,,,,,,80.56850470635088,80.93725469479962,0.15647075104919447,0.1122333710340741,697.5,117.1254,0.16792172043010753,175.5,1.3941553176879082,619.2,813.0,43.90243902439025,71.95121951219512,540.0,997.0,13.666666666666666,78.125,,,0.03480514836968325,0.008903739497087438,0.0030765206868175435,0.04678540855358823,3.9090483701896934,0.7439316967771537,0.19031017944171744,-4.721283922277917,57.23128164531555,146.0567500268134,0.3918427709421777,26260.62010577186,2.5520440190730613,5.1262750870593194,1490.973021404713,0.5975609756097561,0.6075949367088608,0.875,0.11764705882352941,53.905597326649946,53.727083703070036,54.101329647344976,46.835443037974684,0.5373606393378395,0.4626393606621605,42.022389865403895,38.99142533942559,0.4681243479310509,0.5318756520689493,99.93146351554238,106.51890361826338,0.4773662804756878,0.5226337195243123,76.65565422836784,80.20788015537153,1.4233753684831003,1.3324210166729171,1.467398310133363,2.0895858768195588,-0.8541835958446224,-1.8660659700479998,-0.033039813316806464,0.0024248050759585918,0.19013404152972332,0.4974179093312787,1.1468143904859875,6.162430053398571,1.0028352543088206,0.9086149943285756,0.8735264921180148,1.0846531241887982,1.7780200829444388,1.603314953165531,2.243838060319384,0.8528423420829138,Stress
80.59405377629238,745.379746835443,115.23023817418185,,,,,,,82.89304198939988,83.31951267344998,0.15459266053766438,0.11120914183854276,745.0,136.39919999999998,0.18308617449664427,183.0,1.3901074856067794,633.6,839.4000000000001,40.50632911392405,72.15189873417721,555.0,997.0,13.166666666666666,78.125,,,0.03950660963170049,0.007954816014518215,0.006028309592972096,0.0534897352391908,4.966376288225595,0.7385830095258132,0.1487166832841208,-4.833977745741658,58.91579241655497,150.62959776974685,0.3911302512180504,27879.944981876884,2.5566930629523514,5.152262022354375,1540.454590772859,0.6075949367088608,0.618421052631579,0.8936170212765957,0.1875,53.49620893007582,53.65192855890223,53.346730633927876,44.73684210526316,0.5183241970452908,0.48167580295470924,42.47229807646513,40.9432613423827,0.530767586430934,0.46923241356906603,109.73938269390713,103.18208958068215,0.5291127581647335,0.47088724183526637,83.20645473139662,78.49488601044837,1.3366714484098103,1.4533946824658412,1.5227932581476775,2.010328242701995,-0.9252344307011491,-1.8248428781880293,-0.16455430831275533,0.001345640738709461,0.176447702653726,0.4537776200057788,1.0001722158548572,6.126565558303684,1.011210706034514,0.697982921270728,0.792590235206271,0.9865704913582101,1.782900489068125,1.6182434486711992,2.1975389802430256,0.7979469301490004,Stress
79.37191425901482,756.7948717948718,119.0238826819418,,,,,,,86.97364879327293,87.52484267980378,0.15727363796699068,0.11492367619643043,760.5,151.2252,0.19884970414201183,188.75,1.3685051085398159,636.0,855.6,42.30769230769231,74.35897435897436,569.0,1000.0,13.0,70.3125,,,0.020597477836034127,0.004182169638850212,0.003660258428259216,0.028439905903143554,4.925069907421764,0.7242456394258823,0.14705286484045446,-5.476925114750041,61.889409781175004,155.92916986580028,0.3969071972514177,30317.513560012027,2.519480641633611,5.188663690449311,1571.442099771531,0.6666666666666666,0.6799999999999999,0.9215686274509803,0.1875,51.412429378531066,51.214736235674295,51.62023433038111,48.0,0.5090237956254507,0.49097620437454925,44.16521017128396,43.37519907431944,0.4892997608945458,0.5107002391054541,109.07239980659796,111.43212111176578,0.491985126668965,0.5080148733310349,83.2086359371551,84.55331309358634,1.300262426387327,0.5701359003330577,1.4810197026771235,1.585330376553856,0.45386664141288335,-0.5406538901160971,-0.3170424388013507,0.0007476650098769843,0.0432376590546366,0.39639663170147443,0.9634375102998567,6.080274013734044,1.0076194144092925,0.7313919030965547,0.8078435068677176,0.9888751349793097,1.72106049609946,1.6464338600701152,3.2496258764166193,0.8058207972900319,Stress
78.12816469317916,769.7922077922078,120.44755767141518,,,,,,,95.24138308861112,95.86233184450849,0.15646762392784305,0.12372349593115119,775.0,143.8122,0.18556412903225805,188.0,1.2646556965615738,636.2,873.8,44.15584415584416,75.32467532467533,569.0,1022.9999999999999,15.4,70.3125,,,0.015567504599908497,0.004779823551268101,0.003946954958385446,0.024294283109562043,3.2569203513335534,0.6407888032629885,0.19674684491458813,-5.343351647120758,67.78490490760706,156.85867703574294,0.43213997585967845,33403.45672035344,2.3140650156483398,5.230761521590586,1451.9247077171774,0.6883116883116883,0.7027027027027026,0.9423076923076923,0.16666666666666666,51.05204872646733,50.98441735304594,51.10684742808685,45.94594594594595,0.4974049522041227,0.5025950477958775,47.81255065356794,48.06134968280992,0.5224929146787977,0.4775070853212024,113.38321062451682,108.39230650687327,0.5185442735451041,0.4814557264548958,87.01089716674441,83.84147375617063,1.182474279348472,1.6137897690469396,1.3852031925978276,1.9893691638719417,-0.6983336429588753,-1.7013860580241271,-0.1256228767450186,0.004614232698087544,0.31702585462785776,0.45192822023889256,0.9946225751440622,6.084968358876722,1.021771099441637,1.1463611474487134,0.7616288773216094,0.9093973629727996,1.7208046420494796,1.6709206554651461,3.5080598743129108,0.9766420582901144,Stress
78.40800203289771,768.038961038961,122.89238355467135,,,,,,,104.63413702792673,105.27436751717083,0.1600080071308222,0.13623545462639475,775.0,149.74259999999998,0.19321625806451612,207.0,1.174496077908795,636.2,875.6,49.35064935064935,76.62337662337663,569.0,1022.9999999999999,15.4,78.125,,,0.011829602589161593,0.008656265158659684,0.00317494225419179,0.023660810002013064,1.3665942958467854,0.49996608688185773,0.3658482172809472,-4.749471924415157,74.44021915651629,156.9076326232685,0.474420637874548,36694.551651663554,2.1078341036766446,5.271571695650578,1322.9410366819657,0.7272727272727273,0.7432432432432432,0.9636363636363636,0.23529411764705882,52.12502067140733,52.15237448247591,52.0779188098855,44.5945945945946,0.5204892370963536,0.4795107629036464,53.7329197668121,51.57434762877116,0.5207098945118541,0.4792901054881459,113.22491023526551,108.62837970647755,0.5206693199871949,0.4793306800128051,88.62027692478341,85.02951902424238,1.1969912881615832,0.7108167130583682,1.261701191215293,1.5523996446907673,-0.02438389172519173,-1.015293105552856,-0.09103598981977806,0.0004468310352570691,0.04521515148158767,0.4316651521136916,1.0541605260972757,6.110942384850747,1.0388838817541066,1.048500025048789,0.8554594552252061,0.9600157904286926,1.728646562408787,1.6914095691799245,2.737781346532079,0.9766420582901144,Stress
77.25088774034953,777.8026315789474,115.41496375968379,,,,,,,98.8257726169309,99.49083528801187,0.1483859260354908,0.12705764753754248,775.0,123.79709999999999,0.1597381935483871,158.25,1.1678630047958847,678.0,874.0,46.05263157894737,73.68421052631578,569.0,1022.9999999999999,19.0,132.8125,,,0.023925551510017816,0.012106949706984504,0.006198838713701487,0.042231339930703805,1.9761832739930485,0.5665354580100126,0.28668163801694313,-4.413975635309558,70.35064429806704,148.08825162810948,0.47505891604917416,32729.43872373606,2.1050020665152367,5.221908667629271,1246.9043028151953,0.6842105263157895,0.6986301369863014,0.9607843137254902,0.2,50.198771232381645,50.24489710907061,50.15390849015352,45.20547945205479,0.4780461166705349,0.5219538833294652,48.64126820892906,50.82601483279781,0.5455743320044365,0.4544256679955635,109.38243082402664,99.82792243304122,0.5331404742056338,0.4668595257943664,84.64776767861615,79.2114192559415,1.2735423905782093,1.1905080545086366,1.6143219937712168,1.8687964178325276,-0.09625993279079026,-1.0936867314128556,-0.28624720505033363,0.0031449798979899333,0.1912450065223675,0.5058160388873372,1.5141277326297757,6.09003277660148,1.038503873027751,0.9381819303424354,1.2131381752928587,1.5012428230240773,1.6799094118375046,1.6481225740461283,2.9303419107555357,0.986514870543724,Stress
76.02065727195959,792.9066666666666,112.4864163971538,,,,,,,110.65144934994409,111.31788453790044,0.1418658981264972,0.13955166982655895,794.0,117.1254,0.14751309823677583,155.0,1.0165833078372655,695.2,876.8,49.333333333333336,78.66666666666666,569.0,1028.0,18.75,195.3125,,,0.023893749075433318,0.0066237365388715835,0.006134579894658631,0.036652065508963536,3.6072915846232987,0.6519073002745214,0.18071932500643653,-5.017095636411251,78.71363102409053,136.28133434853743,0.5775818926367541,33700.48852704391,1.7313562158862692,5.234606306472941,943.8061413344608,0.7333333333333333,0.7464788732394366,0.9811320754716981,0.2222222222222222,52.68076733890802,52.42003216984611,52.957312970972794,46.478873239436616,0.5566450376750618,0.4433549623249381,58.77406239965809,52.453240755490256,0.5195747742108474,0.4804252257891527,98.23367822882419,94.460290881691,0.5288590200256059,0.471140979974394,80.94518499985985,76.40055307131978,1.0993500550451247,1.296419145007095,1.1198441279718463,1.735894108087815,-0.19944088855766573,-1.1761098496359512,-0.024806477528070456,0.002846987928263008,0.20411934483595334,0.46636761329278764,1.9218125974762528,6.0154853571625475,1.1329295844953344,1.177732644013708,1.2444983403259693,1.3864570421153999,1.807929360609192,1.7120137905065118,3.123085443021912,0.9966109904793409,Stress
74.90324827955475,802.5342465753424,121.49852333256528,,,,,,,123.00287937009172,123.85209940645552,0.15139356837547607,0.15326807534380296,809.0,115.6428,0.1429453646477132,166.0,0.9877697494137505,696.4,893.6,57.534246575342465,86.3013698630137,569.0,1184.0,18.25,164.0625,,,0.012864002043126302,0.01047921998828788,0.00339801967109144,0.026741241702505622,1.2275724774843717,0.4810547762230862,0.39187484653362187,-4.558361031457672,87.57665935449508,148.36343492376656,0.5902846573988699,40819.25998829739,1.69409790253836,5.317835237095587,1005.3687356709576,0.726027397260274,0.7428571428571428,0.9807692307692307,0.23529411764705882,50.96981187108064,50.95924125296389,50.94990643209966,47.14285714285714,0.47017411476133686,0.5298258852386631,60.05742557084163,63.7534865105707,0.5457789845924914,0.4542210154075088,109.60624110981745,99.9909032470218,0.5262394114009307,0.47376058859906917,88.37539945148937,83.85310898949662,0.9990540617009076,0.8552503235187858,1.0199341273326432,1.4145648068850467,0.10618039686147185,-0.8036018055740417,-0.03857874273725976,0.001168037163856073,0.08497475042024805,0.4342968485875396,1.845826690498331,5.960305552001065,1.2146306487456653,0.9892815348428052,1.0208987938043599,1.1327481705931874,1.8996078399840428,1.7592931965157954,3.0904963389730744,1.017505406939181,Stress
77.72917963326884,774.8947368421053,136.51476881738165,,,,,,,127.94920867281672,128.80941295132456,0.1761720170841711,0.16511818004370832,768.0,154.93169999999998,0.20173398437499998,189.75,1.0669450028914849,661.0,890.0,56.57894736842105,84.21052631578947,400.0,1022.9999999999999,19.0,328.125,,,0.021975706832987656,0.01017633778430392,0.002638047504662327,0.0347900921219539,2.1594907027244314,0.6316656695231954,0.29250677890221094,-4.58769007872303,91.0820093785399,171.30592359711164,0.5316921182057455,49017.917497738425,1.8807877073194386,5.397324966481024,1288.760301169802,0.6973684210526315,0.7123287671232877,0.9615384615384616,0.2222222222222222,49.69038117517544,49.83209583378433,49.615824665478286,47.94520547945205,0.46513713273471363,0.5348628672652861,62.11949034788583,66.61294006260184,0.5741642927765459,0.4258357072234541,129.8047158598618,111.78754492339473,0.5501351279036599,0.4498648720963399,101.75484101638737,92.01559374308188,1.0938915652053685,0.5977239051994725,1.218320590147493,1.0470453651672489,0.877939728713435,0.9102434269896094,-0.7865457169946818,0.00031599474243425855,0.01938309400537268,0.46864219667319995,1.3862943611198904,5.984769618706744,1.212987721434839,0.7729488962822751,1.0906258114995933,1.2134495325641235,1.8046648531210387,1.7157335890665877,3.5144169304750488,1.0687244430890344,Stress
80.1586868980371,751.1518987341772,148.8404832412096,,,,,,,120.34634846867432,121.04721560171636,0.19814964655222458,0.1602157282321712,751.0,180.8772,0.2408484687083888,241.0,1.236767755192441,614.4,882.4000000000001,56.9620253164557,83.54430379746836,400.0,1022.9999999999999,19.75,578.125,,,0.02449979594133365,0.014457147010304266,0.006962996741227023,0.04591993969286494,1.6946494300619295,0.5335328422728839,0.31483375429063604,-4.236566383910116,85.59330699572368,191.85437267977585,0.4461368578686892,51589.507370092695,2.2414646590224754,5.4195314907625685,1720.1391841625789,0.7088607594936709,0.7236842105263158,0.9636363636363636,0.3333333333333333,47.618374558303884,47.82365689231468,47.51716196190458,48.68421052631579,0.4379446451381038,0.5620553548618962,56.6799513330497,64.21099553855203,0.54711820539691,0.4528817946030901,141.909766362823,129.11126413756196,0.5289760961333816,0.4710239038666181,108.0532245522268,101.96266590093464,1.0869507223105928,0.6551120601874609,1.3960122228701222,1.1301456981592626,0.7850980679560076,0.58782466803126,-0.9058336594120733,0.0002917195547081978,0.02616462422439148,0.4880809917051603,1.349926716949016,6.117010020301616,1.1120859316623284,0.7392118581987823,0.9908410945139344,0.9862901860655565,1.8055472620882773,1.7075433427157243,2.5144598046530073,0.8777416231639004,Stress
