PPG_Rate_Mean,HRV_MeanNN,HRV_SDNN,HRV_SDANN1,HRV_SDNNI1,HRV_SDANN2,HRV_SDNNI2,HRV_SDANN5,HRV_SDNNI5,HRV_RMSSD,HRV_SDSD,HRV_CVNN,HRV_CVSD,HRV_MedianNN,HRV_MadNN,HRV_MCVNN,HRV_IQRNN,HRV_SDRMSSD,HRV_Prc20NN,HRV_Prc80NN,HRV_pNN50,HRV_pNN20,HRV_MinNN,HRV_MaxNN,HRV_HTI,HRV_TINN,HRV_ULF,HRV_VLF,HRV_LF,HRV_HF,HRV_VHF,HRV_TP,HRV_LFHF,HRV_LFn,HRV_HFn,HRV_LnHF,HRV_SD1,HRV_SD2,HRV_SD1SD2,HRV_S,HRV_CSI,HRV_CVI,HRV_CSI_Modified,HRV_PIP,HRV_IALS,HRV_PSS,HRV_PAS,HRV_GI,HRV_SI,HRV_AI,HRV_PI,HRV_C1d,HRV_C1a,HRV_SD1d,HRV_SD1a,HRV_C2d,HRV_C2a,HRV_SD2d,HRV_SD2a,HRV_Cd,HRV_Ca,HRV_SDNNd,HRV_SDNNa,HRV_DFA_alpha1,HRV_MFDFA_alpha1_Width,HRV_MFDFA_alpha1_Peak,HRV_MFDFA_alpha1_Mean,HRV_MFDFA_alpha1_Max,HRV_MFDFA_alpha1_Delta,HRV_MFDFA_alpha1_Asymmetry,HRV_MFDFA_alpha1_Fluctuation,HRV_MFDFA_alpha1_Increment,HRV_ApEn,HRV_SampEn,HRV_ShanEn,HRV_FuzzyEn,HRV_MSEn,HRV_CMSEn,HRV_RCMSEn,HRV_CD,HRV_HFD,HRV_KFD,HRV_LZC,Labels
112.34263503971522,534.1090909090909,27.939431690760443,,,,,,,15.284158615611,15.352097059745233,0.052310346643240205,0.028616173878628984,529.0,24.462899999999998,0.04624366729678638,31.75,1.8279993288098664,510.6,552.0,0.0,14.545454545454545,491.0,619.0,7.333333333333333,85.9375,,,0.029880498585094235,0.016828113996098473,0.0013013509860213945,0.048009963567214105,1.7756296749607177,0.6223811968376406,0.35051295076571054,-4.084704339085075,10.855571936379912,38.117569656888406,0.28479181737176024,1299.9534020486092,3.5113368397611815,3.8208978948871946,535.3745063135809,0.45454545454545453,0.45794392523364486,0.6530612244897959,0.13333333333333333,51.193225558121625,51.217411522045744,51.166501800127804,42.99065420560748,0.4427208105879119,0.557279189412088,7.224251851563234,8.105210943858552,0.5782956942820451,0.4217043057179549,28.98679385703875,24.753078564842813,0.5681213849093323,0.4318786150906676,21.123731120771186,18.417509914232774,1.4064795464360527,0.9389256711855369,1.7916398522019765,1.8759423820288212,-0.6313526799038378,-1.6729872824719914,-0.41021384076079226,0.001240780282709642,0.10048484253341748,0.777915032738902,1.4484261422268967,5.88918730000268,1.0021361750953433,1.279957768271058,1.1598034073004915,1.6597201645853676,1.720305565413013,1.6207735919535562,2.1559917136025097,0.863082145357684,Relax
111.894942467306,535.8909090909091,30.528177825867804,,,,,,,15.927012424514592,15.966043435471114,0.05696715004487783,0.029720624392627487,531.0,23.7216,0.044673446327683615,33.5,1.9167548195592126,509.8,553.4,0.0,16.363636363636363,490.0,640.0,7.333333333333333,85.9375,,,0.0387640093414157,0.02348562123651547,0.0015470194401071829,0.06379665001803836,1.6505422169180426,0.6076182578623684,0.36813251526334,-3.751366907372074,11.289697581940587,40.63923578955383,0.27780290063531565,1441.3774184830925,3.599674437210952,3.865747823810504,585.1520728777815,0.44545454545454544,0.4380952380952381,0.6086956521739131,0.1,54.241071428571445,53.95580998647655,54.54672010320022,42.857142857142854,0.5292224231464739,0.4707775768535262,8.23075758180074,7.762981958557477,0.6269767965277082,0.3730232034722917,32.178905385502844,24.82066747188337,0.6199450089984136,0.38005499100158646,23.48645697183288,18.38925532258849,1.442161668578353,1.3739366388299177,1.4980218641925198,2.129129987993312,-0.8486420205692884,-1.8481254603278465,-0.04065703907695407,0.002559836017337986,0.2036804250561229,0.769140455620577,1.2845116668099483,5.870097613910772,0.9334353648246498,1.394662536912755,1.0504426731768364,1.382576959396605,1.731180523026169,1.6122276513421672,2.1092854652481594,0.739784696020872,Relax
110.83059501789096,541.4587155963303,31.915261677834664,,,,,,,15.897530672449777,15.965139745362647,0.05894311192809058,0.02936055919783503,538.0,25.2042,0.046847955390334574,34.0,2.0075609436088975,515.0,559.8,0.0,17.431192660550458,493.0,639.0,7.785714285714286,62.5,,,0.04226401186235609,0.021269146234237195,0.0012503147724572449,0.06478347286905053,1.9871042963785361,0.6523887959477884,0.32831130058787344,-3.850497790009676,11.289058576536798,43.74036164413967,0.2580924837426283,1551.2791973871822,3.874580094309168,3.897660078615109,677.9021381770712,0.43119266055045874,0.4230769230769231,0.5909090909090909,0.10344827586206896,51.82427401340283,51.90194566552777,51.745321024521964,45.19230769230769,0.5176039567686389,0.48239604323136104,8.125188710964506,7.843980965248295,0.48278793650013957,0.5172120634998604,30.39209053993806,31.45695581858378,0.4849639182519107,0.5150360817480892,22.245200144936632,22.9245295126804,1.5288359902064672,1.214451158726671,1.5597800941329092,2.1360615695698026,-0.8805414923120054,-1.9000089798025017,-0.025479908108355945,0.0026589407529873867,0.17109841036925194,0.6986807011406531,1.182199004776375,5.8807617930961875,0.9362470746807391,1.2925076977884558,1.0233097329200793,1.3959753060138858,1.7202976439690598,1.5550780649457465,1.9513344144746458,0.8693080784117153,Relax
110.60576028910073,542.5925925925926,31.186816360618998,,,,,,,15.587857723600601,15.6608721530186,0.057477408992267096,0.02872847498547551,539.0,23.7216,0.04401038961038961,32.0,2.000712151317688,517.4,557.6,0.0,16.666666666666664,493.0,639.0,7.2,62.5,,,0.03592275636596079,0.018676250792087002,0.0006545192248729051,0.05525352638292069,1.9234458117890028,0.6501441395252702,0.3380101147328758,-3.980502573387522,11.073908898695018,42.881281083066845,0.25824575709954556,1491.8273694428465,3.8722804635064407,3.8806886805273764,664.1933879523523,0.4166666666666667,0.4077669902912621,0.5714285714285714,0.1111111111111111,49.57397366382648,49.56119552162785,49.58783876300898,45.63106796116505,0.4858648409554213,0.5141351590445785,7.719125964795325,7.940521821168482,0.48448134772852125,0.5155186522714786,29.84738463655678,30.78860012541039,0.4845678490133197,0.5154321509866803,21.799670585847654,22.483213565623505,1.5533029592835508,1.4332609205267666,1.5533029592835508,2.121649983832567,-1.0833054994188487,-1.647274168241574,-0.10345878659683845,0.002716847263351934,0.18287177276363725,0.6988607173707115,1.146973360361531,5.856558335416673,0.9271073649093595,1.4668502043725495,0.9734128058645662,1.242553955144395,1.6652311171596168,1.5473938491986792,2.209556456804365,0.8130883104456026,Relax
110.51111201524274,542.9816513761468,30.15975416547324,,,,,,,15.079726395002933,15.149957132205019,0.05554470227315338,0.02777207361756052,539.0,22.238999999999997,0.04125974025974025,29.0,2.0000199854731764,521.0,557.0,0.0,14.678899082568808,501.0,639.0,7.266666666666667,62.5,,,0.041698721449863675,0.025442721442414485,0.0006233568905981342,0.06776479978287629,1.63892536198386,0.6153448631659746,0.3754563065770865,-3.67132557129395,10.71263742286767,41.37403104352518,0.2589217717654355,1392.4323828127679,3.8621703890777015,3.850744224770363,639.1742302923382,0.43119266055045874,0.4230769230769231,0.6136363636363636,0.10344827586206896,50.198570293884025,50.20981369368863,50.18749423295979,44.230769230769226,0.498961684107659,0.5010383158923409,7.567144920178987,7.582875444051551,0.4881682047324663,0.5118317952675335,28.907636217368314,29.59998332963855,0.48884634814220046,0.5111536518577995,21.129518616365765,21.606237677056136,1.4574910987271144,1.541015518345282,1.4736996699980995,1.809219451567874,-1.3273952686569181,-1.0737741792769535,-0.2822735867513845,0.001180628154006451,0.11644448012806805,0.7174618169166616,1.0911773101805917,5.7568189031482335,0.9183885185285794,1.4190640855169072,1.1076562329880397,1.3242347293464511,1.6473165296220587,1.5950226420666194,2.001040131240436,0.7451212100671846,Relax
111.34088700183301,538.8073394495412,27.30875489255882,,,,,,,14.520101009749668,14.58037724081914,0.05068370991467583,0.026948595437812257,535.0,20.7564,0.038797009345794393,28.0,1.8807551596384957,519.6,552.0,0.0,13.761467889908257,501.0,639.0,6.8125,70.3125,,,0.026566219505156887,0.03197771427046878,0.0009283235489477798,0.059472257324573445,0.8307729339395163,0.44669936370785684,0.5376912817677066,-3.442716047849622,10.309883619241216,36.749818393506295,0.2805424372127775,1190.3065757955528,3.564523107217286,3.7826289428068343,523.9823073987681,0.44036697247706424,0.4326923076923077,0.6222222222222222,0.1,47.92013311148086,48.05313181812689,47.78278104800087,47.11538461538461,0.48335529205094424,0.5166447079490558,7.1714647417425175,7.414307966143734,0.43332229907261954,0.5666777009273806,24.191384076485118,27.664527619673464,0.43697623382770434,0.5630237661722958,17.84170633765271,20.2521363198614,1.5234420674448232,1.2916212386588777,1.5622767704777563,2.0958810449424674,-1.2416184055595316,-1.948837533015352,-0.08687248359374636,0.00317725615972591,0.1813153200044032,0.7454664540521723,1.2070929316621795,5.676498834321046,0.9476676673030602,1.5641643703705923,1.1567661729883179,1.3755837633495893,1.6565325505964563,1.6277715698926036,2.068793787352064,0.8693080784117153,Relax
111.70303694957383,537.1272727272727,25.665136846985227,,,,,,,14.350782352486585,14.416490633113584,0.047782226206221225,0.0267176572130107,535.0,20.7564,0.038797009345794393,24.75,1.7884137754021603,517.8,550.0,0.0,14.545454545454545,501.0,639.0,5.7894736842105265,54.6875,,,0.03376384827113276,0.026444326086604516,0.0005077775960233774,0.06071595195376065,1.2767898928699106,0.556095180667615,0.4355416531514433,-3.6327136583735338,10.193998287586957,34.91820693665533,0.2919393400147882,1118.2691998210323,3.425369119315488,3.755516473372321,478.43099097074816,0.43636363636363634,0.42857142857142855,0.6,0.0967741935483871,49.42434210526315,49.39727468469755,49.452003745691684,45.714285714285715,0.5036083392729863,0.4963916607270135,7.234498114103214,7.182476102498564,0.4072040636443806,0.5927959363556194,22.282195795261362,26.88465968192122,0.41477574580647675,0.5852242541935233,16.565539719872184,19.677053757812466,1.541964530739571,0.8551747185660457,1.6530573336541239,1.9019707526628133,-0.8870792683332276,-1.8870792683332276,-0.20893267351721212,0.001031988639857556,0.068575891239381,0.7855647393566283,1.2459370034249682,5.678775963386985,0.9932117322320418,1.3571324419506166,1.0213979345724276,1.7975142802421844,1.6646326810511234,1.6325431148977223,2.033946525930754,0.9247308700260899,Relax
111.83916781395871,536.5272727272727,25.916488708718962,,,,,,,14.403745690210478,14.47008819114794,0.04830414039715148,0.02684625073576117,533.0,19.273799999999998,0.03616097560975609,25.0,1.7992881342200544,515.8,550.0,0.0,15.454545454545453,501.0,639.0,6.470588235294118,62.5,,,0.04247499697591199,0.03209492798229958,0.0004239980486913884,0.07499392300690297,1.3234177375109564,0.5663791847774425,0.42796704980142636,-3.439057268112498,10.231897484328092,35.34259899090434,0.28950608547383117,1136.068546409683,3.4541588248941704,3.7623746459401124,488.3158007965121,0.42727272727272725,0.4077669902912621,0.5476190476190477,0.06451612903225806,50.33003300330032,50.327198063465225,50.33248646196602,45.63106796116505,0.5166710887061112,0.4833289112938887,7.354766657929576,7.1134978633476695,0.40382806847041125,0.5961719315295887,22.45932677158042,27.28878788805474,0.4125546838293183,0.5874453161706817,16.710983687760898,19.940910162917525,1.4858805020970551,1.6333270707973384,1.600189131425166,2.3025440374957244,-1.2226044894470736,-2.238569863622214,-0.06998514343628001,0.0038582525879507696,0.2929300976076845,0.8153141454899111,1.2781978656431896,5.710683008880866,0.9963219643730961,1.5458351537195374,1.1451791870409012,1.8417657801648897,1.695919967954947,1.6221704192129864,2.1658722238463612,0.739784696020872,Relax
111.42317097102207,538.5727272727273,26.900584588617054,,,,,,,14.567778948289906,14.624615372297205,0.04994791460168924,0.027048861204055998,535.0,22.238999999999997,0.04156822429906541,29.0,1.8465810528910367,517.8,554.4,0.0,16.363636363636363,501.0,639.0,6.470588235294118,62.5,,,0.047847024199419684,0.04707029232963534,0.000841322722914241,0.09575863925196927,1.0165015306118104,0.49966274137960576,0.4915513910528688,-3.0561132130586213,10.341164701996377,36.549318753229564,0.2829372763913038,1187.4042917871484,3.5343522520411716,3.7815687242807408,516.7126681841901,0.4,0.3846153846153846,0.525,0.03225806451612903,52.419354838709666,52.484682982750165,52.352715659496354,44.230769230769226,0.5444406017637904,0.45555939823620956,7.635807459303538,6.984771795630623,0.45046868306186505,0.5495313169381348,24.530793039169932,27.094148707693144,0.45744309605389577,0.5425569039461042,18.166801626678037,19.784841814273207,1.4167298098411114,1.4014702745183483,1.4167298098411114,1.904348693291562,-1.2222685669980518,-1.492022857833052,-0.15206619625376386,0.0011638571617523473,0.12357736736464232,0.7444013509131122,1.244940242814159,5.774141645165831,1.0063483105758615,1.2742013364050007,1.1861387434506026,1.7190442335006944,1.725357924927118,1.6387207865631157,1.879746068266832,0.863082145357684,Relax
110.50738955467926,543.0091743119266,26.324363948154375,,,,,,,14.4952099367726,14.561348953673226,0.048478672540866845,0.02669422658491947,538.0,22.238999999999997,0.041336431226765794,31.0,1.8160733140796144,521.0,558.0,0.0,15.59633027522936,505.0,639.0,6.411764705882353,70.3125,,,0.04762859422433262,0.03700194119009211,0.0008600535932636676,0.0854905890076884,1.2871917713626866,0.5571209039166785,0.43281888240078015,-3.2967849031170475,10.296428588365975,35.84885196091903,0.2872178054569426,1159.609425317632,3.4816782977958938,3.7712818466092233,499.25667949291824,0.41284403669724773,0.3921568627450981,0.55,0.0,50.9001636661211,50.93702465082721,50.86331321978717,46.07843137254902,0.5345496210118104,0.4654503789881897,7.528761052832943,7.02532135826653,0.43856850814890225,0.5614314918510976,23.740724810710862,26.86109030508601,0.4458843147441525,0.5541156852558475,17.611136498371657,19.6325407495426,1.4364895800639594,1.2198829179822575,1.4641980063484645,1.96349386080478,-0.9584136178865545,-1.590496555273483,-0.09070182302234885,0.0010792359856660212,0.11392632813066718,0.7374601170042832,1.2614712963871522,5.795348544801627,1.0191707286542129,1.4707655792859136,1.2186496928534487,1.726141519782806,1.7593294005950737,1.6185421165040108,1.9556396836378958,0.8693080784117153,Relax
110.11298716283555,544.8981481481482,26.02979594450226,,,,,,,14.78285189942637,14.850563447319912,0.04777002093504128,0.027129568983976754,540.0,22.9803,0.042556111111111114,30.25,1.760810168538069,523.4,560.6,0.0,16.666666666666664,507.0,639.0,6.352941176470588,70.3125,,,0.05644407136528248,0.035652218618377425,0.0005681833005535762,0.09266447328421348,1.583185382358999,0.6091231014950194,0.3847452789056236,-3.3339439007236757,10.500934118040982,35.337499158319616,0.2971612131066359,1165.7719934704917,3.3651767320022055,3.77358372757129,475.66771973889877,0.4074074074074074,0.3921568627450981,0.525,0.0,50.997605746209096,50.97279858001724,51.02114788781675,46.07843137254902,0.5323097977162897,0.46769020228371044,7.662392847599462,7.1822632686624175,0.43961338097502595,0.5603866190249741,23.429944651681996,26.45328978375576,0.44713647255870187,0.5528635274412981,17.43092898459266,19.382484954769527,1.4460569644693329,0.5346714987444408,1.4925129037298026,1.5254830052558601,0.5489857549707295,0.15364450331912494,-0.4383357788782821,0.0001126093731461301,0.013809349406751452,0.7163882494096594,1.2738163776932,5.737170807735366,1.0407875468221166,1.1403961300843335,1.1602240411078142,1.6846732158348185,1.7816710941814369,1.6008020923686626,2.3039639497933124,0.8130883104456026,Relax
109.74031125891273,546.8611111111111,26.329138235977666,,,,,,,15.13490735223535,15.204460871740311,0.048145932671061924,0.02767596203994883,544.0,23.7216,0.043605882352941175,32.25,1.739629957634923,524.8,562.6,0.0,18.51851851851852,507.0,639.0,7.2,85.9375,,,0.047780345187343795,0.0357435082151839,0.0005895967993785888,0.08411345020190628,1.336755891438956,0.568046431012539,0.42494402654254504,-3.331386614717752,10.751177386693099,35.73500477176037,0.3008584287412557,1206.9790851349449,3.323822450924319,3.788669854550291,475.10724457705925,0.4166666666666667,0.4019607843137255,0.5121951219512195,0.0,49.06976744186047,49.03473140043366,49.10581685003019,48.03921568627451,0.5072623419012648,0.4927376580987352,7.658082424151254,7.54764739054995,0.4373527086827077,0.5626472913172924,23.632504797817514,26.80476231976079,0.4431565683936701,0.55684343160633,17.566182132637163,19.690889570445304,1.464385544355466,0.6901633838995069,1.4936459602310017,1.6925323973649369,-0.3694549211771072,-0.8973327685915624,-0.2118270227403218,0.0003621911209253194,0.029854252306150415,0.7374026663505773,1.3350010667323402,5.76151516406028,1.0338156675973236,1.2135982093566526,1.1145413059961673,1.5417106639350384,1.8111495521618173,1.5988149927960384,2.263629418068731,0.8756335650952644,Relax
110.39084340682551,543.8073394495412,30.562164052298932,,,,,,,16.55909730944606,16.590918207808546,0.056200352285121616,0.030450301252292207,540.0,26.686799999999998,0.04942,35.0,1.8456419139988318,519.6,562.0,0.9174311926605505,19.26605504587156,481.0,641.0,7.785714285714286,109.375,,,0.016985634030866698,0.040367457473715736,0.0014186018430268272,0.05877169334760926,0.42077542391483214,0.2890104583239415,0.6868520400622049,-3.209731326687328,11.731550770852785,40.58807498617568,0.28903934899224853,1495.9040955346472,3.459736549665485,3.881873861167233,561.6961860409417,0.4036697247706422,0.4,0.5238095238095238,0.0,54.845814977973575,54.64589660751618,55.06114823912714,45.714285714285715,0.612716958195448,0.387283041804552,9.208133341028908,7.320755285073067,0.4610848059717278,0.5389151940282725,27.560612162912992,29.79604819919769,0.472835076271642,0.5271649237283581,20.547226849634427,21.6955980124176,1.4479790650790179,0.6226551091491155,1.4899324673550842,1.53791484424281,0.3674087970538622,0.06007107911434861,-0.42293907785757057,0.00011490242538383245,0.016650274132459557,0.7385427920581424,1.2578520380028393,5.8548918933857825,0.9564461018015342,1.1781649447146645,1.1828410811822228,1.7908501544607223,1.7274099265295675,1.6029804127354854,1.9939034347095586,0.8693080784117153,Relax
109.86659798357128,546.0462962962963,30.91906355029654,,,,,,,15.866558024707246,15.938212782405422,0.05662352031322853,0.029057166273860624,543.0,26.686799999999998,0.04914696132596685,35.0,1.9486938189208827,520.4,563.6,0.9259259259259258,18.51851851851852,481.0,637.0,7.2,93.75,,,0.0505011170267458,0.023247603398019342,0.0009063280013865409,0.07465504842615169,2.1723149763922938,0.67645950396377,0.31140028555491095,-3.7615532319169267,11.270018338432983,42.13323808309304,0.26748521716291596,1491.7612881801908,3.7385243588655395,3.880669442803262,630.0645475660981,0.4444444444444444,0.44230769230769235,0.5652173913043478,0.034482758620689655,48.71794871794871,48.783842681873516,48.65182178938035,49.03846153846153,0.5101904443701972,0.48980955562980305,8.051426687122799,7.888970088459189,0.3778275518195792,0.6221724481804207,25.898323388302323,33.233817069989335,0.38666867030835556,0.6133313296916445,19.177442817320564,24.152871942049856,1.4875219688879446,1.0843456344914761,1.4875219688879446,1.841614132649291,-0.6700669132803121,-1.0517503112638469,-0.1734508329280042,0.0004914249636177037,0.06578322607039509,0.7152430996992711,1.2582424342599936,5.895683914020216,0.937807241728491,1.4906989774346164,1.1752187779185896,1.7942194398735327,1.7245137362387666,1.5336914208002004,2.0618303482570934,0.8756335650952644,Relax
109.73306762696623,546.8333333333334,30.846772351187425,,,,,,,15.567759639296717,15.641020089302431,0.05640982447641711,0.02846892954458406,544.0,27.428099999999997,0.05041930147058823,37.0,1.9814522491292104,520.4,566.6,0.9259259259259258,15.74074074074074,481.0,637.0,7.714285714285714,117.1875,,,0.04273264132655864,0.03740729679134324,0.0006642700000652926,0.08080420811796717,1.1423611164666618,0.5288417809153291,0.46293748385890765,-3.285889492218635,11.059871369820769,42.36785237036643,0.2610439460829606,1472.0969023288549,3.8307726151297024,3.8749065087958514,649.206434489031,0.4537037037037037,0.4519230769230769,0.574468085106383,0.03571428571428571,50.000000000000014,49.99574795341364,50.004607221474416,49.03846153846153,0.5318139750115687,0.46818602498843126,8.065474988644675,7.567619700046263,0.3910435660202141,0.6089564339797859,26.494090927751046,33.062033518663426,0.40002423817525434,0.5999757618247454,19.583012292295496,23.982982803581294,1.5537608234319111,1.2563646747306922,1.6943183184878472,1.8474176596326997,-0.32628348339799196,-0.34120932526051284,-0.37814100139541884,0.0003591901489138217,0.07815252321771696,0.7520541026846934,1.3627638637096966,5.990727085376609,0.9286064105488931,0.9217649610219907,1.2382319529300698,1.71684528880016,1.8002539505693538,1.4901912264540371,2.140430194087874,0.8130883104456026,Relax
110.0238382470071,545.183486238532,31.749938797728902,,,,,,,15.69146972791976,15.761813109839833,0.058237161614681544,0.0287819974815861,543.0,31.1346,0.05733812154696132,42.0,2.0233884619001867,518.0,566.4,0.9174311926605505,15.59633027522936,481.0,637.0,8.384615384615385,54.6875,,,0.05173734622097107,0.01573824767564707,0.0008058203284100386,0.06828141422502818,3.2873638340962197,0.7577075959567199,0.23049094478008486,-4.151661371564846,11.145284933762772,43.30648581212332,0.25735833154678955,1516.3309240649278,3.885632899427594,3.8877641020306646,673.0924241207227,0.47706422018348627,0.47619047619047616,0.62,0.07142857142857142,48.73817034700314,48.62814066278145,48.84355072752112,50.476190476190474,0.5154933814681107,0.4845066185318894,8.003503905562559,7.75922724738975,0.3880171324442277,0.6119828675557721,26.976052266211774,33.87837536727889,0.3959384741646373,0.6040615258353627,19.8967770082964,24.575902068926023,1.565735315671417,0.5155138983706804,1.6465648217639477,1.7337907470515384,0.4471649352668834,-0.218309335138394,-0.330798111237593,0.00018285184251257014,0.017386979242783547,0.7751405541523533,1.4482860371478585,6.00410898060129,0.9102290598922919,1.5141935718877715,1.1143317859185677,1.587062015807162,1.8179823558955444,1.461653044324994,2.0441299039121295,0.7451212100671846,Relax
110.60318012965978,542.4587155963303,34.018658309078674,,,,,,,15.456330358404875,15.528251701333456,0.06271197665555363,0.028493099869201247,540.0,34.099799999999995,0.06314777777777777,48.0,2.2009531059602345,513.0,566.4,0.9174311926605505,14.678899082568808,481.0,637.0,8.384615384615385,31.25,,,0.03746839869968787,0.011320520429470656,0.0007893140857366994,0.049578233214895226,3.309777048954973,0.7557429192218755,0.22833650365074995,-4.481138232929024,10.98013207798443,46.899413568585146,0.23412088217110041,1617.8000675283563,4.271297761765561,3.915894959169878,801.2854408144607,0.5137614678899083,0.5142857142857143,0.6666666666666666,0.1111111111111111,49.71842316975058,49.69648965700677,49.74068966883854,50.476190476190474,0.5351730553079338,0.46482694469206626,8.032643679759566,7.486124235862397,0.4023694254421146,0.5976305745578856,29.749515606019582,36.25632792057665,0.40927058686143086,0.5907294131385692,21.789413063214713,26.17788542223333,1.5778651151437109,1.2955457615139645,1.7144599613458307,2.0281771434642013,-0.6904496082121554,-1.1053922539303596,-0.25784940104951354,0.0005234308710178511,0.09939692655799304,0.7747856606322285,1.4766784225881595,6.052229278746579,0.8378035949546072,1.28164427649181,1.2895267099411751,1.6364747110421556,1.7816207755739828,1.4458872326838381,1.997206663706386,0.6830277758949191,Relax
109.80285020342333,546.4629629629629,37.304111653797484,,,,,,,16.689019278734783,16.763349152291205,0.06826466601054133,0.030540073911405955,546.0,37.8063,0.06924230769230769,49.0,2.2352488801622115,513.4,573.0,0.9259259259259258,17.59259259259259,481.0,644.0,9.0,39.0625,,,0.04969843259440959,0.012417802186866807,0.0006463010003808216,0.06276253578165722,4.002192324095093,0.7918487036168207,0.1978537360260067,-4.388624175714806,11.853477860982874,51.58016651632902,0.22980689403610888,1920.7834516144876,4.351479550665147,3.9904485153908786,897.8001592628353,0.49074074074074076,0.4903846153846154,0.6470588235294118,0.125,51.51057401812689,51.50302106389566,51.512218891889994,49.03846153846153,0.5527145829138984,0.4472854170861018,8.814653323162922,7.9295244807343925,0.3992129905440867,0.6007870094559132,32.590053418144876,39.980019960659014,0.4069166223715939,0.5930833776284061,23.87267993968297,28.8208202047171,1.677272805581786,0.8201798997422678,1.6997577579258847,1.898598933192897,0.11921004960289672,-0.18940830659321506,-0.25756394989746045,0.0006242040176487798,0.04495410565570709,0.6996764938845175,1.244940242814159,6.002255904801021,0.8321587813626785,1.1975413116165219,1.3012178561984429,1.6917045333041203,1.77157574899573,1.421807231266065,2.1298738424004244,0.6879978011462792,Relax
109.52594508293471,547.9166666666666,36.77110939285499,,,,,,,16.39979484713261,16.47487306252706,0.06711076999456424,0.029931184511877013,548.5,34.8411,0.06352069279854147,46.5,2.242168864647972,514.4,572.6,0.9259259259259258,16.666666666666664,481.0,644.0,9.818181818181818,125.0,,,0.04369819672629888,0.010042763432873504,0.0006085005311052727,0.05434946069027766,4.351212394713917,0.804022637415349,0.18478128955325607,-4.600902960272694,11.649494461700469,50.82069277684496,0.22922738406683504,1859.9339974687364,4.362480530286178,3.976467642865882,886.8171310985662,0.4722222222222222,0.47619047619047616,0.68,0.125,51.07526881720431,51.120435822067925,51.028242037314264,50.476190476190474,0.5641462228090903,0.43585377719090973,8.751010723296211,7.691884966614012,0.3979787224640032,0.602021277535997,32.06051599234712,39.43179083712679,0.4062761486638733,0.5937238513361269,23.499541212274664,28.408020196438706,1.6432532575932686,0.723714783766634,1.7019293783565619,1.771410695992023,0.004330085784896909,-0.37700501439120426,-0.40399350794820044,3.478414605298056e-05,0.018868759155815835,0.7141974106574693,1.2095129847015513,6.009245603895127,0.8025486819236259,0.9623101960282314,1.2029987945967517,1.5100590273919778,1.8021885219647285,1.3776569608701021,1.9727344477384299,0.6879978011462792,Relax
109.65795199578993,547.2314814814815,37.040166750770545,,,,,,,16.435941923598048,16.512964934645023,0.06768646907976546,0.030034715618155176,548.0,35.5824,0.06493138686131388,48.5,2.253607789742175,514.4,572.6,0.9259259259259258,16.666666666666664,481.0,644.0,10.8,31.25,,,0.044817397701740605,0.00981389213733315,0.0008978526760090973,0.055529142515082855,4.566730210050932,0.8070968805175999,0.17673408399323823,-4.623956332068409,11.676429482783169,51.309394277304236,0.22756903774145745,1882.1612211483043,4.3942708987331836,3.9816269312083055,901.8695124175398,0.4537037037037037,0.4622641509433962,0.6530612244897959,0.125,50.4201680672269,50.42161760216888,50.41722242347129,52.83018867924528,0.559211209133368,0.44078879086663203,8.731854500555304,7.752358131805676,0.38801155526938347,0.6119884447306166,31.96091597832861,40.139180247360315,0.39644135600713815,0.6035586439928619,23.428032708623327,28.90720366564236,1.6370415249750194,0.9885582540255289,1.6995335833720833,1.919059653941738,-0.5096117189313727,-0.9371372115904748,-0.27793309632920676,0.0001791223506905587,0.04492053637037804,0.6941783477664321,1.1518163247315742,6.078780557638895,0.8000531155456169,1.116492887706629,1.1459182882344938,1.3931520913951354,1.7854137975949695,1.3882113665141287,2.164098944790877,0.6254525464966174,Relax
110.23629304690165,544.324074074074,36.700054420419484,,,,,,,16.209493007228875,16.27250418722836,0.06742316970427653,0.029779121996031752,541.0,34.8411,0.06440129390018484,46.5,2.2641087172839103,514.0,571.0,0.9259259259259258,14.814814814814813,481.0,644.0,9.818181818181818,140.625,,,0.05026770173011498,0.010314172071669559,0.0006847334320371701,0.061266607233821706,4.873653588559739,0.8204747088127499,0.1683490001707767,-4.574236400181544,11.506398057675662,50.628226650788015,0.22727238970943828,1830.130178431937,4.400006535234982,3.969452092459374,891.0581125233006,0.4537037037037037,0.4622641509433962,0.6326530612244898,0.125,47.31182795698925,47.2946210330985,47.3378845616795,56.60377358490566,0.5426477911360887,0.4573522088639112,8.483057476579031,7.787871557506994,0.36169748496869525,0.6383025150313045,30.448468977354395,40.44883274877841,0.3705987864931885,0.6294012135068117,22.3502967230399,29.126954991338135,1.642577449954455,1.1688601265009897,1.7691316478021568,1.7711015382166986,-0.1931059537585469,-0.004362171123219127,-0.49831469106535553,5.3894612148744336e-05,0.05210629252694042,0.6836676423321455,1.0887599922250981,6.064801159450683,0.7910879157511125,1.1232181703305217,0.9232653475861134,1.3166213944519658,1.7861189763417742,1.401681081708907,2.1977942328133735,0.6879978011462792,Relax
110.83731760321997,541.4770642201835,37.07090211869662,,,,,,,16.459827639617796,16.53053438271713,0.06846255283607414,0.030398014481597055,534.0,34.099799999999995,0.0638573033707865,48.0,2.2522047575680095,512.2,567.4,0.9174311926605505,15.59633027522936,481.0,644.0,9.909090909090908,132.8125,,,0.03438735891207346,0.009575081055440695,0.0005206466615590499,0.0444830866290732,3.591338675147202,0.7730434535448494,0.2152521729277353,-4.648591278631081,11.688852958656659,51.238067526624455,0.22812829450647934,1881.5445677317844,4.383498338789351,3.981484619777253,898.4079355429396,0.43119266055045874,0.4392523364485981,0.5957446808510638,0.12,51.783060921248136,51.825027215653066,51.73570386366868,52.336448598130836,0.5790498974709503,0.42095010252904996,8.897915328674559,7.586572003636104,0.3809650538648066,0.6190349461351936,31.62534787730323,40.31348329656568,0.39077072547517744,0.6092292745248222,23.230750370540225,29.006318365735723,1.6147339966770389,1.1070845192919894,1.6823275483177058,1.7445691589323902,-0.33176991760224794,-0.16867065470206377,-0.4437788086364991,0.00016274777289978506,0.04455903160675018,0.7224506282627288,1.1874435023747256,5.999611503576768,0.805836916322209,1.2839961058339662,1.1005378698926909,1.4564610678375356,1.8132774675128727,1.4319836363438796,1.9652065922173185,0.6209343417226538,Relax
110.34053096241387,543.7407407407408,39.10956819858562,,,,,,,17.048309588140523,17.12851420707545,0.07192686747236644,0.03135374694365466,536.0,34.099799999999995,0.06361902985074626,50.25,2.2940437582029705,513.0,571.6,0.9259259259259258,19.444444444444446,481.0,644.0,9.818181818181818,117.1875,,,0.03055188469870763,0.007325873857505169,0.0004271238520133795,0.03830488240822618,4.170408239749857,0.797597663219727,0.19125169944215514,-4.916342833241517,12.11168854747317,54.189580809528934,0.223505854198145,2061.913103459762,4.474155737833464,4.0212404685411345,969.8104956389761,0.4351851851851852,0.44339622641509435,0.6170212765957447,0.12,49.8913830557567,49.887204638267825,49.89643396968664,54.71698113207547,0.5656451975947778,0.43435480240522195,9.109139097320867,7.982291721809939,0.3871859146716333,0.6128140853283669,33.719068330153654,42.420927609599666,0.39567669171789466,0.6043233082821052,24.697692039418488,30.522549700106726,1.6738424273022656,1.0264125438174823,1.7525377787569965,1.8233307319225354,0.053500502234482994,0.14123588284760658,-0.43102875292010523,0.0003362618210379854,0.04864660108482089,0.6977809725700079,1.1786549963416462,5.990727085376609,0.79701572296336,1.5560292753350182,1.095113487790708,1.5263510462119245,1.8485735344868197,1.4259463589466086,2.510780207696403,0.5629072918469556,Relax
110.13839791318392,544.7407407407408,38.656012425526214,,,,,,,17.047213163315405,17.10882940856166,0.07096222025354962,0.03129417700635816,537.5,34.099799999999995,0.06344148837209301,48.5,2.2675854437434775,514.4,572.0,0.9259259259259258,19.444444444444446,481.0,644.0,8.307692307692308,101.5625,,,0.03281884872083141,0.01242749663365292,0.00035584460110131766,0.04560218995558565,2.6408253961590242,0.7196770320196333,0.27251973306011634,-4.387843790874347,12.097769292957778,53.24486376680295,0.22721007130269874,2023.6383029392405,4.401213354084812,4.01310300099765,937.3680217875187,0.42592592592592593,0.4339622641509434,0.5869565217391305,0.12,53.033547466095634,53.117358083713576,52.94357401236985,50.943396226415096,0.5912526129602828,0.40874738703971714,9.312448556271734,7.742921295524012,0.40711647651826616,0.5928835234817339,33.97324724511471,40.99797542766852,0.4161744538870338,0.5838255461129662,24.908866157363544,29.502430572381584,1.6772962108446334,0.9321995539580588,1.6772962108446334,1.9598257038632072,-0.5905617371582732,-0.9946744800600023,-0.19692166036877845,0.0005229963500317468,0.04984373676861544,0.6798584706049828,1.1420974006078486,5.975823006909599,0.8107000298694715,1.005401168280403,1.0168962999423863,1.4289604636730513,1.825821852438824,1.4592823745033254,1.9215249126650198,0.6254525464966174,Relax
109.20545234548004,549.3518518518518,39.00259153019585,,,,,,,16.70217401485297,16.753952941445448,0.0709974698341674,0.03040341806175832,542.0,35.5824,0.06565018450184502,48.0,2.3351805277271978,517.4,578.8000000000001,0.0,21.296296296296298,483.0,658.0,7.714285714285714,70.3125,,,0.03950778172213253,0.01064445117631739,0.0003146397961021658,0.05046687269455209,3.7115846620662363,0.782845847438401,0.21091957175041007,-4.542716538911089,11.84683373657638,53.5646345625952,0.22116894539310758,1993.5645965364063,4.521430430581434,4.006600422428123,968.755074857168,0.39814814814814814,0.4056603773584906,0.5813953488372093,0.125,46.466060181945416,46.56072161845697,46.379073672224806,52.83018867924528,0.4705685282589031,0.5294314717410968,8.139700054739858,8.633797126999722,0.46180766961274977,0.5381923303872502,36.4006146436992,39.29586911349946,0.46221747609960906,0.5377825239003907,26.374793491326344,28.44914570084196,1.5148509151055043,0.783045999644985,1.5642859047020627,1.8120022244913256,-0.21207429845466308,-0.941557825912037,-0.1836503603855051,0.0002795974336495641,0.03883799703535174,0.6697571198506558,1.1151415906193203,5.989802405097812,0.8386509175167878,1.1736235654254785,1.0192836740451487,1.461270765911825,1.7596876085355704,1.494729478995768,1.970873306204036,0.4378167825476322,Relax
109.43993910087845,547.8785046728972,39.02145280323348,,,,,,,17.05180784970896,17.111087287957496,0.07122282124671174,0.03112333793765005,541.0,34.099799999999995,0.06303105360443621,46.5,2.288405613478661,517.2,572.0,0.0,23.364485981308412,483.0,658.0,8.23076923076923,109.375,,,0.056941039861383186,0.011977942030782784,0.00026857193783227684,0.06918755382999825,4.753824965511372,0.8229954191080935,0.1731227853526078,-4.4246884847923535,12.099365854789676,52.98923291605046,0.22833630888672052,2014.1885101418716,4.37950497174809,4.01107022418494,928.2664360198421,0.3364485981308411,0.34285714285714286,0.4722222222222222,0.08,53.11857436600411,52.84866240633542,53.40097787351304,48.57142857142857,0.5609487038058465,0.43905129619415334,9.07350932266956,8.027334254788151,0.5328579115636615,0.46714208843633853,38.68061244104977,36.21697152188117,0.5342532802765164,0.4657467197234839,28.093756870906972,26.230775069132505,1.6436477682163135,1.0337645474579764,1.6436477682163135,1.9784961989847543,-1.0034994964444088,-1.4744224363065177,-0.17608830115926116,0.000665307865716716,0.06132866064175244,0.6998263459278182,1.1888591665158876,5.924793360370734,0.8479895817960914,1.1020200124890627,1.0232216995593408,1.4053866283618228,1.7371149555517666,1.488565814563868,2.4690060977925103,0.5670392792300031,Relax
108.80866547999608,551.5046728971963,41.367969979468214,,,,,,,17.47127021767072,17.55057382279662,0.07500928280834249,0.0316792786648382,542.0,40.0302,0.07385645756457565,55.0,2.367771173135883,517.2,584.8,0.0,24.299065420560748,483.0,658.0,8.916666666666666,78.125,,,0.058157194353811115,0.014592202090590414,0.0002652417439402514,0.07301463818834178,3.9854981443351174,0.7965141757436943,0.19985310415357704,-4.227267996336085,12.410129763814597,57.39561954415286,0.21622085208554684,2237.7158779360025,4.624900837983722,4.05677505342409,1061.7961957053897,0.32710280373831774,0.3333333333333333,0.45714285714285713,0.04,51.28726287262872,51.31129388856208,51.25657143201964,50.476190476190474,0.5265483990604524,0.4734516009395475,9.007140024923084,8.540937831855413,0.4688035744744821,0.5311964255255177,39.29833996251653,41.831777622372435,0.4713836912241939,0.5286163087758062,28.50866618449638,30.189776730668598,1.648076771688433,1.3185177129583678,1.7454000264510932,2.167643709765068,-0.8639827838202496,-1.4725098957713474,-0.17975880857407395,0.001055828228007748,0.12443776229406762,0.7338396485032441,1.1583315233697322,5.984274930245506,0.826201407185416,1.5802229038149798,1.178051950287774,1.486831230700105,1.7529561953979145,1.4808166570237167,2.1249009930937977,0.5040349148711138,Relax
108.0113010815537,555.6448598130842,40.51630287675465,,,,,,,17.8642681202365,17.937557661029754,0.07291762384049429,0.032150514496338434,549.0,37.065,0.06751366120218578,53.5,2.26800799249414,521.4,587.8,0.0,26.168224299065418,483.0,658.0,9.727272727272727,140.625,,,0.05412420848247189,0.013647235991133605,0.0003422127653034123,0.0681136572389089,3.965946549003442,0.7946160972186683,0.2003597596186309,-4.2942182693473825,12.683768660038844,55.92606786987123,0.22679528783520836,2228.499137841734,4.409262685945264,4.054982580364848,986.3708969210621,0.3364485981308411,0.34285714285714286,0.4722222222222222,0.04,52.228047182175615,52.326113623722016,52.125206860624374,48.57142857142857,0.539996452642781,0.4600035473572188,9.326613226981928,8.608135686662937,0.48059637919010845,0.5194036208098916,38.77077949290654,40.305728189648946,0.4835057904928426,0.5164942095071575,28.1971546150786,29.143195817358993,1.6731008472712336,0.9748717380045298,1.6731008472712336,2.0567705215876715,-0.7025297669060002,-1.3574525846752872,-0.10644086872210146,0.0007279194596037306,0.06831300954591167,0.7305042205577679,1.1950041343431757,6.066096308770397,0.869266660929632,1.276361305933447,1.1676310134125825,1.3924604998761967,1.75380052570325,1.4843329146326556,1.9898026313368802,0.5040349148711138,Relax
107.00601805261898,560.688679245283,37.16741102159952,,,,,,,17.992061741620546,18.077534476450396,0.06628885582571213,0.03208921886177339,551.5,34.099799999999995,0.06183100634632819,49.75,2.065767200855095,529.0,592.0,0.0,27.358490566037734,492.0,658.0,8.833333333333334,132.8125,,,0.0382658389175901,0.008507775696328771,0.000136821243779775,0.04691043585769864,4.497748916218179,0.81572124023039,0.1813621114529152,-4.766774745845843,12.78274721543168,51.13995645794144,0.24995616149858235,2053.6878192736986,4.000701539040363,4.0195045372119065,818.3828100309739,0.3584905660377358,0.36538461538461536,0.5,0.08,49.40789473684211,49.37289283818691,49.44360735772946,50.0,0.5132980288320094,0.4867019711679906,9.158592014731722,8.918164264362584,0.49433061838284875,0.5056693816171511,35.955812701605936,36.365844957695934,0.49544607546565655,0.5045539245343433,26.23642767913797,26.47648327604454,1.5896236468551739,0.707533461461618,1.5996246790313329,1.9004610639609596,-0.25539018586732354,-1.0909068340224914,-0.07480967146322538,0.0005129407938203024,0.04254746077244705,0.6902690943062457,1.2276044088592128,6.0176920346090075,0.9109781201030529,1.0789610927818294,1.1670750849749167,1.3569734524480384,1.7350154783438212,1.5388770664973543,2.2948804180663775,0.6347094768455848,Relax
107.89051775393483,556.1509433962265,35.399702030715346,,,,,,,16.590875289060033,16.669558357202384,0.0636512487321181,0.029831605045466877,545.5,28.9107,0.052998533455545366,48.75,2.133685017454009,529.0,584.0,0.0,23.58490566037736,492.0,658.0,7.571428571428571,117.1875,,,0.05076315019308773,0.010709801590742482,0.00018669428323439703,0.06165964606706461,4.7398777431103145,0.8232799477615357,0.17369223266532993,-4.536595920301692,11.78715775376269,48.846488058041544,0.24131023994512504,1808.8073460746334,4.144042955770979,3.964362423094538,809.687779004313,0.3867924528301887,0.3942307692307692,0.5609756097560976,0.07142857142857142,49.35805991440799,49.33020014939199,49.38767281077205,49.03846153846153,0.5059165455677807,0.49408345443221935,8.38439484537059,8.285761652005576,0.5006791293097571,0.49932087069024284,34.56313189429206,34.516218061400735,0.5009673545995392,0.499032645400461,25.148639757105215,25.100031428426664,1.5883865760646234,1.05292895669343,1.6146845932668001,2.1148510544113384,-0.707147420051129,-1.7095132238289228,-0.024976060383752597,0.00101893059639087,0.10195013221333826,0.721364552489502,1.166931532645587,5.953966680815014,0.9045680816218261,1.184200769204822,1.0801991152910915,1.4825735688361732,1.5869746379701095,1.5225799124339423,2.2362616191265166,0.5077675814764678,Relax
107.32903782382378,559.2358490566038,35.5970977647369,,,,,,,16.62871870332425,16.690925568613515,0.06365310418634106,0.029734715203569063,549.5,31.875899999999998,0.05800891719745223,51.0,2.140699978142073,530.0,590.0,0.0,22.641509433962266,492.0,658.0,7.571428571428571,78.125,,,0.05277056181559995,0.010324702940992232,0.0002892221902707326,0.06338448694686291,5.111097347516378,0.8325469583723076,0.1628900609331702,-4.573215911397139,11.802266653846546,48.86498836500514,0.24152807661975803,1811.8118467357483,4.140305400495189,3.965083204976322,809.2639008910614,0.3867924528301887,0.3942307692307692,0.5853658536585366,0.07692307692307693,52.828854314002825,52.89796955752967,52.75402863208647,44.230769230769226,0.5303092925535577,0.46969070744644215,8.603722360788872,8.097067370350823,0.5328715188973061,0.4671284811026939,35.670488254845765,33.39765494122302,0.5327300074474964,0.4672699925525035,25.946172846882718,24.29985448076797,1.613642246637613,0.4731490269521821,1.5638731475201122,1.6985360655550945,-0.04737428921541209,-0.6233460472952155,-0.21539005606241737,0.0002709596034311202,0.012485955368668674,0.6913007635941599,1.1141164752040749,6.01057045439992,0.8987846580757648,1.0180050276866757,1.2466385706646632,1.4966546887723287,1.5782344585914259,1.5007999444531077,1.9640313102012508,0.6347094768455848,Relax
107.35327567980944,559.0471698113207,36.179284279285646,,,,,,,17.103884270622775,17.18514777443895,0.06471597788697546,0.03059470684091892,551.0,36.323699999999995,0.06592323049001814,52.75,2.115267135046413,529.0,590.0,0.0,24.528301886792452,492.0,658.0,8.153846153846153,78.125,,,0.051450579037797074,0.011071535278615366,0.0008535729735351986,0.06337568728994764,4.647104285272315,0.8118346520236939,0.17469688696175265,-4.503377853656111,12.151734526998688,49.80264898731638,0.24399775461930673,1901.2559631457236,4.098398370756455,3.9860106991568216,816.4443818758923,0.3867924528301887,0.4,0.5952380952380952,0.07692307692307693,50.58986814712006,50.62797171385364,50.55173578381492,46.666666666666664,0.5048344564898916,0.4951655435101084,8.63440123085467,8.551315688243536,0.5074090643361003,0.4925909356638998,35.4757474036299,34.953900959802645,0.5072643857654731,0.4927356142345272,25.817450866241018,25.44504069860856,1.6076802135668395,0.9324108337468213,1.747943332653764,1.9745051165364116,-0.05665484676400645,-0.8564644186837329,-0.2570150670898722,0.0003560328702986047,0.06302072256001971,0.7251325839074392,1.313022160013565,6.0059456902897965,0.9083111238643808,0.617618737176152,0.8646172623293263,1.4273123863589794,1.6137731339958956,1.467558056213301,2.0423684214174873,0.6981804245301433,Relax
105.7476539431228,567.4230769230769,40.158107986340305,,,,,,,19.18737448964358,19.273458687658653,0.07077277893613827,0.0338149350458031,565.0,41.5128,0.07347398230088495,56.0,2.092944399871682,531.6,597.8,1.9230769230769231,28.846153846153843,492.0,666.0,9.454545454545455,54.6875,,,0.05279718918211078,0.011404374029739763,0.0010402301489054135,0.06524179336075596,4.629556084746859,0.8092541063389772,0.17480166381507972,-4.473758310351375,13.62839333496221,55.27640942732815,0.24654990214007022,2366.651752013359,4.055974029273306,4.08110446704344,896.7987242748845,0.38461538461538464,0.39805825242718446,0.6341463414634146,0.08333333333333333,51.8064516129032,51.84521835692867,51.761441562794765,45.63106796116505,0.5209651898734177,0.4790348101265824,9.840642016358366,9.436319072978554,0.5292303602136327,0.4707696397863674,40.21260427629671,37.92661198282251,0.5287563778380553,0.4712436221619446,29.27363812354175,27.635774045090855,1.6701298100030848,0.7635036138263223,1.838851072884395,1.8412639052000235,0.3296979953020447,-0.18594576772983107,-0.49683978926630545,0.00016164344607388142,0.033581639791834504,0.6056166602604929,1.043552511485082,6.015014597803167,0.8965212294012267,1.1732344732598565,1.0174720982978078,1.5981842861363453,1.659569755964967,1.4422715758694167,2.1494363122040645,0.6442730498212589,Relax
105.50269436369054,568.9326923076923,38.68801385419102,,,,,,,18.838867073721797,18.921632444811593,0.06800103839571171,0.03311264641395101,566.5,40.771499999999996,0.07197087378640776,54.5,2.0536274130919825,532.0,597.8,1.9230769230769231,25.961538461538463,512.0,665.0,9.454545454545455,31.25,,,0.05072576342013696,0.00950990045140789,0.0006312503434239471,0.0608669142149688,5.333995206293382,0.8333881234883128,0.15624088347605358,-4.655421870260079,13.37961461284567,53.098258826674524,0.2519784058554527,2231.8949883442656,3.9685940412435556,4.055643866958741,842.9017343197942,0.375,0.38235294117647056,0.6666666666666666,0.08695652173913043,47.96259185036739,47.860472742741244,48.065866595984296,49.01960784313725,0.48152099575981405,0.518479004240186,9.288935015678073,9.63882060965438,0.5124586234702242,0.4875413765297755,38.01103393511365,37.07541489461928,0.5106098541002182,0.4893901458997818,27.66878217903574,27.087757865438544,1.7204541655918617,0.6549616030507295,1.835642370648868,1.703009955081935,0.3991038420496018,0.2791681336117877,-0.7025041085601778,0.00024881962836238904,0.02137394882494113,0.6815047889634887,1.2562412328716928,5.952608588229387,0.88246852531808,1.1395532862929822,0.9672367304619348,1.4655999632469123,1.6553648030090125,1.4062222330106788,2.660042910611573,0.7087003548033847,Relax
106.61885782908325,562.8380952380952,40.09390990813457,,,,,,,17.905199073066846,17.99124340984837,0.07123524553037548,0.03181234394856034,557.0,40.0302,0.07186750448833035,57.0,2.239232847650612,527.8,593.0,1.9047619047619049,20.952380952380953,505.0,665.0,8.076923076923077,39.0625,,,0.047131381441114326,0.015539571904357681,0.0018488419040443903,0.0645197952495164,3.0329909814244957,0.7304949009655699,0.24084967790523415,-4.16436548240422,12.721730217081562,55.23101730541892,0.23033669915461408,2207.3901322964402,4.341470567522319,4.050849206752813,959.1353441831685,0.3619047619047619,0.375,0.6666666666666666,0.08333333333333333,49.42528735632183,49.36831903249763,49.47924691432655,48.07692307692308,0.4930118169275988,0.5069881830724011,8.93286720515056,9.058601019317743,0.5036966579446049,0.4963033420553951,39.198331124939614,38.90958891598671,0.503158296762364,0.496841703237636,28.428025604016753,28.249020886025946,1.6857926461737673,1.240591426755464,1.8505805645299944,1.891426969880357,-0.22583941353580173,-0.16984746958237817,-0.46707505430922674,0.00014911132115039168,0.06694946439732703,0.703053473751742,0.9871384222049907,6.023490041352021,0.8227777603059179,0.691881557897324,1.0681448723812146,1.4411779058323853,1.6482676718426033,1.400545895596383,2.0095420228156615,0.6394519540634402,Relax
107.43081867244669,558.3679245283018,40.6757972899758,,,,,,,17.20188251049175,17.239558606657567,0.07284766101909938,0.03080743315444482,547.0,41.5128,0.07589177330895795,58.5,2.3646131326130653,521.0,592.0,1.8867924528301887,18.867924528301888,497.0,665.0,8.153846153846153,23.4375,,,0.05090928316263853,0.015570064011515544,0.002500209033662194,0.06897955620781626,3.2696900362764256,0.7380343678823184,0.22571997947634312,-4.162405181936233,12.190208795430474,55.560318507672285,0.21940494804303787,2127.77520506567,4.557782351398213,4.034895853718067,1012.927356529329,0.4056603773584906,0.41904761904761906,0.7045454545454546,0.12,45.19230769230768,45.3760979346042,45.006815232058024,51.42857142857142,0.4391052462182169,0.5608947537817831,8.098848446158636,9.153341130218728,0.45191066985088874,0.5480893301491114,37.35003597153328,41.13300141734326,0.4513196257652347,0.5486803742347655,27.024216299725293,29.796874495870505,1.6928351763857692,0.7700857930997342,1.7739666701046493,1.859253348806384,0.11795890789935015,-0.3356096830983448,-0.3892504192832327,8.962168652698725e-05,0.026987320405261958,0.7020023078200004,0.9907233266569249,6.065046279973668,0.769918555349528,0.9236544253317529,1.0446733149000056,1.1893750398385858,1.6264497881332267,1.4309858875020902,1.842405101987467,0.6347094768455848,Relax
107.30300365354012,559.2358490566038,41.155582132935606,,,,,,,18.742871660853844,18.829614855445016,0.07359253202805671,0.03351514695002458,548.5,43.7367,0.079738742023701,60.0,2.1957991751548245,521.0,592.0,3.7735849056603774,19.81132075471698,498.0,665.0,8.833333333333334,62.5,,,0.04041344403622908,0.007508296486002677,0.0005466543006764059,0.04846839482290817,5.3825050877479,0.8338102424041495,0.15491118518441105,-4.891746671692503,13.314548351416123,56.88617659776483,0.23405595432369553,2379.4854690777934,4.27248263300756,4.0834531669769625,972.1808062886054,0.4056603773584906,0.41904761904761906,0.6818181818181818,0.12,51.26050420168067,51.302077333195115,51.21356759340632,48.57142857142857,0.5146668112563032,0.48533318874369685,9.553493118709552,9.277246773278573,0.4993217752031506,0.5006782247968495,40.19731064834434,40.25187330488595,0.5001190027774214,0.49988099722257867,29.215518257671967,29.208565629322656,1.567178369676143,0.8993559683205552,1.6596095337973702,1.8041584628810114,-0.30185617149926003,-0.803045756586541,-0.33927506551875125,0.00015052289534640294,0.0355032148738373,0.6733191987494438,0.9682504708048659,6.013067270498885,0.7651484942985609,1.0855713192140712,1.2007895181752646,1.4928173115240984,1.657294880174719,1.4561243572839344,2.068663466709634,0.6347094768455848,Relax
108.07814619260449,555.1415094339623,38.42529887834818,,,,,,,17.66136488281156,17.743749866943553,0.06921712432840356,0.031814167347744504,546.0,37.8063,0.06924230769230769,56.25,2.1756698382775923,521.0,586.0,3.7735849056603774,16.037735849056602,498.0,665.0,8.153846153846153,117.1875,,,0.05393094941687783,0.0065485754857817075,0.0005154978143491254,0.060995022717008664,8.235523822543225,0.8841860698551557,0.10736245670674396,-5.028507736074615,12.546725854593687,52.96799261590193,0.2368737276033175,2087.823568370546,4.221658560947113,4.026663905766852,894.4511179324235,0.41509433962264153,0.42857142857142855,0.6888888888888889,0.11538461538461539,48.88724035608309,48.91655615749433,48.8620551075462,50.476190476190474,0.5000305324865658,0.4999694675134343,8.87330698911499,8.872765157405077,0.5192093703660214,0.4807906296339785,38.16671440793689,36.72751220898612,0.518190180963678,0.48180981903632175,27.707703492170673,26.717373697649307,1.6425687602112977,1.1544951487459896,1.7499371578565435,1.8712476174577817,-0.6006037793942838,-0.7984967475838545,-0.3949233699829701,0.00044311344861756337,0.05711845536493603,0.7136383204761092,1.108368463613474,6.013067270498885,0.7659313031605286,1.192026452509428,1.1064535126616994,1.290622655746562,1.6324063545404282,1.4141932922665004,2.2783344215465355,0.6347094768455848,Relax
108.1729902038764,554.7196261682243,38.03667405864815,,,,,,,17.969313465324554,18.054258344904294,0.0685691875035861,0.03239350586790881,546.0,37.065,0.06788461538461538,53.5,2.116757222363985,521.0,583.8,3.7383177570093453,16.822429906542055,498.0,665.0,8.23076923076923,117.1875,,,0.047253684886133525,0.011533818180869428,0.0006132158392251005,0.05940071890622805,4.096968076409499,0.7955069527143226,0.19416967325053924,-4.462471847666467,12.766288504975638,52.50852538488619,0.2431279189693304,2105.932027656984,4.1130611582544985,4.030414459484624,863.883104951183,0.40186915887850466,0.4150943396226415,0.6590909090909091,0.11538461538461539,49.53933380581148,49.5263943122465,49.553570205994056,50.0,0.49566132001051794,0.5043386799894821,8.988087354143499,9.06642156531451,0.5261951414549728,0.4738048585450271,38.08932171319711,36.14344767068866,0.5244909107957488,0.4755090892042513,27.672930300721163,26.349087361081498,1.5891358594110603,1.2784310486784354,1.80012886025697,1.9558937415960853,-0.411332192723318,-0.8568112034871591,-0.3781593410922431,0.00026365255486938944,0.08873002624229384,0.7128040369406317,1.1085133596508217,6.014603084430892,0.8043368605463797,0.996663313803765,1.1240517990080807,1.3373681885538025,1.6354220512233189,1.4281063258683986,2.2375049520819785,0.6300436435888923,Relax
108.56900978863106,552.6635514018692,37.55321857050882,,,,,,,17.616994368110518,17.698970279842737,0.06794951191417001,0.03187652654752389,544.0,34.099799999999995,0.06268345588235293,48.5,2.1316473052001395,521.0,580.6,3.7383177570093453,14.018691588785046,498.0,665.0,7.133333333333334,46.875,,,0.05178350341859883,0.012555335098972666,0.0004661357021223644,0.06480497421969386,4.124422248422186,0.7990668006910822,0.19374029926173741,-4.377609596249071,12.515061904895965,51.821035944847,0.24150543648366496,2037.4594097625138,4.140693537007141,4.016059075451473,858.3001144713708,0.40186915887850466,0.40952380952380957,0.6511627906976745,0.1111111111111111,49.04970760233919,49.04615958080417,49.057283595782216,49.523809523809526,0.48583500516748723,0.5141649948325125,8.724077246879684,8.974832535909462,0.5288595130385351,0.47114048696146477,37.6856708837834,35.56979022198872,0.5264879739524655,0.47351202604753473,27.35250732355595,25.93990743510762,1.6016656872641162,1.7270621296954212,1.8218776473585385,2.1742423644536624,-0.7062447735331752,-1.0769039588349303,-0.2959744985217958,0.0016051835373161434,0.21157186150813045,0.7109968827990856,1.0555021650143814,5.962176537940831,0.7803899965589558,0.9473142073377008,1.0852275508285012,1.3955099991487,1.5767988763900285,1.4165446691880008,2.4150754341141765,0.5670392792300031,Relax
108.71922139487934,551.9439252336449,37.250004881777805,,,,,,,17.432349022803272,17.51145947481264,0.0674887487275259,0.03158355083883555,544.0,32.6172,0.05995808823529411,46.0,2.1368322096494876,521.0,578.8,3.7383177570093453,12.149532710280374,498.0,665.0,7.133333333333334,62.5,,,0.05355543402176217,0.010118808618095951,0.00032479307490804725,0.06399903571476616,5.292662016157358,0.8368162648645283,0.1581087668757061,-4.5933593475375964,12.382471743113435,51.381664742377836,0.24099008479382328,1998.7818142075046,4.149548313805276,4.007735499348881,852.842801168968,0.411214953271028,0.4134615384615385,0.6744186046511628,0.16,51.41791044776119,51.47183937224445,51.35901459389274,47.11538461538461,0.5051223146653422,0.4948776853346579,8.802326532284086,8.712607176357936,0.5314844121643958,0.46851558783560415,37.45876346257457,35.169823877196215,0.5300368574906702,0.4699631425093297,27.208821294996074,25.620558496669474,1.6248607725017603,1.2147626765812607,1.8022654081480423,1.9433720993094008,-0.326481151057024,-0.6996387005551332,-0.38384011636044096,0.00023103898670470617,0.0766343839229152,0.7131931017355497,1.085708883832202,5.943484949155783,0.7768351059102613,1.2481817069110503,1.0428082326574852,1.2548930916490904,1.5830302553587874,1.416399624734551,1.9393368050979054,0.5670392792300031,Relax
108.79447391346946,551.4953271028037,37.756262464874915,,,,,,,17.348535906906022,17.425732539474104,0.06846161809424871,0.031457267277392724,544.0,34.099799999999995,0.06268345588235293,48.5,2.1763371080694527,519.0,578.8,3.7383177570093453,12.149532710280374,498.0,665.0,8.23076923076923,109.375,,,0.044244704903793106,0.01294510357565123,0.00037950036947437466,0.057569308848918706,3.417871834336968,0.7685467445841002,0.2248611948707522,-4.34703766460159,12.321853645805216,52.06184250239262,0.23667724870165585,2015.3266728104236,4.225163193698236,4.0113155627714265,879.8791229488952,0.411214953271028,0.4134615384615385,0.627906976744186,0.15384615384615385,48.30188679245281,48.20216904746285,48.40297514856765,50.96153846153846,0.4899852678431495,0.5100147321568504,8.627751458989488,8.802326532284086,0.5249419421123609,0.47505805788763894,37.720302839903894,35.88334151678008,0.5230866217189306,0.47691337828106933,27.361097762810587,26.12561148366508,1.604085216743555,1.605597182132068,1.8074791196560798,2.1436587175110184,-0.8908626801725621,-1.2968697459840604,-0.290620211846332,0.0007334643075626759,0.15757417497514453,0.6807895358896499,1.0216512475319814,5.950539972540488,0.7632939356470536,1.1397496726412586,1.1424180793194634,1.4216711915660538,1.6108663725433203,1.4373728876895804,2.153397519034427,0.5670392792300031,Relax
110.006957921682,545.3669724770642,38.23045628777478,,,,,,,16.93506115419417,17.012782033210172,0.07010042451623266,0.03105259762481562,539.0,31.1346,0.057763636363636364,40.0,2.2574737663882924,515.0,568.6,3.669724770642202,12.844036697247708,490.0,665.0,7.785714285714286,101.5625,,,0.03834630444074385,0.016720575139701387,0.00042494476464044175,0.05549182434508568,2.2933603730947185,0.691026198783457,0.3013160107283831,-4.091115273609691,12.029853542531573,52.92040628318038,0.22731975030877655,2000.0155968462234,4.39908982233908,4.008003492424692,931.2064826975517,0.4036697247706422,0.4056603773584906,0.6046511627906976,0.15384615384615385,49.164133738601805,49.12056109708931,49.20961029955277,52.83018867924528,0.5132369083747659,0.4867630916252342,8.618877347367924,8.393644680830693,0.5047705084505318,0.4952294915494682,37.59846859358841,37.241436070509195,0.5051865642923763,0.4948134357076239,27.27572077243813,26.994238566978147,1.6028303131189519,1.5793520148621951,1.8097552406698618,2.0549430221518676,-0.7010251463116077,-0.933323913913072,-0.3447541908487074,0.0005688042830449203,0.14107729088455662,0.7161608377719966,1.0526271754262861,5.917459040802609,0.7364659349587852,1.0905605612339093,1.2301338130912756,1.5920876986224126,1.572463221699039,1.444642021708808,2.0396380501995734,0.6209343417226538,Relax
109.64582477438009,547.1869158878504,37.564568523051705,,,,,,,16.1543264839777,16.20446623514203,0.06865034128621382,0.0295225013883348,541.0,29.651999999999997,0.054809611829944545,40.0,2.325356526643761,516.2,571.0,2.803738317757009,11.214953271028037,490.0,666.0,8.23076923076923,101.5625,,,0.037572992745519826,0.016029314108853575,0.00041459689048727,0.05401690374486067,2.344017497590049,0.6955784234318434,0.2967462589963545,-4.133336101245316,11.45828796037737,51.32938748676432,0.2232305609205249,1847.7179886066845,4.4796733739159595,3.9736057969010528,919.7555616954926,0.3925233644859813,0.3942307692307692,0.5853658536585366,0.16,46.13564668769716,46.32728309552536,45.94669127864263,53.84615384615385,0.4417251102595619,0.5582748897404383,7.627956101454326,8.575435571333694,0.46763843693958596,0.5323615630604142,35.10113680322726,37.451518192024224,0.46640457151795556,0.5335954284820443,25.399562192728734,27.167575435853827,1.571365751264548,1.4112092736775503,1.7175588120690266,2.0299807813061057,-0.7475871010843189,-1.1404546427731654,-0.2786140049782121,0.0006203293331901029,0.11744193734667757,0.7435758196112565,1.124929596985483,5.950539972540488,0.7497804823409825,1.0361595394129215,1.2174632652628066,1.5953589224174116,1.5992998820901023,1.4872437123125533,1.8440741811870405,0.5040349148711138,Relax
111.11052324963472,540.0275229357799,29.510656805697092,,,,,,,14.673609467844468,14.739376553429953,0.054646579206309276,0.027171965954760152,538.0,28.1694,0.05235947955390335,35.0,2.0111382186071065,515.6,558.0,1.834862385321101,10.091743119266056,490.0,664.0,7.266666666666667,70.3125,,,0.05241108065770074,0.022170835208504578,0.0005979975747118247,0.07517991344091714,2.3639650994111494,0.6971420723820052,0.2949037075698196,-3.808977583149469,10.42231311139232,40.55974956620983,0.25696196901755797,1328.0341831878177,3.8916264683964616,3.830179363742872,631.3735798535763,0.4036697247706422,0.4056603773584906,0.5581395348837209,0.15384615384615385,48.73096446700507,48.70672210430663,48.759620931305996,51.886792452830186,0.49815085576674983,0.5018491442332503,7.357366452848146,7.384626617532794,0.4927421898429486,0.5072578101570513,28.4711585237513,28.88747855367585,0.49307731318243875,0.5069226868175611,20.79348105544225,21.08339545079796,1.4515618270679067,1.9456638675357834,1.7518782865976466,2.0306840231310312,-0.9734531219940461,-1.0357949089806695,-0.35670405809277994,0.0008214645663914202,0.22374600617135731,0.7225468567837621,1.3012573184339784,5.849478219387774,0.8431968727653856,0.9957210467993628,1.0590647324572318,1.597817487172281,1.585148672133358,1.516943677822966,2.0535691525865216,0.7451212100671846,Relax
110.79153909675053,541.6422018348624,29.388686074425095,,,,,,,15.281918630755664,15.349093440193492,0.0542584864600067,0.02821404716801381,539.0,25.2042,0.04676103896103896,33.0,1.923101855501234,516.6,559.6,1.834862385321101,11.926605504587156,490.0,664.0,6.055555555555555,54.6875,,,0.05429351897856399,0.02126006661716805,0.0004501640293721702,0.07600374962510421,2.5537793439800693,0.7143531634474876,0.2797239178597815,-3.850924772622254,10.853448056626771,40.17848074514372,0.27013087243072526,1369.9701853112051,3.7019093412081165,3.843681225661468,594.9483727439921,0.41284403669724773,0.4150943396226415,0.5681818181818182,0.14814814814814814,51.53970826580226,51.62115556462631,51.45683664255547,48.113207547169814,0.5007533106018556,0.49924668939814454,7.68236237031195,7.670796666274443,0.5093965089513729,0.49060349104862705,28.676192892694452,28.142250730331877,0.5088084109779614,0.4911915890220386,20.992173903717127,20.625559358041567,1.478148599161281,2.2870302254053385,1.79147223941909,2.2807380966336215,-0.9838634714719827,-1.0331038187276267,-0.2860693523944061,0.004512296623569937,0.43772727117377075,0.7168781616823479,1.316184794932864,5.805855398267008,0.8696678790367851,0.9667167171689682,1.0523911796700984,1.727213573114244,1.5449007927076663,1.5345271147008657,1.7868269045545984,0.7451212100671846,Relax
110.77186946384822,541.8899082568807,30.33893093942271,,,,,,,16.711883108645686,16.76749098386759,0.05598725954689797,0.030839996932962785,539.0,26.686799999999998,0.049511688311688305,35.0,1.8154106716870966,516.0,562.4,2.7522935779816518,13.761467889908257,490.0,664.0,6.055555555555555,54.6875,,,0.050248015582601266,0.016143982089777874,0.0004125266215710667,0.0668045242939502,3.1124920297339496,0.7521648587976205,0.24166001121034655,-4.126207924775744,11.856406578177069,40.9113909439051,0.28980697807204264,1523.8674818589125,3.4505725384963353,3.8899173116111996,564.6708884109064,0.43119266055045874,0.42857142857142855,0.6,0.14814814814814814,53.530751708428234,53.52766420482563,53.52790034125401,47.61904761904761,0.569671451778669,0.43032854822133065,8.960713840055627,7.788080996463546,0.5253988908586146,0.4746011091413854,29.654378134666928,28.184388700328903,0.528837579369379,0.47116242063062097,21.905210967680457,20.67624206690742,1.498297943910868,2.471478874225965,1.8597847298972,2.30186566083001,-1.0227418308187115,-0.8622188183508834,-0.32112696347798475,0.004398519567072631,0.4804492109456393,0.7406560130041497,1.1931031320890317,5.813697168654837,0.8757566143672516,1.1015040267479959,1.063338495483277,1.6904710258707425,1.539206065870984,1.5211781896920753,1.836939923971962,0.7451212100671846,Relax
108.96743939299392,550.8981481481482,38.348363796704405,,,,,,,17.37599590368448,17.443174231748632,0.06961062389774401,0.03154121313003889,543.0,24.462899999999998,0.04505138121546961,38.25,2.2069735748828565,523.6,577.2,2.7777777777777777,15.74074074074074,490.0,664.0,6.0,54.6875,,,0.0357439468471985,0.012506975409134457,0.00037287920228994505,0.048623801458622905,2.8579209343525966,0.7351121420980484,0.2572192019946742,-4.381468757585489,12.334186784687901,52.65028619313823,0.23426628184777812,2040.1454442997779,4.2686467387132625,4.016631239841214,898.9818898026375,0.4166666666666667,0.4134615384615385,0.5116279069767442,0.1111111111111111,52.84005979073243,52.74732807409164,52.925256673339625,50.96153846153846,0.5747229616789451,0.42527703832105496,9.358428750556648,8.050254888733953,0.39637442528375166,0.6036255747162483,33.14771139215735,40.90576812237613,0.40566781708166627,0.5943321829183337,24.355194099175264,29.479556216598546,1.5301759287472778,1.6004046715195024,1.871706601654973,1.9120602876861135,-0.031316813416420786,-0.07250245415576728,-0.4747853235189406,0.0008500511042644066,0.17499258666878426,0.6739880591268217,1.0654600813512092,5.8902201134111145,0.7485449809016479,1.1777002382726716,1.204134829609284,1.6675614117138797,1.5283599679824411,1.4908734689425824,2.0587977499666423,0.7505430557959408,Relax
109.42108610766044,548.1944444444445,36.359178695198935,,,,,,,15.605534604119585,15.671942094079354,0.06632533230439126,0.028467152052105652,541.5,23.7216,0.04380720221606648,33.5,2.3298899792642,521.4,571.0,0.9259259259259258,13.88888888888889,490.0,655.0,5.684210526315789,62.5,,,0.04356086163142129,0.016379020674157432,0.00017187402764350665,0.06011175633322223,2.6595522710433444,0.7246645962221921,0.27247616228949156,-4.111753990247058,11.081736529086411,50.29730249912078,0.22032466908697787,1751.0654824499748,4.538756391392689,3.950272497127439,913.1488127507836,0.4444444444444444,0.44230769230769235,0.5869565217391305,0.14814814814814814,47.99357945425361,47.904579122428586,48.085796458238384,51.92307692307693,0.5113208995318136,0.4886791004681864,7.927739690717246,7.750228237661718,0.36346888673954836,0.6365311132604516,30.323429295792216,40.12864655618418,0.3703196474753131,0.629680352524687,22.162574544270385,28.899604773828667,1.6139324851875543,2.1090336915993024,1.888874887079834,2.399608330596225,-0.9737642964840347,-1.2165174137671846,-0.2578353320998413,0.004058654216117692,0.38382552336207837,0.6461340642887619,1.0108100852236617,5.846193377279971,0.7796769013407083,1.1777814859287556,1.1731786016380628,1.7273594830826695,1.4730140381760426,1.4089104101834145,2.204324551883109,0.7505430557959408,Relax
110.09202979813965,545.0370370370371,37.39681777803894,,,,,,,15.262806787351971,15.329560178644243,0.06861335145467866,0.028003247027623215,539.5,27.428099999999997,0.05083985171455051,39.5,2.4501927004035093,510.0,568.6,0.9259259259259258,13.88888888888889,490.0,655.0,5.4,62.5,,,0.037835513809087666,0.017754772644429585,0.00046498955629441447,0.056055276009811666,2.131005255139567,0.674967933481678,0.3167368695378802,-4.0311009178265165,10.839635954926607,51.90204224370352,0.2088479660208672,1767.45764947472,4.78817208064207,3.954319126309207,994.063638398426,0.42592592592592593,0.41747572815533984,0.5581395348837209,0.07142857142857142,48.247078464106835,48.25950953612583,48.24189473017391,52.42718446601942,0.5192971194736419,0.480702880526358,7.8138725209453535,7.517903160092467,0.36728319611597154,0.6327168038840284,31.45465863607614,41.28469981912313,0.37364057140455625,0.6263594285954438,22.91781134495247,29.672759452734027,1.6618438798782176,1.3672255958234105,1.857040468886645,2.176562488405748,-0.6408295551484446,-1.112744634144022,-0.26629897765578986,0.0009172431600907874,0.12732545391125918,0.6456704160795885,0.9177495213378151,5.901748932835527,0.7442402562099445,1.0835353607122076,1.153905096311188,1.5917916917105113,1.402758861160876,1.3806926040255683,2.241993181417706,0.8130883104456026,Relax
110.86849696345584,541.2018348623853,36.30446860989087,,,,,,,14.835205874315777,14.903087764692202,0.06708120015728,0.0274115956722283,535.0,20.7564,0.038797009345794393,30.0,2.447183336548424,510.0,555.2,0.9174311926605505,12.844036697247708,490.0,655.0,6.055555555555555,62.5,,,0.027950493886609258,0.005185366755138805,0.000175016014182076,0.03331087665593014,5.3902636412187706,0.8390801051353717,0.15566587480415903,-5.261914705927761,10.538074419032121,50.47053904533296,0.20879654979644174,1670.8946831808119,4.789351169714787,3.9299191870515626,966.884540851605,0.4036697247706422,0.4,0.5238095238095238,0.03333333333333333,49.098712446351925,49.073308944401404,49.127816431606774,52.38095238095239,0.534225251377845,0.46577474862215484,7.703015552245162,7.192610434314727,0.35282254844287264,0.6471774515571274,29.978928716656718,40.602206153460365,0.3604018551540068,0.6395981448459932,21.886898085344523,29.1570985300999,1.6268692547918435,1.5618881880916513,1.843012414344694,2.084611420224324,-0.36578652590352156,-0.5395418617890666,-0.345316068255295,0.001037456557632264,0.16217874205335195,0.6916136228252565,0.9511374632043229,5.81819464567936,0.7287475083670499,1.330516302202374,1.2804413962520782,1.5763350797773197,1.458630863957826,1.3774512264215886,2.040603398547037,0.9314015125839806,Relax
110.6380610777213,542.4311926605504,36.742438620573516,,,,,,,14.747881203752625,14.810981677875864,0.06773658874659642,0.027188482895713087,536.0,26.686799999999998,0.04978880597014925,35.0,2.4913706662638653,510.0,561.4,0.9174311926605505,12.844036697247708,490.0,655.0,5.7368421052631575,62.5,,,0.038178323091285236,0.007637866139645783,0.00017143562845189578,0.04598762485938292,4.998558811225227,0.8301868863204763,0.1660852493034856,-4.874637015909006,10.47294558045573,50.95051692378566,0.20555131160144435,1676.360094988682,4.86496530821929,3.9313374240584062,991.4899890802283,0.4036697247706422,0.3942307692307692,0.5121951219512195,0.034482758620689655,51.906412478336215,51.85437849651709,51.95211140836622,51.92307692307693,0.5611323967645807,0.4388676032354193,7.848149969510344,6.940669794498343,0.3648140675024164,0.6351859324975836,30.77403071378671,40.6068246533496,0.37277835621870115,0.6272216437812989,22.457008085640137,29.129770902155602,1.6730530397292043,0.9232041001446047,1.6997914469113242,1.510898319112083,1.0401700228798831,1.639437117659258,-0.7046060321543786,0.0011500815184981989,0.08192849465548364,0.6965415405893891,0.9623671901719906,5.86448254987768,0.7264624924221085,0.9680604260529269,1.224477636433728,1.7511754013709533,1.4969454786854277,1.3510341095743588,2.0003363411846977,0.8693080784117153,Relax
110.69704968095215,542.0733944954128,36.66280444861491,,,,,,,14.963226528665137,15.03249911917795,0.06763439198624083,0.027603691087981927,536.0,26.686799999999998,0.04978880597014925,34.0,2.4501937719368057,510.0,558.4,0.9174311926605505,13.761467889908257,490.0,655.0,6.055555555555555,62.5,,,0.03426876950116928,0.00704429581752405,0.0001578672059297709,0.0414709325246231,4.864754460753774,0.8263322625027161,0.16986104214901715,-4.955537093556483,10.62958206535153,50.98470771281078,0.20848569192994834,1702.573995450352,4.796492223245719,3.938076105799147,978.1910161958117,0.3853211009174312,0.38095238095238093,0.475,0.0,50.54945054945053,50.55231041740734,50.54455561210045,51.42857142857142,0.5353790165832678,0.4646209834167322,7.7778742020428515,7.245688373094719,0.3640308961475205,0.6359691038524796,30.76160960968747,40.65911699461673,0.3711689590246837,0.6288310409753162,22.436264761336947,29.20328572936555,1.622748201791252,0.6667482859078877,1.7702449281519854,1.517371986625876,0.9974675777296644,1.1246838340382208,-0.8792629795542426,0.000274871773717086,0.03445354696534589,0.7347806801632055,0.9894129967031177,5.958058063090705,0.7369560844174862,1.2783895816274096,1.2455653253512655,1.7289545453596014,1.5114990545347182,1.362697661732558,1.9840274245279739,0.7451212100671846,Relax
110.37061598106578,543.743119266055,36.05767079989252,,,,,,,15.056068051957828,15.125333085078802,0.06631379694250329,0.027689670946605308,538.0,25.2042,0.046847955390334574,33.0,2.394892921276597,516.6,558.4,0.9174311926605505,13.761467889908257,490.0,655.0,6.055555555555555,70.3125,,,0.025712250020535204,0.005377673724543935,0.00025237813314231026,0.03134230187822145,4.78129602827769,0.8203689097386191,0.17157877380667663,-5.2254993915247905,10.695225592164464,49.95203133413464,0.214109923190569,1678.3903582465719,4.670498149261152,3.931863085951683,933.2034795916436,0.3853211009174312,0.38095238095238093,0.475,0.0,50.75125208681135,50.79963957079633,50.70349407641197,49.523809523809526,0.5327996078751737,0.46720039212482645,7.807257586889098,7.310854815330497,0.3764042250520072,0.6235957749479928,30.646465830227243,39.446160352093614,0.3832603999632074,0.6167396000367927,22.362458931335382,28.367659091418904,1.6531062790566187,1.047569314163412,1.8323423626633666,1.979758178482807,0.026324088958601166,-0.351255028078687,-0.3592782226184559,0.0006640459565126341,0.07500031517780086,0.7743685775139952,1.0986122886681096,5.939709439237494,0.757568999083586,1.1872528055534954,0.925414321685311,1.582942676140368,1.5690553407269217,1.3934076694151203,1.8118615807862741,0.6830277758949191,Relax
109.46307722043701,548.1111111111111,36.00164412998807,,,,,,,15.472314738412155,15.543625786544636,0.0656831131501911,0.028228427457066572,541.0,26.686799999999998,0.049328650646950085,35.5,2.3268427988094778,521.0,571.0,0.9259259259259258,16.666666666666664,496.0,655.0,6.75,62.5,,,0.03196333207012518,0.0070794491134861925,0.00031395327405685334,0.03935673445766823,4.514946227840772,0.8121439065150253,0.17987897652181453,-4.950559183133406,10.991003197891796,49.85433021187453,0.22046235805759373,1721.4328758582235,4.535921727457707,3.942860202809787,904.5413584635713,0.37962962962962965,0.375,0.48717948717948717,0.0,50.94031071136548,50.918947194873354,50.95855628165374,48.07692307692308,0.5205153230528986,0.4794846769471013,7.930416725113647,7.6114362812908665,0.41209912680928673,0.5879008731907134,32.00396104217213,38.225655239456046,0.41712523279002905,0.5828747672099708,23.314641663800383,27.560249279985698,1.6075231837028543,1.0609892094127913,1.7800232012535153,1.9687881684561934,-0.06101103859871415,-0.4779424234252456,-0.32208587464602884,0.000861191675470969,0.0816914887668802,0.7143970862766471,0.9964827935917299,5.9722085668580895,0.7697489502732403,1.0019130907745633,1.3028021209603338,1.5859085654518064,1.6404748554933608,1.4186781763733505,2.1746891186035735,0.6254525464966174,Relax
110.11497624478027,544.8440366972477,36.330319526361585,,,,,,,15.022205785658333,15.092056277593539,0.06668021870366762,0.02757157053001883,537.0,26.686799999999998,0.04969608938547486,35.0,2.4184410761464914,516.6,561.8,0.9174311926605505,14.678899082568808,496.0,655.0,7.785714285714286,85.9375,,,0.02953092668029466,0.006644117397226665,0.00020186149599906006,0.036376905573520385,4.44467262011674,0.8118042536798656,0.18264658008907378,-5.0140234177263485,10.671695335935395,50.2982933192986,0.21216813994443917,1686.3066009553404,4.713242998038592,3.933906649999813,948.2723152019016,0.3669724770642202,0.3619047619047619,0.5,0.0,49.659863945578216,49.62899991505017,49.690095867747544,49.523809523809526,0.5114065320860003,0.48859346791399966,7.631709549911186,7.459548231165485,0.3958911918745734,0.6041088081254268,31.647628274824292,39.09406521983536,0.4008672729448286,0.5991327270551713,23.019723782830926,28.142412789469784,1.6461871007728173,1.2330256253784233,1.6461871007728173,2.0823772610537987,-0.5261681069741737,-0.9415804377047658,-0.14624404286235984,0.0010760526173374315,0.10921026728397443,0.7330472101408554,0.9313035242633405,5.985760356748079,0.7462775035220663,1.1415518960882625,1.394232822240945,1.5573489776774407,1.62141849069474,1.3805059099843084,1.8384867379660719,0.6209343417226538,Relax
108.68476482608183,552.3177570093458,42.64942613492603,,,,,,,17.429101666628156,17.500034655337267,0.07721900227481616,0.03155629426256748,541.0,29.651999999999997,0.054809611829944545,48.0,2.447023773840721,517.2,577.8,1.8691588785046727,16.822429906542055,496.0,665.0,8.916666666666666,93.75,,,0.020596418695747187,0.0033284824689330944,0.00019236268853653715,0.02411726385321682,6.187930652478133,0.8540114177587349,0.13801244159333328,-5.705238793894546,12.374393175788567,58.66713632091679,0.21092546784794544,2280.702682647558,4.7410111742451715,4.065038783356997,1112.566195433725,0.37383177570093457,0.3689320388349514,0.5,0.0,52.623456790123456,52.427192688926205,52.82291708642571,50.48543689320388,0.6134161490683231,0.38658385093167696,9.698306184955333,7.699103225453629,0.42436222124108786,0.5756377787589121,38.21758558355089,44.5112237111158,0.432425344663022,0.5675746553369782,27.88046799009281,31.94154995250847,1.6639196846431499,1.2177082707151605,1.733897762755443,1.8694998121128297,-0.31273497122269234,-0.2507968897191457,-0.38864159617003546,0.000562938441026488,0.0709600636450987,0.6623846375164208,0.882660661128606,6.040349696600645,0.6988571118649644,1.1315784329282152,1.297192183723524,1.499906603982592,1.6307107631338638,1.3606603450638481,2.2983920460533,0.6300436435888923,Relax
108.36080872884646,553.7102803738318,42.57247080773403,,,,,,,17.653905442096676,17.73606029198825,0.07688582335692172,0.03188292879478023,542.0,31.1346,0.05744391143911439,53.0,2.411504408889475,518.4,582.0,1.8691588785046727,18.69158878504673,496.0,665.0,8.23076923076923,93.75,,,0.04583798605632623,0.009357243486438314,0.0005237357963156444,0.05571896533908019,4.898663385510954,0.8226639848277364,0.16793641858735894,-4.671604531178221,12.541288503998347,58.825027220505916,0.21319647599970099,2317.683709019179,4.690509049508879,4.072024278086299,1103.6772900615565,0.38317757009345793,0.37254901960784315,0.5263157894736842,0.0,51.00463678516228,51.10621970618382,50.9103297914577,50.98039215686274,0.5899019251725389,0.4100980748274611,9.633275663033835,8.032078542586952,0.42398950445662537,0.5760104955433746,38.303608501661934,44.64546341169137,0.4312041456840856,0.5687958543159144,27.928179534733268,32.0759387154839,1.7184604125447525,0.7980702076867328,1.860598804238682,1.71293615379144,0.35646650491089105,0.3467072304174339,-0.6850246369617699,0.00022267514128348156,0.031953800730776534,0.6428970014984867,0.8586616190375187,6.040349696600645,0.7106460995668311,1.2544511599238592,1.3709871411534442,1.6146612124129878,1.61878833097335,1.3382170179235557,1.7746253207697364,0.6930480079477815,Relax
107.93678209999486,555.3396226415094,42.36707769291147,,,,,,,17.429859437184227,17.512700780995733,0.07629039233935746,0.03138594605275589,544.0,34.099799999999995,0.06268345588235293,52.25,2.43071826514717,521.0,582.0,1.8867924528301887,19.81132075471698,501.0,665.0,8.153846153846153,85.9375,,,0.05814781326851287,0.01311849499906168,0.00043246764530107404,0.07169877591287561,4.432506417288872,0.8110014784516109,0.18296679172044095,-4.333732212483311,12.383349479133031,57.51846096383622,0.2152934774614164,2237.6659806468992,4.644822554734451,4.056765369281818,1068.6521791937582,0.3490566037735849,0.3431372549019608,0.5142857142857142,0.0,50.654349499615094,50.56551142766534,50.751942981172206,50.0,0.5659111570895637,0.43408884291043603,9.31603249986074,8.159173694965403,0.4472727542227809,0.5527272457772191,38.46745716822222,42.76246123247983,0.4525286330061599,0.5474713669938401,27.986905174808737,30.783113926664047,1.6377032914286267,1.1031758219020285,1.737169553830038,1.4997736575835687,0.3016047901708525,1.0434020152317043,-0.7151931646191863,0.000502250730029254,0.058016183179716733,0.6279009578749126,0.8823891801984736,5.977828237541249,0.731452254725294,1.0182419405958658,1.4420832690165943,1.6477487772373731,1.6539335437553713,1.390110509239506,1.9354475868315395,0.5712385291610262,Relax
107.82994556726878,556.3679245283018,46.24331621649783,,,,,,,18.26367719715569,18.34767005199833,0.0831164310122725,0.03282661776852062,544.0,34.099799999999995,0.06268345588235293,50.0,2.5319827829468853,521.0,582.0,1.8867924528301887,21.69811320754717,501.0,701.0,8.153846153846153,85.9375,,,0.0266074188657498,0.01216211942033406,0.0007106400661668406,0.0394801783522507,2.1877287951361826,0.6739437352170157,0.3080563444222819,-4.40942912319626,12.97376191274135,64.21261757949334,0.2020438101075729,2617.1955331266095,4.949421610429819,4.124806280360804,1271.26126844084,0.32075471698113206,0.3137254901960784,0.4375,0.0,48.62318840579711,48.65760798011195,48.597465993512216,50.0,0.5538773412517132,0.44612265874828677,9.6573507276542,8.667190566019205,0.47117237946198276,0.5288276205380168,44.076823231193124,46.69575901788523,0.4744173458087763,0.5255826541912236,31.906353358153993,33.58283864240858,1.6792827930180756,1.3122835946379094,1.772760287899875,2.106076990594329,-0.6534982693474749,-1.0324374170822193,-0.24600253782306544,0.0009434710790966311,0.11093426856509747,0.5967974544375441,0.774150964713032,5.996696162069549,0.6867791676951321,1.1051929042751316,1.3222659578157157,1.5721406333223182,1.5459842896844063,1.4015201379744844,2.2293772946063446,0.6347094768455848,Relax
107.76615387482602,556.9622641509434,45.65396233329107,,,,,,,17.881887617416254,17.96487721045744,0.08196957903941281,0.032106102636371876,544.0,33.3585,0.061320772058823525,50.0,2.553084065287711,521.0,578.0,1.8867924528301887,19.81132075471698,501.0,701.0,8.833333333333334,93.75,,,0.04425633815278798,0.006019275496171371,0.00042757714426463025,0.05070319079322399,7.35243604997607,0.8728511452715602,0.11871591120801397,-5.11278837637718,12.703086498698124,63.350431709675014,0.20052091447323286,2528.184164764564,4.987010969040279,4.109778816766687,1263.7171913183456,0.3490566037735849,0.3431372549019608,0.5142857142857142,0.03571428571428571,51.23042505592842,51.347308827287364,51.11908867150081,46.07843137254902,0.5800446760982874,0.4199553239017124,9.676249670833618,8.233374857156786,0.4921918501815935,0.5078081498184065,44.44437342654146,45.143935013735046,0.4955887569065248,0.504411243093475,32.16311658538529,32.448138082660414,1.743903828826712,0.7210482894243766,1.843800873822195,1.9247843157177358,0.2645660341635683,-0.2417849777747021,-0.3876865210231743,0.00010174268216844564,0.02709643832536967,0.6546833064934452,0.8266785731844679,5.951838732803856,0.6980030200962233,0.8215536563702107,1.2271788331343723,1.40813168658381,1.5268562484278585,1.3386135244956359,1.6947562086243375,0.6981804245301433,Relax
107.10675188034493,560.2095238095238,44.493451384638796,,,,,,,18.183625347252146,18.264504911342655,0.07942287571634887,0.032458615168839466,549.0,37.065,0.06751366120218578,46.0,2.446896619070658,524.0,582.0,1.9047619047619049,20.952380952380953,503.0,701.0,9.545454545454545,109.375,,,0.049029184715107955,0.006515839140028394,0.00020446556503935634,0.055749489420175706,7.524615580809796,0.8794553138519745,0.11687710879142717,-5.033519275467201,12.914955277825394,61.75375971598004,0.2091363398313607,2505.567937368296,4.7815697683451885,4.1058762929030514,1181.1196421583325,0.3238095238095238,0.3235294117647059,0.48484848484848486,0.037037037037037035,51.93571950328707,52.02109449830159,51.845656061089805,45.09803921568628,0.5813534184430162,0.41864658155698375,9.851075541299455,8.359634869157329,0.4895481492921431,0.510451850707857,43.20769614706677,44.12053753890301,0.49339816112695595,0.5066018388730439,31.336469932473545,31.752994566397835,1.7378421723627462,0.7669648930662465,1.8366159933593493,2.0028183673807094,0.01008498642203115,-0.6551670975848136,-0.28329858964352317,0.00019361600244796782,0.03454996399417104,0.636568194039246,0.9254232154374276,5.882016203520846,0.7345642562290569,0.88689212588005,1.304373786319233,1.6100700253154494,1.6080832776542104,1.3368771380900561,1.7719567230545208,0.6394519540634402,Relax
106.6364741397512,562.9333333333333,43.42948897719743,,,,,,,18.250395148514542,18.337757177805937,0.07714854744883486,0.03242017139125038,554.0,29.651999999999997,0.05352346570397112,41.0,2.3796465021050404,530.0,582.0,1.9047619047619049,20.952380952380953,503.0,701.0,8.076923076923077,54.6875,,,0.04020483299062288,0.008523109515082287,0.0004980110060239236,0.04922595351172909,4.71715550756181,0.816740563106477,0.1731425987117036,-4.764974038166053,12.966752452178865,60.19527440333589,0.21541146843680267,2452.1300024227226,4.6422783673348365,4.09651360102765,1117.7728807135625,0.3619047619047619,0.36274509803921573,0.5675675675675675,0.08,49.27745664739884,49.21858153794054,49.337854162597736,48.03921568627451,0.5676096997690532,0.43239030023094693,9.769677678498281,8.52694188229741,0.4791647838677513,0.5208352161322488,41.6682100353751,43.442275872020915,0.4830872391197531,0.5169127608802467,30.26290079861712,31.304473089359355,1.751345736530658,1.7898926122330803,1.9365902458569106,2.1522196079983553,-0.4674074440010294,-0.2058125714004504,-0.37952944178454134,0.0018805251034913642,0.20225425510329334,0.650334130585581,0.9757141523449555,5.997253017521893,0.7460136223832483,1.0099617366612548,1.239598907846798,1.2997941985322554,1.59889705196034,1.338689036411108,1.886802729012939,0.7673423448761283,Relax
106.53685858943318,563.1809523809524,44.45606754304682,,,,,,,19.00430113259789,19.092985683626345,0.07893744871004695,0.03374457366189973,551.0,34.099799999999995,0.06188711433756805,44.0,2.339263476876388,530.0,585.2,1.9047619047619049,22.857142857142858,503.0,701.0,8.75,78.125,,,0.04305793699187434,0.005674453025555969,0.00037076402655392094,0.04910315404398423,7.588033031193456,0.876887398176197,0.1155618846901987,-5.17178110342177,13.500779649989857,61.66098342063885,0.21895174064757042,2615.285877998328,4.567216488174086,4.1244892786722325,1126.476240623083,0.3619047619047619,0.36274509803921573,0.5945945945945946,0.07692307692307693,51.27322780454232,51.28691370007367,51.25385454476512,47.05882352941176,0.6033651926200048,0.39663480737999524,10.48878272759981,8.504139483187853,0.47633472393040927,0.5236652760695906,42.5565651725128,44.620798257292186,0.48214790171992755,0.5178520982800724,30.992545897272826,32.11958923669078,1.7247194676274973,0.5203936454027316,1.8397722498847964,1.753360425306306,0.6641960386664962,0.25063042240023936,-0.666050883483822,9.707299616532787e-05,0.015290093316641013,0.6384805656731731,0.9849872631603899,5.978205398474273,0.7574306536124551,1.2910125248190363,1.2632162001418588,1.5071003386303101,1.5977375207532811,1.3443278420130038,1.9248479012046689,0.5115615632507522,Relax
106.22070597504486,565.0,44.12317269793775,,,,,,,19.166617419382348,19.25970968850156,0.07809411096980132,0.03392321667147318,555.5,32.6172,0.05871683168316831,43.0,2.3020844905746354,530.6,585.4,1.9230769230769231,24.03846153846154,503.0,701.0,8.0,78.125,,,0.04815632901142009,0.005814842358897036,0.0002920593431134389,0.05426323071343057,8.281622448068296,0.8874578306208559,0.1071598996677103,-5.147341602768995,13.618671324423701,61.14517510488059,0.2227268349639032,2616.054602673876,4.489804742935748,4.124616914366499,1098.1195887741187,0.38461538461538464,0.37999999999999995,0.631578947368421,0.08,50.553250345781464,50.57236640288053,50.53337894925202,48.0,0.5949838786405202,0.4050161213594799,10.505134132282887,8.667326520883348,0.4794495560026703,0.5205504439973297,42.33832315648167,44.11574357192496,0.4849103585622188,0.5150896414377811,30.845513862147985,31.790890046705567,1.7412857040620453,1.4659078466342557,2.020810386560041,2.2178745292385837,-0.3690539565572841,-0.7766074618451366,-0.3655685327484911,0.0007054775158347737,0.14466953544023328,0.7256872365215958,1.1130010261202095,5.976553059341628,0.7691381364500239,1.3501395228444337,1.1751474174043273,1.469394931808164,1.6140824298943435,1.3245493297773783,1.894998725726331,0.5154184398570071,Relax
106.13810319186786,565.6442307692307,43.96665070436706,,,,,,,19.259596019515868,19.352113147320754,0.07772845246662544,0.03404895687404849,557.0,31.875899999999998,0.0572278276481149,43.0,2.2828438696126017,530.6,585.4,1.9230769230769231,24.03846153846154,503.0,701.0,8.0,93.75,,,0.018889721746380064,0.00544539782161307,0.0002588314375187894,0.024593951005511924,3.468933283699818,0.7680637300670622,0.22141207894545548,-5.212984463445516,13.684010436759845,60.68213753737655,0.2255031050666486,2608.700010363179,4.434528738326884,4.12339424987663,1076.3867312504035,0.40384615384615385,0.40594059405940597,0.6829268292682927,0.07407407407407407,49.109589041095894,49.017706049540095,49.19984919799572,50.495049504950494,0.5859027377898761,0.4140972622101241,10.47522754678211,8.8064704376173,0.47451504334916644,0.5254849566508336,41.80092219311297,43.98868854501573,0.47990607468694907,0.5200939253130508,30.47168758332517,31.72190600735575,1.6940675284673723,1.5653005105412148,1.985589077293278,2.169858911210211,0.04848579016139176,-0.2459949877727139,-0.3822783020410439,0.0020363918370938454,0.2079109352413808,0.6972153889959349,1.1130010261202095,5.998328660365574,0.7615026957406149,1.2203143820384574,1.266495082278906,1.3862630534482134,1.6221784422901904,1.338808730408567,1.9024937596051708,0.6442730498212589,Relax
106.22100644273256,564.9134615384615,45.3810427417507,,,,,,,20.4300844226,20.527147685900964,0.08033273382822544,0.036164980680335655,555.0,36.323699999999995,0.0654481081081081,49.5,2.2212851304495667,526.0,586.8,2.8846153846153846,24.03846153846154,503.0,701.0,8.0,46.875,,,0.040245140569519514,0.006318679249812059,0.0007458238660215515,0.04730964368535313,6.36923302772752,0.8506751992718822,0.1335600684679918,-5.0642450721227386,14.514885327118318,62.76107095495508,0.2312721103426669,2861.895867702706,4.323910905289613,4.1636239375320026,1085.4931165191417,0.4326923076923077,0.43564356435643564,0.7045454545454546,0.10714285714285714,51.15207373271888,51.189586031067776,51.11132917319817,50.495049504950494,0.6216417389686213,0.37835826103137854,11.445737283407492,8.929462140445361,0.4753096783215098,0.5246903216784901,43.26918096143591,45.46130229480254,0.48274108419271156,0.5172589158072886,31.648277386251785,32.760229703537384,1.643192951865142,0.4603276253505497,1.619413549095161,1.7878949617427145,0.873687993127648,0.04461159872305309,-0.13399673760780512,0.0007957445184860642,0.035535686457833775,0.6504810644454961,0.9630083564416148,6.028571420247561,0.7403395351330572,1.1162741212090013,1.0930629513282788,1.2034221514451588,1.6273451798400154,1.3536318580521711,1.9097201257713483,0.579845744839133,Relax
106.1502761402771,565.2952380952381,44.874809579523955,,,,,,,20.056650537146794,20.148440917266143,0.07938296054063641,0.03547995664129007,554.0,34.099799999999995,0.06155198555956678,46.0,2.237402974958935,529.6,586.4,2.857142857142857,23.809523809523807,498.0,701.0,7.0,54.6875,,,0.028772275601718154,0.006434632614325057,0.0006823732061808175,0.03588928142222403,4.471471384032722,0.8016955052184815,0.1792912078295467,-5.046060531354823,14.24709920293539,62.03919597473789,0.22964674153315512,2776.786452093081,4.354514213107725,4.150512591712884,1080.6022425670867,0.42857142857142855,0.4313725490196078,0.7272727272727273,0.11538461538461539,48.42726081258191,48.351557204888,48.50987501785588,52.94117647058824,0.594631417917583,0.4053685820824171,10.989182677630312,9.073325890677939,0.4749788864115359,0.5250211135884639,42.756614802639405,44.95257198215304,0.48097598007607306,0.519024019923927,31.21610357895115,32.42729537387521,1.687852441514495,1.4760418100704422,1.92557902108376,2.2079046678228234,-0.23649292563334612,-0.779193164207638,-0.30872787964889037,0.0014952078459410285,0.17298627558612964,0.6554259954009138,1.1086626245216114,6.034397155901798,0.7381617204966955,0.9563670368095966,1.2729885163204755,1.5104800938603076,1.6797996118521397,1.3880459631771083,2.1679466678707295,0.5755067586570962,Relax
107.36069092014698,558.8867924528302,40.87549522163195,,,,,,,18.068388601827962,18.154137562074123,0.07313734332893872,0.032329246004418555,553.0,31.1346,0.05630126582278481,41.0,2.2622656686438884,526.0,578.0,1.8867924528301887,19.81132075471698,498.0,701.0,6.625,54.6875,,,0.04275498547569121,0.014470795392398239,0.0007647627637182468,0.057990543631807695,2.9545705205776835,0.7372751279441393,0.249537157028151,-4.235622771473622,12.83691377673603,56.595572996338525,0.2268183374972901,2282.4063035210997,4.408814609233027,4.06536306804152,998.077556176686,0.4056603773584906,0.4134615384615385,0.7209302325581395,0.16,49.333333333333336,49.33324801224073,49.337905106073286,51.92307692307693,0.5806762157589196,0.4193237842410806,9.782490244544862,8.312987984519719,0.4752601271632158,0.5247398728367841,39.016485899464804,40.997228087283496,0.4804185560671606,0.5195814439328394,28.442778409710183,29.579371866822292,1.6810326127608357,1.6783333611551559,1.8932970429769798,2.2396333005255054,-0.5392850150429318,-0.8576572443500083,-0.2936427496679499,0.001847079139740618,0.21127614930474659,0.7442152442171057,1.1239300966523997,5.9953851669052325,0.777094510039819,1.2852279792905064,1.2863068687758605,1.4827712291908064,1.6525935426619804,1.3913036940191894,2.1519035788546437,0.6981804245301433,Relax
107.34235982794112,559.0943396226415,40.25952198563874,,,,,,,17.784155602001196,17.865143995035975,0.07200845927506928,0.03180886362398972,554.0,28.1694,0.05084729241877256,37.75,2.26378597256023,527.0,576.0,1.8867924528301887,17.92452830188679,498.0,701.0,7.066666666666666,93.75,,,0.050502316307080616,0.023120663646486538,0.0018490597019010502,0.0754720396554682,2.1842935427485037,0.6691526628619683,0.3063474069606832,-3.767028531157116,12.632564465764068,55.537937071991195,0.2274582948478816,2204.0992152923077,4.396410342690623,4.050201249907491,976.6702438200123,0.4056603773584906,0.4134615384615385,0.6744186046511628,0.16,51.47375988497483,51.58458022362351,51.36557181872682,50.0,0.6024270529073442,0.39757294709265567,9.807277517623955,7.967180275258088,0.4765222967057208,0.5234777032942791,38.33816809374025,40.182674393680806,0.482718669534727,0.517281330465273,27.982117728038162,28.96656074654905,1.6829395304575019,0.5066053196434122,1.7855263581200331,1.9196265965717265,0.3333934465322965,-0.6333753660527406,-0.23529642652374147,0.0001673779631599894,0.019677910779896477,0.7224125672673423,1.000631880307906,5.982453001651371,0.7657363774005477,1.1285705107744812,1.3252833281183094,1.4602767077562822,1.6018294865066516,1.4319595978576927,1.7306232305116511,0.7616513722147018,Relax
107.95249124491625,555.7075471698113,32.73092813813058,,,,,,,15.988388643905658,16.017572767514977,0.058899556618994,0.028771228185281383,554.0,26.686799999999998,0.048171119133574004,35.75,2.047168658900891,531.0,573.0,0.9433962264150944,14.150943396226415,498.0,689.0,7.066666666666666,93.75,,,0.0554870934521967,0.01937363524344844,0.0021690527991172163,0.07702978149476236,2.86405172570598,0.7203329981660346,0.2515083759489276,-3.943842145271495,11.326134322058815,43.1544546913405,0.262455739577021,1535.526138660702,3.810166245979685,3.893227323628855,657.7025865144209,0.4339622641509434,0.44230769230769235,0.6956521739130435,0.14285714285714285,44.90118577075099,45.38956662889754,44.362466093317835,52.88461538461539,0.497671472746917,0.5023285272530831,8.01381019529124,8.051218254687633,0.3046422158575901,0.6953577841424098,23.818843775719678,35.98568661141287,0.3171508775707395,0.6828491224292603,17.77017828636356,26.07481309884536,1.4596933741969602,2.0643933434479367,1.7757008593902301,1.9583624193120266,-0.5608871729668596,-0.21193881896114242,-0.4115180445133987,0.0013244137918503216,0.2617107014531186,0.7181747076281426,1.1718844897744354,5.944717152594767,0.8318106238156201,1.0678470164862888,1.3036170803859628,1.618454883532627,1.586053101024466,1.4697418955563033,1.6841389629918675,0.6981804245301433,Relax
109.24774402439782,549.4392523364486,25.51143937645164,,,,,,,15.236500365773841,15.293663281497823,0.0464317743371377,0.027731000835819034,549.0,25.2042,0.04590928961748634,32.0,1.674363453812443,528.4,568.0,0.9345794392523363,11.214953271028037,498.0,637.0,6.6875,39.0625,,,0.056581839378741824,0.029698379573483844,0.0016520350592702147,0.08793225401149588,1.905216385248872,0.6434708175608073,0.3377415933134298,-3.516662794477283,10.814253015530817,34.212338374262586,0.31609219157221397,1162.329225359355,3.1636339861041503,3.772299267711093,432.94126569964936,0.4205607476635514,0.42857142857142855,0.6666666666666666,0.1,47.02479338842977,46.933660052003134,47.11752009093058,52.38095238095239,0.5435224317295188,0.4564775682704812,7.980631315283032,7.313718355971618,0.46385358984569375,0.5361464101543061,23.300928098833293,25.05096498676331,0.471103666852341,0.5288963331476588,17.415850918882416,18.453201930268328,1.50510621313409,2.289988893007523,1.7951613719296309,2.1949837971685175,-1.3304313704708157,-1.2158026040120493,-0.3254042076536949,0.0017732448302416057,0.3251898437402882,0.6795246792309815,1.255932543256647,5.881288481566496,0.94402786950431,0.9936274540201685,1.0393352553870134,1.7933359635388397,1.7656425976680956,1.4895683144896492,2.426634589997879,0.6300436435888923,Relax
108.73967626146151,551.7009345794393,26.96896012899044,,,,,,,15.426942861038146,15.477256304441923,0.04888329607334966,0.02796250992903987,552.0,26.686799999999998,0.04834565217391304,36.0,1.7481726854062893,527.2,571.0,0.9345794392523363,12.149532710280374,498.0,637.0,7.133333333333334,93.75,,,0.044570334889993055,0.03034812125412943,0.00211440867957479,0.07703286482369727,1.4686357193834008,0.5785885672563237,0.3939632950635581,-3.4950206660572776,10.944072887033128,36.098734649657445,0.3031705402764576,1241.140160212961,3.298473522816933,3.8007909384951013,476.2828817963571,0.4205607476635514,0.42857142857142855,0.6444444444444445,0.10344827586206896,53.58581788879936,53.495454727161984,53.67597879088552,49.523809523809526,0.6116066119633725,0.3883933880366273,8.571547618220912,6.830603403590554,0.518394122057691,0.48160587794230897,25.990941595752542,25.05173842815223,0.5262616823351619,0.4737383176648381,19.35200859866035,18.360919654659213,1.5106029148442346,1.960964748134729,1.7078675651338284,2.0080847720698034,-1.2936560188568151,-1.0922707097433886,-0.3469033126569247,0.0008238003980288762,0.19239368443005075,0.6253786079943464,1.2383742310432684,5.865070374150519,0.926477173970666,0.968468308100505,0.9986679143422892,1.5748614390348439,1.795165489339841,1.4849614835100857,2.0816632144925844,0.5670392792300031,Relax
104.583227441201,573.6990291262136,46.05470637665948,,,,,,,20.631215640953624,20.721625185774883,0.08027677238151201,0.03596174055301523,564.0,37.065,0.06571808510638298,48.0,2.232282730118889,533.0,611.0,2.912621359223301,27.184466019417474,507.0,718.0,9.363636363636363,93.75,,,0.057130421648447505,0.016438139163686468,0.00030997037443113824,0.07387853118656511,3.4754798629916976,0.7733020774895527,0.2225022465887324,-4.108151085317309,14.65240168606737,63.56543213334258,0.23050896052009384,2926.036184840365,4.338226148535464,4.173249802489063,1103.044879295293,0.30097087378640774,0.3,0.4,0.0,47.83683559950557,47.72794148886453,47.95162742917551,55.00000000000001,0.5749032614704256,0.4250967385295744,11.115950541255728,9.558573985363264,0.4224984992984842,0.5775015007015158,41.317457507576485,48.3056090677697,0.4301959498357254,0.5698040501642747,30.25472402225834,34.81952185227317,1.6612522984891112,0.8338701134247861,1.8159218575094314,1.6979728331268142,0.6153955325649854,0.6573569360253098,-0.6414477176765443,9.803109300190293e-05,0.035822164808371706,0.6289370113213884,0.9416085398584452,6.140241667896904,0.7911359378213838,0.9706180424701941,1.0619742377292851,1.5323723438885442,1.6025395233831332,1.4283484900324537,2.2491631509774765,0.9088447318501461,Stress
104.3187120800273,574.9313725490196,49.76186058011182,,,,,,,22.28483478480688,22.37885759655154,0.08655269647138458,0.03876086059803049,562.5,43.7367,0.07775413333333334,66.5,2.2329921249422027,531.0,618.8,3.9215686274509802,28.431372549019606,507.0,718.0,10.2,23.4375,,,0.06103323953327208,0.020334478524536775,0.00045787946799373666,0.0818255975258026,3.001465685959234,0.7458942113319255,0.24850999124234407,-3.895437384184039,15.824241961729676,68.21622364450286,0.23197182600131894,3391.2551118277147,4.310868337926151,4.237330571368198,1176.2846345679066,0.30392156862745096,0.30303030303030304,0.36666666666666664,0.0,52.564102564102555,52.382718444880126,52.74384988727371,53.535353535353536,0.6454802823079069,0.35451971769209306,12.723207142855136,9.429209935090002,0.43809434030882444,0.5619056596911756,45.15142850377794,51.13513148888013,0.44869950783598855,0.5513004921640117,33.17025396293923,36.76759220009559,1.5628424491040445,0.9258368285479097,1.7552793063828118,1.6683922878126802,0.6022406365098583,0.5185269565523027,-0.593847010500118,0.0001959975858568998,0.05222532395901916,0.5598086020458619,0.9191036732507697,6.140418846809824,0.7770969024946216,1.0453681744179824,1.0936214348386373,1.4849785944817875,1.5955664698917345,1.4820134429376755,2.2428339054102677,0.7195752819773181,Stress
105.73250424192165,567.6538461538462,43.50176187276045,,,,,,,22.141863876429422,22.200010633132017,0.07663431185661437,0.03900592592907141,558.5,40.771499999999996,0.07300179051029543,56.0,1.9646838276821483,530.0,604.4000000000001,4.807692307692308,25.0,507.0,687.0,8.666666666666666,23.4375,,,0.04795746158386625,0.022858382704646338,0.0003748774557551736,0.07119072174426777,2.098025140427722,0.673647638468109,0.32108654252387714,-3.7784373709464623,15.69777806110111,58.7146161434043,0.2673572458135625,2895.571432643867,3.7403138147874797,4.1687043932427175,878.4443595644764,0.28846153846153844,0.2871287128712871,0.3448275862068966,0.0,45.47604967474868,45.534932594453856,45.4154253877731,59.4059405940594,0.5681327603620017,0.4318672396379982,11.858851248800468,10.33934044242251,0.3603135396066361,0.6396864603933639,35.244107478556806,46.96018565665227,0.37423592582894283,0.6257640741710573,26.294290871796107,34.00118378594754,1.6017101279158703,0.39225075977400214,1.6605427165388065,1.6094213693513921,1.0105242128193916,0.4559078448718159,-0.6303282298723099,0.0003957589213467855,0.020399675309094086,0.6035504182589033,0.984668029318892,6.075251737288651,0.8092772030740034,1.0174805693977556,1.0153828011544208,1.3033462035202592,1.6285579677504347,1.4723327870020293,2.0245622102118745,0.7087003548033847,Stress
106.59557728632052,562.952380952381,42.22453282348038,,,,,,,21.30389094111142,21.406096494682455,0.07500551423558517,0.03784314919331245,554.0,37.065,0.0669043321299639,52.0,1.9820103726684557,527.0,589.2,4.761904761904762,20.952380952380953,507.0,687.0,8.076923076923077,23.4375,,,0.05470808052858826,0.017385667227335228,0.00029978709468688104,0.07239353485061037,3.146734595412683,0.7557039539716164,0.2401549705123792,-4.052109134774447,15.136395990123548,58.037312799592634,0.26080456278860986,2759.8129585898946,3.834288745977695,4.147849759489009,890.1272612570611,0.3238095238095238,0.3235294117647059,0.45454545454545453,0.0,49.337539432176655,49.31750605040352,49.36150481558917,56.86274509803921,0.6067668057880129,0.39323319421198705,11.791061284447308,9.492204261791505,0.3978549270126338,0.602145072987366,36.60746587509756,45.035798196560556,0.41116103520593467,0.5888389647940652,27.194996635502868,32.544777314869584,1.6008081250022814,0.682967133637181,1.0366815543508965,1.378165121169487,1.0,-0.9878445453366096,0.0,0.0026017572982703586,0.10133922043017664,0.5779057274232535,0.9279867716373461,6.118728136590117,0.7880865897185131,0.974201997329013,1.0480263031330803,1.4284445756898763,1.6118282847223884,1.4274178235797803,2.383107624091627,0.6394519540634402,Stress
106.394130985401,563.9807692307693,42.7893872989782,,,,,,,22.049150744273334,22.155628691907527,0.07587029493459495,0.03909557195424739,554.5,40.0302,0.07219152389540126,55.0,1.9406365258803255,527.0,595.4,4.807692307692308,23.076923076923077,507.0,687.0,8.0,23.4375,,,0.056385570604112305,0.015353343982873826,0.00034509821241186626,0.072084012799398,3.672527018674801,0.7822201957738846,0.2129923597011798,-4.176421979627434,15.666395289499048,58.72512090121214,0.26677501977140555,2890.2996651847684,3.7484769033355563,4.167912982541641,880.5190373751273,0.3173076923076923,0.31683168316831684,0.4375,0.0,50.75346594333935,50.76920508155776,50.73527257684559,56.43564356435643,0.6108037943085373,0.3891962056914628,12.244646689432063,9.774165628097888,0.4005345556213102,0.5994654443786898,37.16583672876272,45.468015187744186,0.41450651251890835,0.5854934874810915,27.669755982824167,32.88521490608223,1.5552548936005957,0.6204780432572958,1.7304745319409496,1.5303919063545046,0.6371223058579183,0.4594462384668061,-0.8224652794095342,0.00027970354363483394,0.025530080308422038,0.5308351285153914,0.8887545740655497,6.082510270963298,0.815812945425828,0.8702436321167175,1.0754238486304089,1.5277976341170343,1.6108928997216496,1.4187273018297066,2.1362937441391643,0.7087003548033847,Stress
106.84068447563833,561.6037735849056,43.315603533068334,,,,,,,22.006708933760134,22.110515788305538,0.07712840541752466,0.03918547198015411,550.5,37.8063,0.06867629427792915,55.5,1.9682908363739282,526.0,595.0,4.716981132075472,23.58490566037736,507.0,687.0,7.066666666666666,23.4375,,,0.04982701523396389,0.013033158235543954,0.0004071862036042949,0.06326735967311213,3.82309600892253,0.7875627415370042,0.20600129834535974,-4.340258535362167,15.634495649443068,59.45053427548843,0.2629832656674576,2920.044773446065,3.8025233182118146,4.1723596205579785,904.2481714507818,0.3018867924528302,0.3076923076923077,0.4375,0.0,49.141503848431036,49.080174469236255,49.204835370237745,58.65384615384615,0.6010894574344654,0.39891054256553454,12.122372831955097,9.875425988864402,0.3897155693428499,0.6102844306571502,37.113305807334356,46.44317557717504,0.4033906144256139,0.5966093855743861,27.607511577699658,33.574488798445216,1.6243788205619216,0.8222392812885433,1.7860316116936894,1.794491379665629,0.30933861757507763,-0.10593850085140222,-0.4897113064719042,0.00011044757173095138,0.03675722434408351,0.5494786694129932,0.8983530311874879,5.927977176077622,0.805331565843969,1.0988335248754537,1.175855380436118,1.476878083183337,1.540360205335046,1.412428341473644,2.243847101531237,0.6347094768455848,Stress
106.80672768584769,561.7142857142857,42.65395515201246,,,,,,,21.427875446573,21.53163433352058,0.07593532198984924,0.03814728589166099,553.0,38.547599999999996,0.06970632911392405,54.0,1.9905825595432132,526.0,590.4,4.761904761904762,22.857142857142858,507.0,687.0,7.5,23.4375,,,0.05629461258767869,0.01331980755538687,0.00016165316589546262,0.06977607330896102,4.226383328257,0.8067896331513547,0.1908936247588508,-4.318503061768043,15.225164647261488,58.63634589990158,0.2596540492692442,2804.650623148754,3.851278278980605,4.154848878623881,903.2995412923377,0.3142857142857143,0.32038834951456313,0.48484848484848486,0.0,50.06150061500614,50.05197809390264,50.07112637504591,55.33980582524271,0.5916401407270899,0.4083598592729101,11.710919309258395,9.729347057986844,0.3999129419025317,0.6000870580974683,37.08084544900453,45.42281322507386,0.41202279366349326,0.5879772063365067,27.49667916568218,32.8473146197273,1.642694541094847,0.8598801168195669,1.8041632996049222,1.6961096152013089,0.06832600170648995,-0.020654051750811142,-0.6256613361444742,0.0003894837191234762,0.03466261442651097,0.5823265685405468,0.9090355609929832,5.961678374726564,0.8050552715869835,1.161108444257314,1.2091872721911434,1.742583175115984,1.5744378910237014,1.400387127637226,2.3587424174723592,0.6394519540634402,Stress
106.57440576517186,562.9714285714285,42.06301525981289,,,,,,,20.3833453885953,20.475891578203136,0.07471607460888405,0.03620671379419587,554.0,37.065,0.0669043321299639,53.0,2.0635972387215498,527.0,590.0,3.8095238095238098,20.0,507.0,687.0,8.076923076923077,23.4375,,,0.04964585753118752,0.011965415292219167,0.00030234175842661234,0.061913614581833296,4.149112782025298,0.8018568753657392,0.1932598407157133,-4.425734849304862,14.478641785787957,57.70576878060042,0.25090458184235126,2624.8042910781755,3.9855788708885416,4.126067037332944,919.9635711213627,0.3142857142857143,0.32038834951456313,0.48484848484848486,0.0,48.32474226804122,48.36753066261809,48.2893164537352,54.36893203883495,0.557093265447813,0.442906734552187,10.809919931805176,9.638615700470645,0.4004778906119927,0.5995221093880073,36.518127756165036,44.68089184141838,0.4097586472657074,0.5902413527342926,26.9297978431665,32.32092981618789,1.5623566207584367,0.5103919655629998,1.1299924178984297,1.3851884006799295,1.0,-0.7398795986517608,0.0,0.001313348944742653,0.0583181716644013,0.6321696201532103,0.9876552180821261,5.940110160379036,0.7839985485348759,1.0531527610274847,1.109850701726367,1.5883226532057237,1.652854858985186,1.4053777811945278,2.2841757476449063,0.6394519540634402,Stress
107.66909589870485,557.2641509433962,40.44073898029359,,,,,,,19.607578709701585,19.698608195381848,0.07257014274439005,0.03518542988366968,547.0,31.875899999999998,0.058274040219378424,43.25,2.062505502542444,526.0,578.0,3.7735849056603774,17.92452830188679,507.0,687.0,7.066666666666666,23.4375,,,0.018177748213828556,0.009584998381357636,0.0003449688004089465,0.028107715395595135,1.896479007151781,0.6467173855288594,0.34100951452140205,-4.647556071356986,13.929019434891401,55.655428665375844,0.25027243108014857,2435.4428850180934,3.99564584754345,4.09354805909753,889.5175297602387,0.32075471698113206,0.3269230769230769,0.4411764705882353,0.0,48.777173913043484,48.70099908981519,48.856601011245886,53.84615384615385,0.5684700753071742,0.43152992469282603,10.503662364952667,9.151502608861563,0.3877260081483397,0.6122739918516603,34.655326834478636,43.54922573275218,0.39838289640401303,0.601617103595987,25.605845046409407,31.46653032924193,1.5791550628660815,1.3797124591681422,1.746849809146044,1.8002003365712533,-0.40202786489513187,-0.23753042699882077,-0.4613321405698,0.00016842255235235772,0.08158313196350334,0.6624187834161375,0.9085686857802447,5.843255949744168,0.7538641954077626,0.9033136967653324,1.1658628516774294,1.4187724429746256,1.6170234934782595,1.4138755957811588,2.1118175037083464,0.6347094768455848,Stress
107.94270281342806,555.9811320754717,41.010098903069384,,,,,,,18.19785439995344,18.263927898211335,0.07376167379993476,0.032731064689229726,544.5,34.099799999999995,0.0626258953168044,44.5,2.253567810893921,522.0,578.0,2.8301886792452833,16.037735849056602,506.0,687.0,7.066666666666666,93.75,,,0.040296481430122995,0.015054972755357065,0.000407960156399287,0.055759414341879344,2.676622673779609,0.7226848040951791,0.26999876044339466,-4.196046926724135,12.914547267927402,56.41943103047209,0.22890247264195673,2289.0630812889467,4.368672773422478,4.066627870953597,985.912128939243,0.3490566037735849,0.3557692307692307,0.5135135135135135,0.0,46.61764705882352,46.604256197600414,46.645216773980394,50.96153846153846,0.508685148970436,0.491314851029564,9.221630091174854,9.06281498126357,0.4095922559707077,0.5904077440292925,36.10809451903988,43.351559464525366,0.41453675015130087,0.5854632498486991,26.351783159156223,31.31686704789365,1.580375578478301,0.872454048141158,1.702245931943616,1.689872010119462,0.27204541994422726,0.11119704131826325,-0.514182892325983,4.41828614594378e-05,0.03358755313953349,0.6455945446478872,0.8141928618511453,5.7949595773030005,0.7020517132255352,1.145925611118841,1.2273999133856037,1.3688109526696102,1.5540669609740883,1.4436640604070141,2.15738866870295,0.5712385291610262,Stress
109.42576024424898,548.1682242990654,32.42392721819955,,,,,,,16.53412708583571,16.61240402997069,0.05914959273617063,0.03016250551001502,542.0,29.651999999999997,0.05470848708487085,43.5,1.9610304825814575,522.0,570.0,1.8691588785046727,14.018691588785046,506.0,687.0,6.6875,93.75,,,0.046539825366876196,0.014315545453016849,0.0004213279808373197,0.06127669880073037,3.2509990988201167,0.7595028171837723,0.23362135580394908,-4.24640923755918,11.746743541403006,44.38848753557971,0.2646349130951437,1638.0898046319342,3.7787908946106135,3.9213078172683575,670.9392500999413,0.34579439252336447,0.3584905660377359,0.5,0.0,50.39432176656151,50.38351078723807,50.40359301928212,48.113207547169814,0.5175995582855961,0.482400441714404,8.451260824504798,8.158839786799753,0.45745978572611834,0.5425402142738815,30.022496890683538,32.695374384539676,0.46139594493151465,0.5386040550684852,22.05418473980519,23.828073493380447,1.5154214376615645,0.3925046583880061,1.4998725976369616,1.562491289652307,0.3078264317760855,-0.27770216397984004,-0.3404638246269054,0.0001315336987842125,0.007416733869430337,0.7506402431278443,1.0469109142912192,5.709657378981445,0.8002279940773007,1.233372828130065,1.3072842327220506,1.4868942373646181,1.5272577166930215,1.4893148302298163,2.0449941002281897,0.6930480079477815,Stress
109.08516151990823,550.2336448598131,32.89049281664448,,,,,,,16.581132719574708,16.65892992036536,0.0597755028684664,0.030134712543430888,547.0,32.6172,0.05962925045703839,44.5,1.9836095261342372,521.2,571.0,1.8691588785046727,14.018691588785046,506.0,687.0,6.6875,31.25,,,0.03527003089257594,0.011278600725084745,0.0007026140470396364,0.04725124566470031,3.127163710488645,0.7464360017692591,0.23869425168425937,-4.484848089801576,11.779642314001817,45.11555941919702,0.2610993294918446,1669.5841876786149,3.8299600460338783,3.929578432916384,691.1631601199679,0.32710280373831774,0.33962264150943394,0.4722222222222222,0.0,49.25019731649566,49.19988681859714,49.30106054981882,50.943396226415096,0.5137425796932369,0.48625742030676306,8.443650756351667,8.214679079608183,0.4454192801006652,0.5545807198993348,30.110006737319164,33.59763676191663,0.44978028245483376,0.5502197175451663,22.11230137069233,24.456922827357538,1.5418245490013944,0.9177739760888262,1.5919971640171906,1.607688098006327,-0.2929212339502101,-0.2868112448416671,-0.4829032698704263,0.00041968779896214104,0.03327807093315118,0.672045216524066,0.9483300856187719,5.744932495904972,0.8182217126618474,1.1464426753043375,1.275076471819413,1.544382337600529,1.5499063914585371,1.4643012039003396,1.853333280282065,0.6300436435888923,Stress
108.444068553979,553.018691588785,36.01099971062595,,,,,,,18.755376587618713,18.782581156397956,0.06511714750032915,0.033914543708705024,547.0,34.099799999999995,0.06233967093235831,44.5,1.9200360783157226,522.0,576.8,3.7383177570093453,16.822429906542055,506.0,693.0,6.294117647058823,23.4375,,,0.03058086392998805,0.013856467362170397,0.0007783520545704178,0.04521568334672887,2.206974052670669,0.6763331142312687,0.30645268049836616,-4.279003197782112,13.28129050387566,47.42644610085613,0.2800397583161077,1978.8402295120013,3.5709215220476094,4.003380840882494,677.4244683831123,0.308411214953271,0.32075471698113206,0.47058823529411764,0.0,55.80389329488106,55.4194713270697,56.21720981387517,49.056603773584904,0.6353957143240272,0.36460428567597297,10.621631118573436,8.0459987097995,0.5079818081190272,0.4920181918809729,33.80217624332578,33.266810351648594,0.5173039676378247,0.4826960323621756,25.054003336831276,24.201433492777337,1.364073645638642,0.9235674443309785,1.5174246401717264,1.3755325662463576,0.29831606256467147,0.37045775322429186,-0.6536347722045939,0.000239790026067831,0.04186158092546449,0.6683395980816091,0.8495993573754828,5.7050758369658086,0.792623383143456,1.2287472200491494,0.9138905124611761,1.415043253477243,1.5343943556446356,1.5341851275005953,1.8579845462973377,0.6930480079477815,Stress
108.0185486956579,555.4150943396227,38.65324921339628,,,,,,,16.437761404765553,16.516131530494686,0.06959344390766731,0.029595453152582607,553.0,37.8063,0.06836582278481013,46.25,2.3514910736075123,522.0,577.0,1.8867924528301887,15.09433962264151,506.0,707.0,6.235294117647059,23.4375,,,0.01880971222632203,0.019171755808876534,0.0009710505416394915,0.038952518576838055,0.981115783751696,0.4828882165659671,0.49218270112773765,-3.954317134628138,11.678668604181743,53.56605333228377,0.218023689961551,1965.3181143750596,4.586657533299947,4.000402967032477,982.7565681826644,0.3018867924528302,0.3142857142857143,0.45454545454545453,0.0,49.4869771112865,49.49049086797776,49.48765616149049,51.42857142857142,0.5592682668922491,0.4407317331077509,8.734051399330887,7.753411159959506,0.4331918438206579,0.5668081561793422,35.255735956636336,40.32809382741774,0.43891316734383146,0.5610868326561685,25.683171257559042,29.03851353262072,1.56106793558953,1.4770787176476032,1.6719803252071,1.9815497415230205,-0.7641374101662741,-0.8838097257715196,-0.2904177938404386,0.0009242663139297984,0.1263510545754332,0.6617403144902476,0.8206605008589049,5.764345308455486,0.7428398395947949,1.1339415712243963,1.1312167613080164,1.5368940423659276,1.4513223700407214,1.4707314366473976,2.01158896085952,0.7616513722147018,Stress
107.9103976149098,556.2075471698113,38.07579333035425,,,,,,,16.36052158907737,16.438652743741013,0.0684560889619314,0.02941441854272874,553.0,32.6172,0.05898227848101265,43.0,2.327297031640755,522.0,577.0,1.8867924528301887,16.037735849056602,506.0,707.0,7.066666666666666,15.625,,,0.04901795172365339,0.010266232121653606,0.00041108266617434486,0.05969526651148134,4.774677909363105,0.8211363243386416,0.17197732285321274,-4.578895204379441,11.623882828670117,52.61486475012544,0.22092393250221942,1921.3635813644037,4.526444865768238,3.9905796645368787,952.6331376451824,0.33962264150943394,0.34615384615384615,0.5,0.037037037037037035,50.43685464654487,50.47142804200835,50.40456717638108,50.0,0.5674790962462196,0.4325209037537806,8.756590924291519,7.644756875944957,0.44871722711583684,0.5512827728841633,35.244782106730575,39.06570525311269,0.4542441549895405,0.5457558450104596,25.679491334197998,28.147572138777655,1.5973176488032044,0.4813482374826359,1.6620446627698644,1.6132914903207758,0.5847899390438087,0.15434327661139058,-0.6012846181884012,1.6156558014094868e-05,0.009351968727343953,0.7105217268774342,0.9450008377565863,5.7535410912127825,0.7566250789918432,1.215333432366712,1.1306737309675783,1.553087200374748,1.4828781733457006,1.400669283811619,1.6812464232708773,0.7616513722147018,Stress
107.93546404940936,555.803738317757,37.9161038252794,,,,,,,15.943887454752412,15.997899682451298,0.0682185116999024,0.028686182469750094,553.0,32.6172,0.05898227848101265,42.5,2.3780965547381423,522.0,575.6,1.8691588785046727,14.018691588785046,506.0,707.0,6.6875,23.4375,,,0.038089280008141345,0.008065892957380996,0.0002403061471161687,0.046395479112638506,4.7222645043021965,0.8209696448153613,0.17385083873794463,-4.820110853461941,11.312223350203428,52.25293897596799,0.21648970511316332,1856.9857301240193,4.619157291924255,3.9757786764090524,965.4581763812627,0.3177570093457944,0.32380952380952377,0.4411764705882353,0.0,46.463022508038584,46.49850966988288,46.44263671122168,53.333333333333336,0.5225265345505828,0.4774734654494175,8.188261051506544,7.827302643099132,0.42774893386217266,0.5722510661378273,34.174737730928896,39.527925984656214,0.4320031013342314,0.5679968986657687,24.849148054062077,28.493188653739043,1.5392600864744461,1.51754546833841,1.733681723791904,1.6777800081683436,0.1383479655758748,0.721846658708051,-0.536836929627399,0.0006013976540042201,0.12097158511937593,0.7490054070726804,0.9964827935917299,5.817225369676091,0.745801116121824,0.905539054659143,1.0772918989946545,1.4070355854660026,1.4828109103658424,1.4271799328647026,2.059150205490986,0.8820611010244491,Stress
108.75495307316996,551.7289719626168,38.27151512140439,,,,,,,15.961332993938703,16.037134019678806,0.06936651339019684,0.028929662579002986,544.0,32.6172,0.05995808823529411,43.5,2.3977643431120668,522.0,569.8,1.8691588785046727,14.953271028037381,496.0,707.0,6.294117647058823,31.25,,,0.03268032425061659,0.006992440600252975,0.0002690576881769624,0.039941822539046525,4.673664907419345,0.8181981234999678,0.17506563686264617,-4.962925627703936,11.339966216112357,53.18475865752443,0.21321834492348513,1894.7365211276579,4.690027963395255,3.9845189362046525,997.7520213208699,0.32710280373831774,0.33962264150943394,0.5,0.04,49.88009592326139,49.87218534155773,49.890075098002114,51.886792452830186,0.577744862062581,0.4222551379374191,8.61946855062643,7.368853370776216,0.43908089855457466,0.5609191014454254,35.241912208632655,39.83247641483201,0.4451107383495421,0.5548892616504576,25.654313616000422,28.643726864168254,1.5891871291567572,0.3421697437720046,1.4219982354386107,1.4270335928354945,1.0,0.8953235157676875,-0.4852840366849065,0.0003615089465914203,0.016985655269696833,0.766637418738032,1.0274078423763182,5.806522126426309,0.758937285989579,1.2242457710320598,1.2010134580217584,1.4725503014025052,1.4752690131648343,1.4398476569958698,1.8247771885731434,0.7560523723066708,Stress
