PPG_Rate_Mean,HRV_MeanNN,HRV_SDNN,HRV_SDANN1,HRV_SDNNI1,HRV_SDANN2,HRV_SDNNI2,HRV_SDANN5,HRV_SDNNI5,HRV_RMSSD,HRV_SDSD,HRV_CVNN,HRV_CVSD,HRV_MedianNN,HRV_MadNN,HRV_MCVNN,HRV_IQRNN,HRV_SDRMSSD,HRV_Prc20NN,HRV_Prc80NN,HRV_pNN50,HRV_pNN20,HRV_MinNN,HRV_MaxNN,HRV_HTI,HRV_TINN,HRV_ULF,HRV_VLF,HRV_LF,HRV_HF,HRV_VHF,HRV_TP,HRV_LFHF,HRV_LFn,HRV_HFn,HRV_LnHF,HRV_SD1,HRV_SD2,HRV_SD1SD2,HRV_S,HRV_CSI,HRV_CVI,HRV_CSI_Modified,HRV_PIP,HRV_IALS,HRV_PSS,HRV_PAS,HRV_GI,HRV_SI,HRV_AI,HRV_PI,HRV_C1d,HRV_C1a,HRV_SD1d,HRV_SD1a,HRV_C2d,HRV_C2a,HRV_SD2d,HRV_SD2a,HRV_Cd,HRV_Ca,HRV_SDNNd,HRV_SDNNa,HRV_DFA_alpha1,HRV_MFDFA_alpha1_Width,HRV_MFDFA_alpha1_Peak,HRV_MFDFA_alpha1_Mean,HRV_MFDFA_alpha1_Max,HRV_MFDFA_alpha1_Delta,HRV_MFDFA_alpha1_Asymmetry,HRV_MFDFA_alpha1_Fluctuation,HRV_MFDFA_alpha1_Increment,HRV_ApEn,HRV_SampEn,HRV_ShanEn,HRV_FuzzyEn,HRV_MSEn,HRV_CMSEn,HRV_RCMSEn,HRV_CD,HRV_HFD,HRV_KFD,HRV_LZC,Labels,HRV_DFA_alpha2,HRV_MFDFA_alpha2_Width,HRV_MFDFA_alpha2_Peak,HRV_MFDFA_alpha2_Mean,HRV_MFDFA_alpha2_Max,HRV_MFDFA_alpha2_Delta,HRV_MFDFA_alpha2_Asymmetry,HRV_MFDFA_alpha2_Fluctuation,HRV_MFDFA_alpha2_Increment
127.91358307890685,469.7936507936508,57.86858456334559,,,,,,,77.16538083881916,77.47589177577508,0.12317872850257704,0.16425377547878525,461.0,17.7912,0.038592624728850326,24.75,0.7499293586617533,449.0,478.0,5.555555555555555,26.190476190476193,390.0,901.0,5.7272727272727275,117.1875,,,0.03837131879240646,0.10827020376866796,0.03235866108049843,0.17900018364157286,0.35440331186954543,0.2143646895314956,0.604860853022735,-2.22312528961928,54.78372845312562,61.213250726588015,0.8949651881390817,10535.299879445787,1.1173618965887593,4.729617011950047,273.5894157128945,0.6031746031746031,0.6129032258064516,0.8552631578947368,0.23333333333333334,49.91418764302059,49.96569435443741,49.85318289146336,48.38709677419355,0.48402954674921267,0.5159704532507874,38.114270039516185,39.351753250280574,0.517462388133003,0.48253761186699684,44.03366535262647,42.52174008820702,0.5025934158696528,0.4974065841303473,41.180464209575504,40.967419152297104,0.6584578557086657,2.1119652883457034,1.223572532961864,1.0745646284696115,-0.529593162294125,-0.24903421855778873,-0.570554144670138,0.0035903379516631097,0.31913241866392755,0.7458788134683547,0.750088556960084,5.657818816945374,0.5605210168576229,0.5636685729695287,0.8420341742226841,0.7814480063281953,0.9495768858424943,1.932224729328001,1.7492312985727214,1.052129512273797,Relax,,,,,,,,,
128.10998545298318,469.13492063492066,57.63614881993461,,,,,,,76.36638003729128,76.67196737168783,0.12285623236473348,0.1627812739540644,461.0,17.7912,0.038592624728850326,24.0,0.7547319748793866,448.0,477.0,4.761904761904762,22.22222222222222,390.0,901.0,5.25,117.1875,,,0.04887425447584488,0.13048314519930088,0.036119447892450286,0.21547684756759602,0.3745637369577044,0.22681905284748896,0.6055552913097438,-2.0365112161215992,54.215268055434166,60.87172286999351,0.8906478328406141,10367.811103696897,1.1227782330201381,4.722657185933389,273.3817817794514,0.6031746031746031,0.6129032258064516,0.8421052631578947,0.2,50.98219766728054,51.371588274899636,50.614954879930075,47.58064516129033,0.4889626298736038,0.5110373701263962,37.91134607594832,38.757673537823656,0.520733860562804,0.4792661394371961,43.92618669922855,42.14091559548518,0.5066793653101682,0.49332063468983167,41.02913622796491,40.48465156877556,0.5222302083916024,2.1268095907204154,1.101115098536089,1.0865988564239593,-0.6891869469319847,-0.6996393119339956,-0.5068253604720733,0.002877660470594599,0.32221517498293517,0.6987596155028184,0.6843224141045084,5.497758967746649,0.5171929213392631,0.4610979279200915,0.7784483692599959,0.710657494010683,0.8824480885442407,2.011542945150155,1.6225183643296424,0.9967542747857023,Relax,,,,,,,,,
129.5649914270963,463.4296875,41.96055207704298,,,,,,,54.14750923085486,54.35827694303761,0.09054351330706016,0.11684082977712743,458.5,16.3086,0.03556946564885496,22.0,0.774930420126003,447.0,473.0,2.34375,20.3125,414.0,894.0,4.413793103448276,78.125,,,0.05353004306481661,0.1333608846929611,0.03771920898808264,0.22461013674586036,0.40139238119227905,0.2383242530384292,0.5937438382126757,-2.0146964066911686,38.43710624003824,45.23585582442847,0.8497044112356831,5462.398347183825,1.1768798499536437,4.444353477987333,212.94866886071216,0.6015625,0.6141732283464567,0.8461538461538461,0.15625,48.3633387888707,48.257172746172394,48.48361581103925,48.031496062992126,0.46031507312854825,0.5396849268714516,26.080005112473934,28.239058844877327,0.5304578009106818,0.4695421990893182,32.94642007428074,30.997033026686758,0.5010461100661586,0.4989538899338414,29.71223033009837,29.65013069871661,0.8773308122910389,2.226301863862307,1.2475755038638907,1.2625804137028018,-1.0140671078761834,-0.4776919612211379,-0.4932601638248284,0.001145551160645083,0.2554032427343911,0.8139440245403624,0.8848298593761512,5.456927934728811,0.6548592269783168,0.6718358445003653,0.8789977440784117,0.8600767155520066,0.8542757373038167,1.9653256689877472,1.6071979105122611,1.0390625,Relax,,,,,,,,,
130.33306374471186,460.71875,41.384872564324205,,,,,,,53.78185743330531,53.99440202992046,0.08982675995783589,0.11673468343388524,457.0,14.825999999999999,0.032442013129102845,20.0,0.769495040509626,446.0,470.6,2.34375,16.40625,414.0,894.0,4.266666666666667,78.125,,,0.038262677246861276,0.08585326540170574,0.024797341972711787,0.14891328462127879,0.4456752700998729,0.2569460296586177,0.5765319435405015,-2.4551156562326457,38.17980782146944,44.627296725752586,0.8555258916105809,5352.839124817896,1.1688716961183228,4.435554301177512,208.65433606802438,0.6015625,0.611111111111111,0.8311688311688312,0.2413793103448276,49.393939393939384,49.43276114624731,49.340990907905876,46.03174603174603,0.4627054602472873,0.5372945397527127,25.97106142894494,27.986178561500502,0.5353407585418556,0.46465924145814436,32.65244717012717,30.420606615424735,0.5046442285326324,0.49535577146736737,29.501511299795958,29.228748667421716,0.5148700033522129,1.8339601281542022,1.0724491570254169,0.9266023504375949,-0.06951724710385321,-0.071524168398997,-0.5795256147332986,0.002737304856189969,0.2716238591155317,0.8404241067149063,0.8573761385677436,5.370962797403417,0.6331268936332355,0.6506230440137262,0.9101375322349328,0.8757564815713741,0.820222333608424,1.9563212487834223,1.5477281144119657,0.984375,Relax,,,,,,,,,
130.67326603653166,459.51937984496124,41.11931966378339,,,,,,,53.461361631555924,53.671421572400725,0.08948331989318226,0.11634190847313867,456.0,14.825999999999999,0.03251315789473684,19.0,0.7691408974423211,445.6,468.4,2.3255813953488373,14.728682170542637,414.0,894.0,4.03125,70.3125,,,0.007670992962008239,0.02130143054605475,0.0049244970641989134,0.0338969205722619,0.36011632859225917,0.22630353532130199,0.6284178676539092,-3.8489810467354015,37.9514261497665,44.354362992677736,0.8556413301670397,5288.278512859663,1.168713998194522,4.430284429626379,207.35025964217414,0.6046511627906976,0.611111111111111,0.8311688311688312,0.23333333333333334,50.065818341377785,50.18806079699337,49.90421639113391,44.44444444444444,0.4633103633018896,0.5366896366981102,25.832363879870677,27.802877548915685,0.5381789731836428,0.46182102681635734,32.53866339475183,30.142078577451446,0.5065339930965931,0.49346600690340703,29.37750533264363,28.9960764670779,0.2410908676544166,2.2774275594593583,1.000732899188681,0.9510795478942137,-0.5150973742279632,-0.6576471752481994,-0.5218023844878098,0.005989373576822314,0.4569734707076326,0.8203283003468482,0.81661786663027,5.412373771501763,0.6094407636304987,0.4762768115483337,0.8605555355748229,0.8203041107527979,0.780638572326116,2.0422915247573807,1.5237240657932525,0.8696095820680005,Relax,0.5314674248087367,1.000987136384027,-0.2282407626082481,0.2722528055837654,1.0,-3.0190674552676615,0.0,0.0020802575370920955,0.10703765784662751
131.64369568072112,455.81538461538463,13.70666369675296,,,,,,,16.18832960820467,16.251322993252202,0.030070647370357174,0.035515101408576465,455.5,14.0847,0.030921405049396267,18.75,0.8467003099446446,445.8,468.0,0.7692307692307693,13.076923076923078,414.0,492.0,3.9393939393939394,70.3125,,,0.008650105093346613,0.04116870436350273,0.006142985236562318,0.05596179469341166,0.21011361001234682,0.15457161695289562,0.7356573281655224,-3.1900769140986673,11.491420691781492,15.670459064947696,0.7333174251088762,565.724928331883,1.3636659456872027,3.459575426051414,85.47708552061799,0.5923076923076923,0.6015625,0.8181818181818182,0.22580645161290322,49.73333333333334,49.74614612804593,49.72064990587285,44.53125,0.43489321422232735,0.5651067857776727,7.578237756893088,8.638576271585498,0.5827564065309333,0.4172435934690666,11.962590809957732,10.122238310755005,0.5310479896763428,0.46895201032365724,10.013322784832344,9.40969469270168,0.7700823071959408,1.6196519947146553,1.0720005073199823,1.0517602998187676,-0.1378696461164548,0.162100755713241,-0.5124966397517885,0.0003756655974968295,0.1440087186182356,0.6725173167017733,2.495269436823547,5.375489255600616,1.2575509849055602,1.5028451377950196,1.3634979719330667,1.9623535766770013,1.9155995993105084,1.9364575018514618,3.203812965256581,1.1343824928738273,Relax,0.7929474052105935,2.003167529074241,0.946895117448382,1.6853093146443663,-3.368461136969664,-4.144763283530022,-0.13137671389010552,0.0004546753679715394,0.1971599013017823
132.0180926940625,454.5230769230769,13.08126975358776,,,,,,,14.977502508607664,15.035088965277142,0.02878021032978623,0.03295212777753514,453.0,11.8608,0.02618278145695364,15.75,0.873394596066325,445.0,466.0,0.7692307692307693,11.538461538461538,414.0,492.0,3.5135135135135136,62.5,,,0.039895925544580095,0.08894925550634585,0.005657264190244146,0.13450244524117008,0.4485245583841208,0.2966185891493985,0.6613207317298586,-2.419689234704692,10.631413363090498,15.154235710870411,0.7015473142907755,506.14495822145534,1.4254206090304018,3.4112450251016626,86.40463958551668,0.5846153846153846,0.59375,0.8157894736842105,0.1935483870967742,49.29078014184397,49.31403390858172,49.26771452894771,44.53125,0.3972976708825764,0.6027023291174235,6.701504028947531,8.254023640019454,0.6081514689384783,0.39184853106152184,11.81788931409492,9.486219064538897,0.5385996260238347,0.46140037397616535,9.606577540680107,8.89149195552752,0.7641365913696326,2.122347330517635,1.066058368253908,1.143718452029645,-1.0334396333972524,-0.29849802283263926,-0.46340840037865244,0.00024214336961983786,0.20243080267757094,0.7114382530377057,2.5552874465497997,5.314451537488648,1.2848830148044452,1.5845397749813155,1.2442988738569754,1.8746359111202626,1.9296001038356858,1.9062409546209163,2.942632400861405,1.1343824928738273,Relax,0.446206298797112,0.5379631350339431,0.5120013653581147,0.32604134809266205,0.9073185836588702,1.053622470503111,-0.8456742760890472,2.858555963914638e-05,0.013536127576716482
132.16757423413452,453.9923076923077,12.383720342328255,,,,,,,14.09546631164204,14.150205609758807,0.027277379225379508,0.031047808680483662,453.0,11.8608,0.02618278145695364,15.75,0.878560529217825,444.8,466.0,0.0,10.0,414.0,485.0,3.5135135135135136,62.5,,,0.03657685477468377,0.06515871534661757,0.004719976424801064,0.10645554654610241,0.5613501521647556,0.3435880605698974,0.6120744053331169,-2.7309292108106975,10.005706341844377,14.069497612970949,0.7111630149906645,442.2585273125471,1.4061473655419596,3.352646325379802,79.13514801191195,0.6076923076923076,0.6141732283464567,0.8461538461538461,0.1935483870967742,49.63768115942028,49.66240595009921,49.61201952037555,45.66929133858268,0.4452204447912602,0.5547795552087398,6.676392644984265,7.452715528584195,0.5493223360818493,0.4506776639181508,10.427788624874248,9.44520976349062,0.5143558509259808,0.4856441490740192,8.755369619697868,8.50749540776657,0.8288228363817871,1.3424161090078601,1.042172326862301,1.1559332284814474,-0.29958550101078174,-0.44044962774727603,-0.4152566027360744,0.0002204871249478585,0.0940556195343905,0.7341331314709754,2.6119063405493077,5.241744471385902,1.348780770468432,1.6170587453001306,1.3548951318911422,1.8117094380852294,1.9195095827932522,1.8889815331718725,2.5677243066478397,1.0803642789274546,Relax,0.4832069003623178,0.6035160696991462,0.09953583511455344,0.29150300708075705,1.0167297735303447,1.3769160717309823,-0.18191870671828245,0.0002997917440317408,0.03978906456378128
132.36885489029257,453.3358778625954,12.063046360379289,,,,,,,13.959832487423446,14.013759317496003,0.02660951173168685,0.03079357529177213,452.0,11.8608,0.02624070796460177,16.0,0.8641254378408201,444.0,464.0,0.0,9.923664122137405,414.0,479.0,3.275,62.5,,,0.034136518854784845,0.05196081230664641,0.003216767954883371,0.08931409911631463,0.6569666127105248,0.3822075035468758,0.5817761453203187,-2.9572654539946543,9.909224243317587,13.923768090192295,0.7116769095211736,433.4572889702832,1.4051320010829271,3.3439164203590948,78.25892847674604,0.5877862595419847,0.59375,0.8421052631578947,0.15625,50.21961932650074,50.22659548343433,50.21264868608489,45.3125,0.4499092129154496,0.5500907870845505,6.646675452708926,7.349524057785578,0.5716138731836831,0.4283861268163168,10.527085773552002,9.113275094373943,0.530696138696903,0.4693038613030968,8.803346791344879,8.27850490190425,0.8552215917294188,1.2789872784132545,1.0819935770164644,1.1213305860775733,0.03383215054124378,-0.026587876388937115,-0.46924362757547405,0.00028358821621720086,0.09200766220958435,0.7454328607477394,2.3025850929940455,5.2296733874673755,1.36364886180174,1.605758956461628,1.400589823365442,1.8886977691393874,1.9287334045744868,1.89050331622643,3.866773541366308,1.1274952903227973,Relax,1.0807441596768872,1.6904292539578012,-0.5869806350332856,0.258233991945615,1.0454089184952569,-2.834148561156865,0.0,0.0012281546547141893,0.2041280036745554
132.05839445980354,454.41984732824426,12.365556504614734,,,,,,,13.58789053645816,13.63939714365913,0.027211743891288786,0.02990162207119251,454.0,11.8608,0.02612511013215859,15.5,0.9100423992551502,445.0,465.0,0.0,9.16030534351145,414.0,489.0,3.638888888888889,70.3125,,,0.04007266052837057,0.048382359891720364,0.0034446911547074874,0.09189971157479841,0.8282493995343161,0.43604772900462146,0.5264691157636693,-3.0286199967401783,9.644510211577796,14.54402975213977,0.6631250331538177,440.6713380589505,1.5080112346897951,3.351084914209765,87.73024105555764,0.5877862595419847,0.59375,0.8421052631578947,0.15151515151515152,50.824587706146914,50.805114710909486,50.84429082558475,46.09375,0.4710440796600284,0.5289559203399717,6.619796479224764,7.014934235299814,0.5418437496164512,0.4581562503835487,10.705865631480512,9.844452372367464,0.520217243275322,0.47978275672467796,8.900484940318481,8.547588690308887,0.8878578172507493,1.5239368148389882,1.0949510484754932,1.3973923764678933,-0.969792418056084,-1.383545441400504,-0.3015394568544795,0.000324279978822568,0.1258077567883098,0.7306975704818495,2.4765384001174837,5.264691299704963,1.3350324676518945,1.4821769583672246,1.4538325350924206,1.8991816204738745,1.9020216400189367,1.88069869242882,3.5778154295706703,1.1811855422429307,Relax,1.3954438725797416,1.4464475157497958,0.312032269235047,1.035256027109945,2.009918643562882,-2.1017547735511686,0.0,0.00041083689559171297,0.06690099288591674
132.10446690927472,454.2671755725191,12.143896490058076,,,,,,,13.418987695397547,13.46992276593354,0.02673293855043116,0.02953985763661091,454.0,10.3782,0.022859471365638765,14.5,0.9049785845040454,446.0,464.0,0.0,8.396946564885496,414.0,489.0,3.358974358974359,62.5,,,0.04578141506640269,0.0476361526114647,0.0056077204573906966,0.09902528813525807,0.9610644973747181,0.46232044287384566,0.48105038125613686,-3.044163297381278,9.524673729850662,14.30888590567615,0.6656474719721084,428.15971355200776,1.502296699238274,3.3385759111613154,85.98476826349736,0.6030534351145038,0.6,0.84,0.15151515151515152,50.80707148347424,50.80960002568325,50.804177253660434,46.400000000000006,0.47131445170660863,0.5286855482933915,6.5393857426728434,6.92596507701721,0.5449391332094797,0.4550608667905202,10.56281854058406,9.652516787882389,0.5223310763916635,0.47766892360833657,8.78455182160078,8.400597377223043,0.9827112438207944,1.2460853666830989,1.1851821439335666,1.3189027292892401,-0.2323431265035616,-0.5145186897322054,-0.39268746032094204,0.0002459094073862449,0.08537645370480854,0.7244495043743973,2.3513752571634776,5.279691804255808,1.3094070486515783,1.2920562442588583,1.3504998742971592,1.7810695907031466,1.8852321215706567,1.8600405676273508,3.1468545857477905,1.1274952903227973,Relax,0.9704100307429077,0.8162181129370495,0.1748111174733573,0.5829201739418821,1.0,-2.1769676760414187,0.0,0.0003190855590314994,0.04861667644070774
130.96276175221342,458.2153846153846,19.5606727010497,,,,,,,14.978537617113588,15.035958997832367,0.04268881700135074,0.03268885794763575,455.0,11.8608,0.026067692307692306,17.0,1.3059133809365233,447.0,466.4,0.0,12.307692307692308,414.0,561.0,3.9393939393939394,70.3125,,,0.027467015777926054,0.03730323215494248,0.0029524948972241057,0.06772274283009264,0.7363173159858969,0.405580380092359,0.5508228195737928,-3.2886753031389975,10.632028569010151,25.546577151678584,0.41618211731005045,853.2940694158685,2.4027942537834046,3.638068837161389,245.53267513555087,0.5923076923076923,0.592,0.8378378378378378,0.15625,50.75862068965517,50.789262658357025,50.72751091241186,48.0,0.4955428097574459,0.504457190242554,7.4848805935699465,7.551903733496607,0.44053352699490733,0.5594664730050929,16.95595294513929,19.108198865641125,0.4486557695229156,0.5513442304770843,13.10587230553117,14.528498096652811,1.1281570523895048,0.9931955905309524,1.5609986792127917,1.6247548476549811,-0.8658382536809448,-1.9469751903981292,-0.43580703634809137,0.0018664711400759725,0.12148758438790469,0.9467904534446681,2.2072749131897207,5.442888968350341,1.0571237307804242,1.4442133916397366,1.34049885199662,1.6585035017039458,1.610369191126627,1.812144622414073,1.991476666252808,0.9183096370883364,Relax,0.46530735787299327,2.331318117193714,1.0914374507178866,1.0321603927814564,-1.022263433537244,-0.9305250805036198,-0.5254264132806483,0.003965672751521721,0.3692933692403032
130.7044589629253,459.1171875,19.39421989294505,,,,,,,14.82522855050819,14.88389007373523,0.04224241745021809,0.03229072871620209,456.5,12.6021,0.027605914567360352,16.25,1.3081902802962346,447.0,468.0,0.0,12.5,414.0,561.0,4.129032258064516,70.3125,,,0.04956589146963285,0.03891004868794302,0.0017596243269810937,0.09023556448455697,1.2738583769747822,0.5492944134916519,0.43120524496305596,-3.2465027406900555,10.524499601573323,25.44355548435672,0.41364107339652373,841.2578470877454,2.4175548907382853,3.6318992382262314,246.04476799591004,0.5625,0.5609756097560976,0.8115942028985508,0.15625,49.81870920957215,49.81936606656114,49.81899717362034,47.96747967479675,0.4899150933256905,0.5100849066743094,7.366537383049991,7.516648189186453,0.4357780634477116,0.5642219365522883,16.79617851687831,19.111852419760222,0.4436875950678275,0.5563124049321726,12.968760268173622,14.521757863886428,1.1903892005838892,0.8656779211730914,1.3763471586361722,1.60993605237425,-0.8723850347315203,-1.8723850347315203,-0.23016651109509811,0.0007739938566234946,0.06589088234123877,0.9170424154960526,1.9974679587201634,5.407205059911622,1.0455413562490359,1.096947865477489,1.3960321736467867,1.7370546239215707,1.5962534367613759,1.7203967409546534,2.191748393730344,0.875,Relax,,,,,,,,,
130.42845884159718,460.0390625,19.690679814448206,,,,,,,14.927383282194617,14.984498093099823,0.04280219098665824,0.032448077780774576,458.0,11.8608,0.025896943231441046,17.0,1.3190978915866152,448.0,469.6,0.0,12.5,414.0,561.0,4.129032258064516,78.125,,,0.06096109575720554,0.03260103729801655,0.0015851794330765164,0.09514731248829861,1.8699127638160895,0.6407022349128637,0.34263750016087824,-3.4234111721581244,10.595640214307775,25.774865800555006,0.4110842049109571,857.9727380413794,2.4325916395075433,3.6404435983859096,250.798892223436,0.578125,0.5737704918032787,0.8142857142857143,0.15625,51.10635260528195,51.09158962549583,51.118908729582316,46.72131147540984,0.5005123855966641,0.4994876144033356,7.497089382310258,7.489410513603179,0.4488185700731441,0.5511814299268559,17.267593712769237,19.135671255729513,0.45629318185056134,0.5437068181494388,13.311200957006413,14.530402338693559,1.2196632020353613,1.2295812286605567,1.2656733531089488,1.814320777369634,-0.8081984163810798,-1.6257005529825204,-0.05379326597368948,0.0019232487674700795,0.1520170187223784,0.8967933572218434,2.1102132003465894,5.389310575103392,1.0652278986952635,1.2161122675502563,1.4428500176847243,1.8747094470011747,1.5914394857396454,1.732757838138627,2.12336127728115,0.9296875,Relax,,,,,,,,,
129.9264625163892,461.8671875,18.618579787067585,,,,,,,13.646550716451864,13.699937553283938,0.04031154472749287,0.02954648237801449,459.0,13.343399999999999,0.029070588235294115,16.5,1.364343281604603,449.0,471.0,0.0,10.15625,425.0,561.0,3.764705882352941,46.875,,,0.05046819364803588,0.029223785905219367,0.0012731806652275625,0.08096516021848281,1.7269560423046442,0.6233322272425388,0.36094272927219045,-3.532772315507663,9.687318745759312,24.54387295818503,0.39469397361465436,746.9586428870036,2.5336084836611033,3.580266666712687,248.7382589950317,0.578125,0.5702479338842975,0.8115942028985508,0.15151515151515152,50.65535851966073,50.67275112441192,50.63707949956525,47.93388429752066,0.5213733034543995,0.47862669654560064,6.995179746263828,6.70228579819116,0.4331352031454031,0.5668647968545969,16.153061091093736,18.479186052824947,0.44502944782440773,0.5549705521755921,12.446965941448262,13.899657407568629,1.272593792741031,0.3992542530293681,1.4058730237613257,1.4339611930941234,0.19733127259162586,-0.8026687274083741,-0.42964841546539123,0.00039338912352687006,0.019400981276410368,0.9301995072815123,1.9273049612242785,5.201357282211646,1.0519153206236318,1.2024502874802816,1.5391170665072078,2.014986826204532,1.6133410260230365,1.693272881368777,1.986501583881636,1.0390625,Relax,,,,,,,,,
129.93865346387037,461.84375,18.510876777049706,,,,,,,12.725137871876584,12.775336545352497,0.04008038817684489,0.027552906955819113,459.0,13.343399999999999,0.029070588235294115,16.5,1.4546700368535885,449.4,471.0,0.0,8.59375,434.0,561.0,4.129032258064516,46.875,,,0.051698627347833696,0.031210986279379974,0.002043593533354589,0.08495320716056826,1.656424019576376,0.6085541567620775,0.367390323715369,-3.466985121808824,9.033527103159072,24.564858201660584,0.36774187862189267,697.1423822564908,2.719298666084715,3.5502915961133206,267.1967445613432,0.578125,0.5737704918032787,0.8285714285714286,0.15151515151515152,50.37098103874691,50.389012842459294,50.35318446062193,48.36065573770492,0.5237539508874302,0.47624604911256996,6.537741467208955,6.234186343467716,0.4398520835811786,0.5601479164188212,16.291744418174208,18.385084233709158,0.4498471169442241,0.5501528830557759,12.412956933768319,13.727279439962974,1.4905944551333485,1.5034301759751132,1.7827467844795515,2.2216433724388063,-1.1851190612245919,-2.185119061224592,-0.20806985587169688,0.006346256257401288,0.322417199839652,0.909066721242322,1.8101086078962516,5.210048730669743,1.0157687942250044,1.3464939082455687,1.4943206999458887,1.9947429719545966,1.6138813209453642,1.664866881131665,1.901652797575386,0.984375,Relax,,,,,,,,,
129.83853763558807,462.140625,18.330618237272574,,,,,,,12.827750430311708,12.878078054904055,0.039664589619820965,0.027757244735434606,459.0,11.8608,0.025840522875816993,15.5,1.428981514479554,450.0,470.6,0.0,9.375,434.0,561.0,4.129032258064516,46.875,,,0.05925249108356329,0.03170801219580542,0.002449605484023747,0.09341010876339247,1.868691443590452,0.6343263257903883,0.3394494730342486,-3.4511858793786456,9.106176321272322,24.344652487495225,0.3740524259259714,696.4493019334984,2.673422041106906,3.549859617380923,260.33412217263117,0.5859375,0.5785123966942148,0.8285714285714286,0.14705882352941177,49.42434210526315,49.42658426078347,49.42369567261341,51.2396694214876,0.522585893386927,0.477414106613073,6.583107289669643,6.292159394140444,0.4262139741758297,0.5737860258241704,15.893422255868284,18.44074927256424,0.4380436010015979,0.5619563989984022,12.164254448806776,13.777744800489817,1.3791321538060777,1.0792154378039704,1.47654917971778,1.9046719654845337,-0.6489834138387724,-1.3735848429333073,-0.10330183319290312,0.0018765689642969874,0.12799741039294,0.8858164472723797,1.7480844057253933,5.267465208486841,1.0159463096647439,1.1865355606167147,1.4145101666507183,1.8907423770822052,1.613529087761936,1.6659153659419237,2.230615477670143,0.984375,Relax,,,,,,,,,
130.1809181048599,460.9375,18.56580125871094,,,,,,,12.137013084534976,12.185039622470455,0.040278348493474586,0.02633114703085554,458.0,11.8608,0.025896943231441046,16.0,1.5296845384773912,449.0,468.6,0.0,7.8125,434.0,561.0,4.0,46.875,,,0.051464470894471336,0.031532301550267025,0.0018674187977446265,0.08486419124248298,1.6321190767641736,0.6064332923107885,0.3715619166176884,-3.4567428125209614,8.616124146075627,24.910511000483538,0.34588307505648436,674.2864882255689,2.891150426590533,3.535814567061136,288.08013802254453,0.5703125,0.5619834710743802,0.8235294117647058,0.15151515151515152,49.82300884955752,49.81865038331518,49.828034780914464,49.586776859504134,0.527421423989737,0.472578576010263,6.25737659924364,5.923118547972287,0.4498227337838543,0.5501772662161456,16.70718712415328,18.47710628598912,0.45811434862518535,0.5418856513748146,12.615166735050215,13.720182032995625,1.3643748838157792,1.868776267193902,1.4316977733276557,2.2702697423567977,-1.4275688401740414,-2.178949960926558,-0.05127214330032333,0.004841120923741638,0.3725947656608575,0.8687611016124928,1.4689860769650038,5.336336207516466,0.9324314390595014,1.2644559345890631,1.3126529840650472,1.8493263905031785,1.5435343977525735,1.634708243749924,2.0105917388047514,0.984375,Relax,,,,,,,,,
130.2283791683163,460.84375,18.873986388803093,,,,,,,13.08843331396746,13.139317706459346,0.04095528340962223,0.028401021634702567,458.5,11.119499999999999,0.02425190839694656,15.0,1.4420355695789442,449.0,468.6,0.0,9.375,414.0,561.0,3.657142857142857,70.3125,,,0.054522279454206735,0.03356541374431872,0.001779500652311907,0.08986719385083736,1.6243589270051877,0.6066983636398335,0.3735001873990969,-3.394259095008115,9.290900650401879,25.05881844685131,0.37076371617869713,731.422436787668,2.6971355511984068,3.571138388391517,270.34812041611644,0.578125,0.5737704918032787,0.8285714285714286,0.18181818181818182,49.14821124361159,49.11677283141617,49.18121227341497,49.18032786885246,0.5081356867071153,0.4918643132928849,6.6233713182221345,6.516462668832356,0.4517172750150637,0.5482827249849365,16.842010719521923,18.555081699517373,0.4585364567401993,0.5414635432598007,12.796920971380947,13.906030033587053,1.298007822835212,1.4006215199586478,1.4701630690591894,1.782119670671026,-0.9166861901577654,-1.3392507178057844,-0.27727273416372544,0.0002975413270375837,0.1045466798015604,0.8385673001772096,1.4307461236907244,5.354050320556694,0.9030700869758117,1.3681168110287536,1.2440077333678172,1.7898275464393758,1.5055093034198852,1.659153466398078,2.017580799870042,0.9296875,Relax,,,,,,,,,
130.7301662644184,458.90697674418607,19.320666501696245,,,,,,,12.271346197544913,12.315366237788714,0.04210148784132866,0.02674037837604172,456.0,11.8608,0.026010526315789474,15.0,1.5744537062740245,446.0,466.0,0.0,7.751937984496124,414.0,561.0,3.909090909090909,62.5,,,0.05698875173891472,0.030443361122626585,0.0025070070372155092,0.08993911989875682,1.8719599162971088,0.633636973577973,0.3384885371003879,-3.4918873341267567,8.708278979536258,25.881633935044313,0.3364655802408616,708.0662540982554,2.972072208052134,3.557044006695409,307.6883396692968,0.5503875968992248,0.5447154471544715,0.7910447761194029,0.17647058823529413,48.154815481548155,48.124968325059626,48.18938171738642,50.40650406504065,0.49416342412451375,0.5058365758754864,6.123724356957945,6.195629650943763,0.4373136243982299,0.5626863756017702,17.11544496229932,19.414440988350414,0.4430985712633354,0.5569014287366643,12.853763189383434,14.410176016652159,1.429352750381369,1.5441396637515317,1.530063805604785,2.201422582257135,-1.4365313263957251,-2.472985536547519,-0.06522146771279462,0.002955944018592778,0.2414655019614441,0.7866564867536328,1.311705504128818,5.27663908154574,0.8810291491479061,1.4668726631935398,1.2933138236482924,1.7463340215672025,1.478955835536339,1.6565763978141064,2.137617153033228,1.0326613787057506,Relax,1.3101307311203758,0.8796416083219385,1.3319379954238713,1.749951535281345,0.6517152025394175,-0.4066180577110783,-0.02479107865883743,0.007755190199406695,0.21487644136374445
130.83369364170943,458.61240310077517,19.47968095121787,,,,,,,11.816302298096474,11.862566014187019,0.04247525976077323,0.025765335211616527,456.0,11.8608,0.026010526315789474,16.0,1.6485428740559485,445.6,466.0,0.0,6.2015503875969,414.0,561.0,3.909090909090909,62.5,,,0.04429320363171867,0.026428386060520493,0.0021306319354610836,0.07285222162770023,1.6759708114709724,0.6079869994640944,0.3627670573394259,-3.633316616909975,8.388100870904715,26.34856588531144,0.3183513253592613,694.3373047548339,3.1411837185584015,3.548540609243898,331.06274466521455,0.5193798449612403,0.5121951219512195,0.7619047619047619,0.14705882352941177,49.62335216572505,49.61992232381636,49.62841360543215,48.78048780487805,0.5131490599820949,0.4868509400179051,6.0088517382773246,5.852854475536789,0.44554292271474527,0.554457077285255,17.58740468913487,19.619636095330492,0.45176429346615776,0.5482357065338422,13.14197669515514,14.477327550777563,1.4451824092620609,1.4312380164324825,1.4853644218006292,2.10273987015647,-1.3202192770488015,-2.006628426025255,-0.06864236327741152,0.001517933580152069,0.16497172257520618,0.7906812068881197,1.2830413278016288,5.345730356448196,0.8739752512911607,1.2876164186648709,1.2344572211937148,1.7666394624666557,1.4750346461037969,1.6366668803362159,1.973306913104144,0.9783107798265005,Relax,1.982498762180892,3.344101346479097,3.208261627226218,1.5362109539866693,3.499482198919173,1.814018125985079,-1.0,0.008138055324530206,1.02662596057039
130.6131785185538,459.3333333333333,20.095604826263212,,,,,,,11.824563945448475,11.866234332104243,0.043749502524520784,0.02574288231955401,456.0,13.343399999999999,0.029261842105263156,17.0,1.6994795680392456,445.6,466.0,0.0,6.976744186046512,414.0,561.0,4.448275862068965,70.3125,,,0.03940076181377439,0.021846450509896056,0.0029872283115493854,0.06423444063521984,1.8035315071400977,0.6133899731069019,0.3401049389370352,-3.82371681869633,8.390694763379534,27.09810059499187,0.3096414353458507,714.3098616442173,3.2295419341505784,3.5608567559257587,350.0578088294279,0.5348837209302325,0.532258064516129,0.803030303030303,0.18181818181818182,52.05741626794258,52.03070363618737,52.07880428783187,47.58064516129033,0.544560540872772,0.455439459127228,6.1943586221785285,5.664852264719916,0.43102360758027497,0.568976392419725,17.790550196293328,20.440239224859052,0.4409642202322206,0.5590357797677794,13.320543439120454,14.998232074990854,1.4603228543347146,1.1753517673675757,1.487947185874929,1.9334814224395065,-0.922812100119172,-1.4657611908229269,-0.12093540935201348,0.0007801774546124291,0.09340615555440937,0.7970092717385184,1.0771522376483404,5.409347728667941,0.8436129630206528,1.230694831443556,1.2663846951885631,1.4598458251003628,1.4599686867007764,1.608221876879113,1.8527989874555264,0.7609083843095005,Relax,1.0763710589159883,1.7106696154017897,0.36586603091365966,0.8691715439819203,1.0833631767837728,2.214754371013898,-0.20578450184839,0.007870098391157196,0.5073180746875104
130.54484739243492,459.6356589147287,19.89893919302614,,,,,,,11.883220838644714,11.928549484952503,0.043292853387421316,0.02585356598898973,457.0,13.343399999999999,0.02919781181619256,17.0,1.6745408894795581,445.6,467.20000000000005,0.0,6.976744186046512,414.0,561.0,4.3,70.3125,,,0.03499381410204256,0.02619467621784233,0.007329928928703443,0.06851841924858834,1.335913214235752,0.5107212700731347,0.38230123381578174,-3.642199086654832,8.434758230529214,26.83024737058037,0.3143749706824548,710.9633085837276,3.180914809563781,3.55881729818692,341.3789248213552,0.5503875968992248,0.5483870967741935,0.8235294117647058,0.21875,48.92623716153127,48.955636818949934,48.90002640419203,49.193548387096776,0.5012448132780084,0.4987551867219918,5.972377360698391,5.9575268345389745,0.4282811660872966,0.5717188339127033,17.558570878306814,20.286911117220658,0.4348450620371897,0.5651549379628099,13.114356686988248,14.950767349241026,1.3638997459725224,1.7219259011933805,1.7028475641649736,2.224862696569213,-1.0359009353296447,-2.0353700177144702,-0.1968422787284537,0.004396623188975823,0.33284940112010897,0.7711620523842422,1.2311014717141886,5.381815798557138,0.8315627008963079,1.1620348589690623,1.1575543079784745,1.5019181438001696,1.4733291364958192,1.6859794999979114,2.212336291630052,0.8696095820680005,Relax,0.5569835115679727,1.3004578884782507,0.7477576037216249,1.207212455807098,-0.19414462253624798,-1.1808219139913647,-0.14669763153721901,0.004044375192942856,0.207906448826263
131.08471103962776,457.75384615384615,14.590036707936637,,,,,,,10.895201987874715,10.937675801466439,0.03187310566699877,0.023801442804727315,457.0,13.343399999999999,0.02919781181619256,17.0,1.3391249399665934,445.8,467.2,0.0,5.384615384615385,414.0,501.0,4.193548387096774,70.3125,,,0.013090599167535681,0.020302812584438435,0.004628954463635817,0.038022366215609935,0.6447677686572981,0.34428680985565246,0.5339702550154071,-3.8969958515741343,7.734104729636924,19.176767855600605,0.40330595791084606,465.94572587517274,2.47950713443479,3.3753054422619604,190.1957308534458,0.5615384615384615,0.5599999999999999,0.8142857142857143,0.21212121212121213,49.951783992285435,49.953095748713224,49.950698303276184,48.8,0.4998367400248155,0.5001632599751845,5.467946369524851,5.469732054680558,0.44051315676523534,0.5594868432347645,12.727844270061405,14.34400242696096,0.44881253803770754,0.5511874619622926,9.795316668258739,10.855145654818777,1.0892680575844886,2.1379948943168445,1.4284181899751434,1.768964982588174,-0.8963191792064009,-0.9662599291620428,-0.3407167418789156,0.001876834955444661,0.3183612206055785,0.6622961926902282,1.4816045409242153,5.379759690692492,1.0555369475137268,1.2610906023658666,1.4544420115541812,1.866663713553252,1.751369041346964,1.7301318066709515,2.551472054328793,0.8642914231419636,Relax,1.004391299495909,0.7407989022353165,0.8654220213009403,1.2358214724185985,0.8938524962936953,-2.363987421433453,0.0,0.003390134886827536,0.1272391742425277
130.4187421213101,460.1007751937984,16.899447550715372,,,,,,,11.638768727833714,11.683339873950265,0.03672988280360358,0.02529612935977203,458.0,16.3086,0.035608296943231435,22.0,1.4519961643623802,445.6,472.8,0.0,6.976744186046512,414.0,525.0,4.3,70.3125,,,0.010496457386810222,0.0169517894696779,0.001677103003418136,0.029125349859906256,0.6191946523159402,0.36038905754947065,0.5820286984093402,-4.077381877295836,8.261368851777416,22.48642895078409,0.3673935452293925,583.6095320471812,2.721876889196902,3.473092486537703,244.8211651268294,0.5426356589147286,0.544,0.8088235294117647,0.21875,50.94850948509485,50.9560269391121,50.939642297848096,48.0,0.5147932406713189,0.4852067593286812,5.92804624505111,5.755175691852899,0.47152402341073263,0.5284759765892676,15.440892632425324,16.34681380797416,0.4766707449575381,0.523329255042462,11.695360139165258,12.254394495785363,1.1353355537460446,2.044036207300446,1.3992081098516902,1.744218463967443,-1.2750770273948628,-1.2425914817660604,-0.33121123154104637,0.0008724266289982297,0.2337087497404101,0.7121246068395983,1.17760069998674,5.44685734526693,1.00550378416526,1.235875751577114,1.1868243632204063,1.56598332119973,1.652578207374746,1.753143024523036,2.219159757864579,0.8696095820680005,Relax,0.9182449597770205,1.1454306987377527,-0.013833990686569209,0.5588813586823071,1.6081457606537732,-0.3180959465671025,0.0,0.0008791298102830905,0.09960639634725604
130.94491823053016,458.2480620155039,16.466362971103365,,,,,,,11.504754451964631,11.54842594175862,0.03593329538302829,0.025105953315685582,457.0,14.825999999999999,0.032442013129102845,20.0,1.4312659205248361,444.0,470.0,0.0,6.976744186046512,414.0,525.0,4.161290322580645,70.3125,,,0.01184104625569585,0.019291112345322665,0.0024400221188694447,0.03357218071988796,0.6138083716342484,0.3527041139952307,0.5746160044317504,-3.9481107893764453,8.165970295448162,21.849856190629282,0.3737310774132367,560.5395382205343,2.6757207533327336,3.4555763613716284,233.85645466640992,0.5271317829457365,0.528,0.7878787878787878,0.1875,48.89908256880734,48.88594965480184,48.91412574568989,48.0,0.4927989611616102,0.5072010388383896,5.733243300275812,5.816417167072641,0.4665109864582975,0.5334890135417023,14.923803458501078,15.959207558121813,0.46973350772190153,0.5302664922780986,11.304644806629845,12.010974451405467,1.1838002359368778,2.036471977975326,1.3761812619669156,1.8535692420296987,-1.6850964967536424,-1.784504989217555,-0.2655808745586544,0.0012124967475030982,0.23638845647796022,0.7417940922327788,1.1684080506036514,5.379168973826162,0.9953948483965845,1.0346151789111135,1.284498969301344,1.6959028144764337,1.6177385936261794,1.7243342705264564,2.5290218119653116,1.0326613787057506,Relax,1.1284137428979861,1.125545037925246,0.002868704972740055,0.5656412239353631,0.9503457455558455,-1.2777700365871536,0.0,0.00412984125480523,0.1841620280139667
130.52668852153425,459.6875,18.00032808099958,,,,,,,11.913401439482667,11.96026730473654,0.03915774973432947,0.025916304966923546,457.0,16.3086,0.03568621444201313,23.25,1.5109310445414852,444.0,472.0,0.0,7.8125,414.0,525.0,4.7407407407407405,70.3125,,,0.011930015878757649,0.023324992166840555,0.002237956094796219,0.03749296414039442,0.5114692340912201,0.3181934571533225,0.6221165144345181,-3.7582298680755573,8.45718611598296,24.1070149329791,0.35081847086813234,640.5000938967595,2.8504770502117767,3.513489307709696,274.8659712622781,0.5078125,0.5080645161290323,0.746031746031746,0.2,50.48372911169745,50.48521591364915,50.481528684559166,47.58064516129033,0.5120665742024968,0.4879334257975036,6.052023143295482,5.907689366477697,0.48096573689517375,0.5190342631048263,16.718623069445844,17.36766569348543,0.48437412629679893,0.5156258737032012,12.57257613747459,12.971827267032667,1.326434101529947,1.4643963496716461,1.4540719889686216,1.9629677088680704,-1.4189861516316817,-2.2056584976945848,-0.1524877161749578,0.0007042422103641512,0.13926580881544603,0.6990761096998503,1.2479896897427103,5.487015554999303,1.0087037050002567,1.2249267316134678,1.252759068826691,1.5073430563057826,1.7093618075354908,1.7100586932767274,2.3555105219214663,0.9296875,Relax,,,,,,,,,
130.10341642265848,461.25,18.898818860730653,,,,,,,12.117534636603741,12.165360681045897,0.040973049020554264,0.02627107780293494,458.5,18.5325,0.040419847328244274,24.0,1.559625734730109,444.0,475.0,0.0,8.59375,414.0,525.0,5.565217391304348,85.9375,,,0.023221624040732757,0.023092404516145453,0.0017291691014006774,0.048043197658278886,1.0055957587481614,0.483348843803097,0.4806591909305631,-3.768251524348736,8.60220903314775,25.384585930238128,0.33887529451094156,686.0092126253585,2.9509380477062543,3.543300057979755,299.6333617872342,0.484375,0.48800000000000004,0.7213114754098361,0.13793103448275862,49.658119658119645,49.65002468972957,49.66698400497334,48.0,0.4978013728013729,0.5021986271986272,6.069374068823044,6.096121587755482,0.4906435566472708,0.5093564433527293,17.780875192986677,18.11677896926147,0.4913808829339381,0.508619117066062,13.285270494345808,13.516293475538571,1.3340668241863007,0.9845752443880205,1.479446141520538,1.6509642855035365,-0.12775629797394572,-0.701537328675915,-0.32579478312030025,0.0001909128398752881,0.05587006683451603,0.7179239741484142,1.466337068793427,5.5777158712058394,1.019251437584089,1.167822801659459,1.293996887048452,1.559160041323215,1.753846371925683,1.70855219833947,2.4058127309252146,0.7109375,Relax,,,,,,,,,
129.4759021956502,464.0787401574803,43.246727796064135,,,,,,,61.15735623963991,61.4006711095116,0.09318834080050468,0.13178228379711338,457.0,19.273799999999998,0.042174617067833695,26.0,0.7071386085854579,444.0,476.6,2.3622047244094486,11.811023622047244,414.0,895.0,6.0476190476190474,85.9375,,,0.014104722009440154,0.033842394767935005,0.0016501195977136535,0.04959723637508882,0.41677671175930187,0.2843852407979031,0.6823443651576726,-3.386040979374041,43.41683091094059,43.32866494999824,1.0020348183135597,5909.943113248702,0.9979693137639825,4.478553410517989,172.96271210583706,0.5039370078740157,0.5080645161290323,0.746031746031746,0.14285714285714285,50.918273645546385,51.18556318808768,50.62218022085291,47.58064516129033,0.4884163575714881,0.511583642428512,30.34303874037668,31.054339471320265,0.5182746405284359,0.4817253594715642,31.192866550837415,30.072882846359345,0.5033149507301,0.49668504926989987,30.77088659478592,30.567550463611358,0.6126696375172783,2.0875273042305276,1.376049188143126,0.6877516842511189,0.5856062496620531,1.447153756564525,-0.8297190424753351,0.009957315015742813,0.5148933954791255,0.7914865664647337,0.7839579152030403,5.654517832964563,0.5874626430235735,1.010849464670552,1.115969410801255,1.118721045971348,0.7696141816926477,1.8819252512807698,1.47289657851316,0.6603481593800471,Relax,,,,,,,,,
129.52181246564376,463.7421875,43.22806140477457,,,,,,,61.24110091225403,61.48356769383958,0.0932157189273934,0.13205850699588126,457.0,19.273799999999998,0.042174617067833695,25.5,0.7058668240910877,444.0,477.0,3.125,12.5,408.0,895.0,5.565217391304348,93.75,,,0.0530684301043666,0.09766234829038731,0.02064124458897193,0.17137202298372584,0.5433867916689241,0.30966799119484156,0.5698850173441771,-2.3262391750674967,43.47544764785611,43.27614336360099,1.0046054077088291,5910.748571971811,0.9954157048394429,4.478612595934326,172.3110109960466,0.546875,0.5519999999999999,0.782608695652174,0.17857142857142858,49.73890339425588,49.78935895383485,49.6815253329706,50.4,0.4853834687493439,0.514616531250656,30.289148876826165,31.187922469066574,0.5086687903371855,0.49133120966281457,30.8649868925,30.33442217271906,0.4969726199538985,0.5030273800461014,30.578423402431465,30.76413233368737,0.5823215240734471,1.9985672803917682,1.3348558167973918,0.8825147338377154,0.13671992764824026,0.49005733424623427,-0.7263326771120793,0.009100788203294163,0.4496099543131654,0.840399352878396,0.8340046132765406,5.648382914624721,0.6041237480411882,1.0083850031448507,1.1243607582195867,1.120766804536324,0.7909798003642361,1.8191603445041287,1.5179984462193696,0.8203125,Relax,,,,,,,,,
129.163239276977,465.1023622047244,43.51916830832959,,,,,,,61.73689694537979,61.98322148801033,0.09356901156561688,0.13273830012973578,461.0,19.273799999999998,0.04180867678958785,26.0,0.7049134385039162,444.2,479.6,3.149606299212598,14.960629921259844,408.0,895.0,5.7727272727272725,85.9375,,,0.057639267444292194,0.12653766891560805,0.0385063857071232,0.22268332206702343,0.45551074188614643,0.2588396244014353,0.5682404400160809,-2.0672152371526313,43.82875623395983,43.5294215408675,1.0068766062698833,5993.657402831602,0.9931703584857744,4.484662025029203,172.92852478568707,0.5511811023622047,0.5564516129032258,0.7971014492753623,0.18518518518518517,50.3361344537815,50.48720756457564,50.164394663366394,50.0,0.486004972493035,0.5139950275069651,30.55486867914834,31.422412383520136,0.511151359908128,0.4888486400918721,31.12129470518512,30.4347754313311,0.4984919759743803,0.5015080240256198,30.83938216085873,30.932535909261908,0.9826591800466614,1.4997329354596283,1.40213240990897,0.8197594966769886,0.5228775945603923,1.3389890636041808,-0.888317746088239,0.00594871794830332,0.26126696803762445,0.8500655121908753,0.8826175167675674,5.681164116313021,0.6335028879033664,1.269210617208654,1.1662643112996856,1.1503312156200347,0.8416142543849798,1.8094614971194396,1.5285414792322176,0.7153771726617177,Relax,,,,,,,,,
128.74183104237713,466.7007874015748,43.14433416804169,,,,,,,61.96971866763663,62.21707875566715,0.09244538542189763,0.13278254577769655,462.0,19.273799999999998,0.041718181818181814,25.5,0.696216395614744,448.0,480.8,3.149606299212598,17.322834645669293,408.0,895.0,5.291666666666667,85.9375,,,0.06030215609819544,0.1370576449768453,0.04285379240569529,0.24021359348073604,0.43997659604017686,0.25103556890518514,0.570565732733342,-1.9873536753969636,43.99411829374973,42.51499567379558,1.0347906096781239,5876.0655264450525,0.9663790825383063,4.476056740104998,164.34241005345055,0.5511811023622047,0.5564516129032258,0.7971014492753623,0.19230769230769232,49.85824220332118,49.92403215693522,49.782187326897606,50.806451612903224,0.48405670106288673,0.5159432989371133,30.608560893972133,31.600632905054287,0.5125193073247374,0.48748069267526284,30.436678329855603,29.68389242312664,0.49780149042377425,0.5021985095762258,30.522740602336988,30.65724603896895,0.5400555721211306,2.3141024958838736,1.4268051309475742,0.9417686990595651,0.4277711343357744,0.879508719715501,-0.7096002371332948,0.00970893739586586,0.6062326190881707,0.8967510382154273,1.0073962803964476,5.782382643653757,0.6734908029362792,1.2026139937244729,1.244741813013678,1.232297183171287,0.8548571099841441,1.8176312240568708,1.5442813300378477,0.8254351992250589,Relax,,,,,,,,,
129.15161433551182,465.1484375,43.60562158437651,,,,,,,61.75969432016066,62.004283590749196,0.09374560477670422,0.1327741626997525,461.0,19.273799999999998,0.04180867678958785,26.25,0.7060530668809027,445.0,480.6,3.125,17.1875,408.0,895.0,5.818181818181818,85.9375,,,0.05052840558332551,0.09173624405442553,0.021720375812007985,0.16398502544975901,0.5508008977710912,0.3081281686833422,0.5594184213029333,-2.3888377318499874,43.84364938963253,43.68319153115081,1.0036732173831049,6016.874174640293,0.9963402257632399,4.486341039547053,174.0932836488226,0.546875,0.5519999999999999,0.7971014492753623,0.13793103448275862,49.939589206604914,50.02222298540485,49.845733179085435,50.4,0.48433664801170917,0.5156633519882908,30.512682765102934,31.483996942765437,0.5193468658759988,0.4806531341240013,31.480608495136956,30.285186331325708,0.5017775736862817,0.49822242631371844,31.000423551525056,30.890407690860773,0.6488412055489157,1.976482230913036,1.3780633146010157,0.7979834698636314,0.7542713231759777,1.3738426807002808,-0.7934910497370959,0.006909502737221892,0.44535714814443356,0.9336720190177807,1.057416532229842,5.79755153907629,0.6687065797986319,1.3170229188687306,1.2324196297529553,1.351828030019126,0.9018282630835444,1.8135416382933922,1.5546125868792977,0.8203125,Relax,,,,,,,,,
129.68969233532857,463.25,43.67416937809054,,,,,,,61.678043924578255,61.92176484790921,0.09427775364941293,0.13314202682046034,458.0,20.7564,0.04531965065502183,28.0,0.7080991321887026,443.4,478.8,3.125,15.625,408.0,895.0,6.4,85.9375,,,0.05769145319014616,0.12867495858093508,0.040424066855877495,0.22679047862695872,0.44835027596965493,0.254382166038995,0.5673737246817531,-2.050465755332354,43.785299826995384,43.84365509099957,0.9986690146183509,6030.939241900763,1.0013327592647476,4.487355063198098,175.60835251409,0.546875,0.5447154471544715,0.7910447761194029,0.17857142857142858,50.676506765067664,50.85186610240338,50.463494007451914,47.96747967479675,0.4843034290906609,0.5156965709093393,30.47129797038518,31.443385758160773,0.5253645511676899,0.47463544883231,31.778773772930318,30.20555626416188,0.5048611519973301,0.4951388480026702,31.131900540370836,30.830683881191774,0.6182462588521004,2.129727902695573,1.3558859144663753,0.9303069236582899,0.22855021488417293,0.6979097863011824,-0.6998278701562931,0.0070972695636363,0.45230278540425783,0.8676569632989497,0.9382696385929301,5.790295391471443,0.6463627922758856,1.1295353216379722,1.2001563531754045,1.399457545622148,0.8638999288903538,1.8011624676086353,1.5479884850014005,0.765625,Relax,,,,,,,,,
129.80398402246425,462.7109375,44.59902762679816,,,,,,,62.17089731088771,62.41525688454309,0.09638637000405499,0.13436228165859535,457.0,22.9803,0.05028512035010941,31.75,0.717361813257724,441.0,481.6,3.90625,17.1875,408.0,895.0,6.7368421052631575,101.5625,,,0.0605903388076113,0.13256365367549822,0.0422519295601432,0.23540592204325272,0.45706599907037887,0.257386637862401,0.563127947355298,-2.0206923438153455,44.13425139256076,45.22883531616741,0.9757989805407308,6271.061235226292,1.0248012346209445,4.504311151526654,185.40226508990298,0.53125,0.532258064516129,0.7878787878787878,0.14285714285714285,48.79589419660482,48.70277256128456,48.907660092846555,50.806451612903224,0.4786109928435086,0.5213890071564915,30.533744018864176,31.869089866026748,0.512128058247353,0.4878719417526468,32.367167077091786,31.591360202761425,0.4957795054496453,0.5042204945503546,31.463812772818063,31.730528898440276,0.9172077793333354,1.5390313699126246,1.417390977132845,0.7911970107969837,0.9284035296693993,1.705721652016861,-0.9068753753676978,0.005014387336714025,0.28448896414692587,0.904039447260232,0.9596868164379166,5.935328664259099,0.6503445543016177,1.0711937085200827,1.1957749590738185,1.379862806710922,0.920451604878392,1.7701582286631867,1.601055666027578,0.765625,Relax,,,,,,,,,
130.57348826757416,460.06201550387595,44.65628314169248,,,,,,,62.04767572198011,62.290565929670144,0.09706579034303311,0.13486806915372776,452.0,20.7564,0.0459212389380531,30.0,0.719709201385495,438.0,478.20000000000005,3.875968992248062,18.6046511627907,408.0,895.0,5.863636363636363,93.75,,,0.05365590536550017,0.09215556336165356,0.027756355826758786,0.1735678245539125,0.5822318632564151,0.30913509173374426,0.5309484266366938,-2.3842772238004097,44.04608157281748,45.50784866490908,0.9678787915716445,6297.1415639307625,1.0331872221068064,4.506113566602412,188.07251098461742,0.5503875968992248,0.5519999999999999,0.7971014492753623,0.13793103448275862,49.15982805783509,49.16252618086197,49.17747500332199,50.4,0.4787079257045105,0.5212920742954894,30.47536761871894,31.801983298723417,0.5080601420646749,0.4919398579353253,32.43723803660347,31.918488038517623,0.4938628005026629,0.506137199497337,31.4715938819385,31.86028892208352,0.9379295434701796,1.777605794915344,1.4859444698229272,0.8918325952090294,0.7027341016334923,1.5573430799088364,-0.8342202620588282,0.0051561823931803915,0.3276395467278003,0.8837939669903347,0.9109533192794341,5.885193294445106,0.6388347615440875,0.9485790232592571,1.1454753863613514,1.3432251756127251,0.8972949256968807,1.752379599266984,1.614075829317111,0.8152589831887505,Relax,3.174409810698836,4.66427254730937,3.174409810698836,2.850551990998234,-5.963422766437667,0.3363309479218213,-0.5694337254986145,0.03641023341312553,1.358590067289116
131.5315372758008,456.7596899224806,44.26143482088104,,,,,,,61.92895374943775,62.17228996322762,0.09690311075478861,0.13558322924675792,449.0,19.273799999999998,0.042926057906458794,26.0,0.7147131049550937,437.0,469.8,3.875968992248062,16.27906976744186,408.0,895.0,5.375,70.3125,,,0.06070011867061022,0.11986344945911674,0.03799640037012611,0.21855996849985307,0.5064105775740579,0.27772752296425696,0.5484236215892268,-2.1214021052979883,43.962447834894576,44.88807404738001,0.9793792397618035,6199.586313123189,1.021054928878431,4.499332820762955,183.33275701574934,0.5581395348837209,0.5599999999999999,0.8142857142857143,0.12903225806451613,49.98008761449622,50.07626881768745,49.87187479214204,48.0,0.47882787912121505,0.5211721208787851,30.420866750608337,31.73748125695284,0.5158448453549126,0.48415515464508746,32.2396649444951,31.23368687730868,0.49772195527881524,0.5022780447211846,31.343461276569105,31.486591689838367,0.6004425505204256,2.2799801159756132,1.3029031046254738,1.0141556962406897,-0.5090893467830089,-0.1007349256329862,-0.6266447046452542,0.0069356606775170014,0.43167331756518684,0.8817892238372926,0.8960219765397033,5.806396418194093,0.639523662319949,0.9611569436510484,1.1130202888606073,1.269139302840867,0.8244912780782243,1.7740397353010229,1.5520772786640231,0.8152589831887505,Relax,0.0946905350971489,1.3849386035949809,0.10775240574104616,0.09641668225621591,1.0,1.3066048174482003,-0.5081850007324551,0.014648694361324925,0.4990206551140125
131.31492866960164,457.4651162790698,44.16376599367615,,,,,,,61.87891401761993,62.12176891580234,0.09654018289502692,0.13526477061449121,450.0,19.273799999999998,0.04283066666666666,26.0,0.7137126870245426,437.0,469.8,3.875968992248062,15.503875968992247,408.0,895.0,5.863636363636363,85.9375,,,0.060908821747797624,0.14157403148970335,0.047390084212119855,0.24987293744962083,0.43022594685542676,0.24375917764234875,0.5665840924379711,-1.9549325079754483,43.926724059667514,44.67571254427379,0.9832349963335442,6165.242684194318,1.01705086142069,4.496920286486734,181.74988771094715,0.5813953488372093,0.5806451612903225,0.8333333333333334,0.16666666666666666,49.51377633711506,49.56468321605069,49.47162913360829,47.58064516129033,0.47822946591799437,0.5217705340820058,30.377286375827833,31.730037434433495,0.5156913031584127,0.48430869684158717,32.0823661900024,31.09085188587108,0.49727695442195696,0.5027230455780429,31.241460816585263,31.412070503070346,0.8283147064320204,2.3602533957972236,1.3800653764113722,1.1369632976784163,-0.8350439963202803,-0.10447956366218936,-0.602998296354889,0.004394631113673234,0.3616601980171323,0.8521963131494688,0.8714283278168949,5.847830355930111,0.6104417266655642,1.2346380750856047,1.167018907445856,1.2895369210916319,0.841227181688184,1.7760973235501645,1.5871743900820814,0.8152589831887505,Relax,0.0984494422161091,1.0432549560956133,0.24782021966726653,0.08744827594554849,1.1076619132859966,1.1130786394492116,-0.6537226761154443,0.007605613130079972,0.2555655590967244
131.830289203062,455.6307692307692,43.24441774461027,,,,,,,61.61244211403906,61.852576980023784,0.09491110053348419,0.13522449815682533,449.5,17.049899999999997,0.03793081201334816,23.75,0.7018780015985855,437.0,466.0,3.8461538461538463,14.615384615384617,408.0,895.0,5.2,70.3125,,,0.053960824239580096,0.07679369527494358,0.024296553531562442,0.1550510730460861,0.7026725832945632,0.34801967622333857,0.4952799988176674,-2.566632734972479,43.73637661643776,42.88873460713839,1.019763744886945,5892.992743232533,0.9806192905111213,4.477306016257007,168.23008200548728,0.5846153846153846,0.5873015873015873,0.8378378378378378,0.21428571428571427,49.75669099756691,49.84182498498713,49.671387595559764,46.82539682539682,0.4781354146245834,0.5218645853754166,30.242573985195108,31.595280007463135,0.5110012375253831,0.48899876247461693,30.658733398121385,29.991425818464627,0.4942467402619608,0.505753259738039,30.4513646231748,30.80379312174449,0.75270668015036,2.350035594316961,1.2872842992655786,1.0865633970787587,-0.967154128474629,-0.3011908042389033,-0.5854118561745273,0.004764794154802679,0.35317477666583885,0.8390638153449861,0.8778468597588676,5.6736037748480275,0.5972158954653334,1.1345797140577443,1.143537684331476,1.2139642648634026,0.7938011179748584,1.782442220911764,1.5968254697989537,0.9183096370883364,Relax,0.46169639894967035,7.0107383784486865,1.4906390730840684,3.609134441846624,-8.776081261227546,-9.060218968572766,-0.19782136282892804,0.01711027479754555,3.493100510088904
131.4780232648368,456.83720930232556,43.43382011349178,,,,,,,61.77656311255912,62.01928318047922,0.0950750491183133,0.13522664497251283,451.0,19.273799999999998,0.042735698447893565,26.0,0.7030792573286053,437.6,469.4,3.875968992248062,13.953488372093023,408.0,895.0,5.863636363636363,85.9375,,,0.051162384180157935,0.021228782788475002,0.0027817385650149955,0.07517290553364793,2.410047937742984,0.6805960713765052,0.28239939161288435,-3.852397339414897,43.85425570124564,43.33271612093249,1.0120357002053055,5970.043958671217,0.9881074351400213,4.48294763890323,171.26951593562103,0.5891472868217055,0.5887096774193549,0.863013698630137,0.2413793103448276,50.12520868113523,50.24502485457722,49.988419072571865,46.774193548387096,0.47873660162295395,0.521263398377046,30.34311659024908,31.662156053943196,0.5165400121889829,0.48345998781101723,31.14353425341371,30.129795230365733,0.497412175141639,0.5025878248583612,30.74593022013647,30.90547432582148,0.24687208720653292,1.9238302823642979,1.109088142391348,0.5874684439592448,0.643529272785031,0.886166841643905,-0.7711360265059644,0.011671926635658485,0.5262115751110952,0.840700943633208,0.8720126658558814,5.7192250034821805,0.5610613892864947,1.3558503452094235,1.176826772608453,1.312845136412915,0.8364129862354869,1.8474661146511242,1.5469162461608232,0.8152589831887505,Relax,0.8108631554155014,1.3838237134544071,-0.01445551259466793,0.6774563441325356,1.0,-3.014899631610092,0.0,0.012602550378569237,0.5011121296521136
131.37943084259402,456.88461538461536,21.568220454452298,,,,,,,16.201253659980722,16.256788981360867,0.047207149744571075,0.03546027402639101,454.0,22.238999999999997,0.04898458149779735,32.0,1.331268610880941,438.0,477.2,1.5384615384615385,10.76923076923077,408.0,527.0,5.909090909090909,93.75,,,0.03570145451496458,0.014493203241693068,0.0027829110281580244,0.052977568784815667,2.463323940166729,0.6738975633249004,0.27357244913524764,-4.234075481401662,11.495285729039015,27.685799836683405,0.41520511586621667,999.8312762924924,2.4084481664291686,3.7068968280042784,266.7192554111405,0.5769230769230769,0.5725806451612904,0.8450704225352113,0.2,52.305475504322764,52.1481874663144,52.47514002962755,43.54838709677419,0.403603071470762,0.596396928529238,7.306354255030343,8.881599658845246,0.5834618498265459,0.41653815017345425,21.14770808759975,17.86835065803689,0.5569932799393211,0.443006720060679,15.82100454867408,14.10958482271125,1.2000435161998546,0.801100101010606,1.3158767093994688,1.2480501534371742,0.4803276444343698,0.4234886890762235,-0.5846667674573126,3.0301408364048397e-05,0.028322400017249158,0.8055424417821095,1.4000876832522264,5.746879062812108,0.8918716098647362,1.5867660228407698,1.1901278780954259,1.6905758156457238,1.8077493637991455,1.656676655572087,2.725521211405023,0.6482185673564728,Relax,1.0604205411731895,1.5102253354780228,-0.44980479430483333,0.3053078734341781,0.9381657272523416,-2.218239773764094,0.0,0.005131531480780319,0.30985965007062716
130.76807371351364,458.84496124031006,20.593707174615222,,,,,,,14.949393800418799,15.006953768747435,0.044881624326761904,0.03258049028152971,458.0,22.238999999999997,0.04855676855895196,30.0,1.377561354630868,440.0,479.8,0.7751937984496124,9.30232558139535,419.0,512.0,6.7894736842105265,85.9375,,,0.01962687418676999,0.00808853940127579,0.001390384391284608,0.029105797979330387,2.426504120592437,0.6743286750189121,0.27790131048871786,-4.817307107935352,10.611518774834327,27.20177412868564,0.3901039220689634,906.8274326505959,2.5634194978004294,3.664494759559821,278.9182327049442,0.5503875968992248,0.5409836065573771,0.8181818181818182,0.1875,50.947867298578196,50.97225246756669,50.92175147455449,43.44262295081967,0.37911626931412984,0.6208837306858701,6.534282699248693,8.362128727207786,0.5509820169053128,0.4490179830946871,20.19137721476027,18.22758354580473,0.5282787409251564,0.4717212590748435,15.006474672994337,14.180444259078858,1.184421190615852,1.4007713934937298,1.3802050867767197,1.5820015722077332,-0.2848726308197058,-0.5007342510719903,-0.35593903018842826,0.0006214008052950614,0.12077883695170373,0.8411990814957759,1.469471867598798,5.7715884724912,0.9270549044523476,1.099959187326825,1.2066626305210784,1.6777633382039794,1.8807010409085727,1.6560976519157102,2.536206612937425,0.7065577854302504,Relax,0.9172509653276919,1.623594872758775,1.3798979842652028,1.63639284534367,-1.48567247784327,-2.3003613651164514,-0.34202040460830163,0.0018123841102454582,0.17238286133733
130.66930943134355,459.2170542635659,20.409082399261486,,,,,,,13.87922233051982,13.932960888274007,0.0444432152721135,0.030223664826162778,458.0,23.7216,0.05179388646288209,32.0,1.4704773735328658,440.0,479.4,0.7751937984496124,6.976744186046512,419.0,501.0,7.166666666666667,78.125,,,0.027398134571799966,0.010090319849940802,0.000961316858841098,0.03844977128058187,2.715289007608684,0.7125695071595064,0.2624286052655058,-4.596178745422235,9.852091126105494,27.186472738308428,0.36238945820370894,841.4555074816171,2.759462168013378,3.632001267271774,300.0801720123567,0.5348837209302325,0.5245901639344263,0.765625,0.1935483870967742,50.7910074937552,50.78884791062895,50.79223892696917,43.44262295081967,0.3682524232469482,0.6317475767530519,5.978965754715692,7.8311411463172655,0.5644580356590344,0.43554196434096576,20.425311779685693,17.941876675906016,0.5416798758950198,0.45832012410498046,15.04894336479193,13.842646248224426,1.2104465255283163,0.7190667744642121,1.4289363023891175,1.17524058374568,0.9306121714035376,0.9474539384161327,-0.8528124614469499,0.00021370576625398007,0.035647810301441665,0.7933805644103238,1.4014845266138658,5.808448065531226,0.9123543701790978,1.0960011057382872,1.2190289501570182,1.7169102058899497,1.9385219427916274,1.6512963174580797,3.2372981333499258,0.7065577854302504,Relax,1.2042113468999607,1.1025653283181658,1.7534837888479773,1.7554940110590436,0.03618636902751504,-0.9340581288469916,-0.49817677723084886,0.0027847808857615736,0.16592109869340882
130.12271898178778,460.984375,21.176046627909603,,,,,,,13.336646569969659,13.38188105826,0.0459365821843953,0.028930799595907473,459.5,24.462899999999998,0.05323808487486398,32.25,1.5878089380873335,441.8,482.0,0.78125,6.25,419.0,506.0,7.111111111111111,78.125,,,0.0212875887910563,0.011095056752463436,0.000734694414994534,0.03311733995851427,1.9186552413379783,0.6427928335344273,0.3350225823197785,-4.501255607472002,9.462418841327457,28.23246895795809,0.3351608694024692,839.2684544228246,2.983641860646853,3.630871009558198,336.9423048495064,0.5,0.487603305785124,0.711864406779661,0.16666666666666666,52.44635193133048,52.374538759994415,52.51960693378951,42.97520661157025,0.39749435565983443,0.6025056443401656,5.969166807934955,7.349009219475541,0.571712106570495,0.4282878934295051,21.34703458800063,18.476374583796787,0.5541001876604066,0.4458998123395934,15.673653659600998,14.060305015694153,1.2589902899806316,1.2921298468444626,1.3919639152447307,1.7076739314444789,-0.4029871976710524,-0.8498631180815837,-0.25566695795260036,0.00101564892331637,0.11925959566244895,0.8069035931829762,1.406913648322626,5.8211417735188995,0.9128955512110963,1.0513881895704977,1.0404541680050123,1.5831640934909335,1.9246000056006123,1.664379932253431,2.651788857827227,0.6015625,Relax,,,,,,,,,
129.38254698683602,463.828125,20.593213993896757,,,,,,,14.719423131455752,14.775552794394951,0.04439837276770734,0.03173464983706142,463.5,21.4977,0.046381229773462776,30.25,1.399050343888041,445.4,482.6,0.78125,8.59375,419.0,508.0,7.111111111111111,85.9375,,,0.007063640464142628,0.00434352018820666,0.0002787666311313768,0.011685927283480665,1.6262478722492235,0.6044569928248532,0.3716881068006217,-5.439070156362896,10.44789357669651,27.223059859730757,0.38378836290006385,893.5431935729467,2.6056027140676847,3.6580856609578825,283.729914622966,0.515625,0.5081967213114754,0.7419354838709677,0.2,51.230769230769226,51.2632317382944,51.1969028061467,43.44262295081967,0.3795609827009739,0.6204390172990262,6.437735971942655,8.230797758785704,0.5374224788872202,0.46257752111277967,19.95698137519375,18.515233795895043,0.5171504965188471,0.48284950348115263,14.827770399730948,14.327594254840651,1.236013067442035,1.0883860907216913,1.3707343317968026,1.402041628336005,-0.03475855074994172,-0.03415044028863967,-0.47123511885525554,6.177869827011854e-05,0.05030644112818764,0.7731104419354788,1.442806571383233,5.816733500731241,0.9728369315063955,1.5423311941317184,1.0534673947999023,1.6711314952064256,1.9181543303517743,1.6792309844777644,2.5992000661013765,0.7109375,Relax,,,,,,,,,
128.40573494464945,467.2283464566929,23.396237988317676,,,,,,,15.332815726253221,15.387556300104604,0.05007452601227451,0.03281653573147324,466.0,23.7216,0.05090472103004291,29.0,1.525893117482529,449.0,485.8,0.7874015748031495,10.236220472440944,419.0,550.0,7.055555555555555,101.5625,,,0.005985675408594468,0.004186632657262663,0.00021926491512177623,0.010391572980978906,1.4297111541923695,0.5760124496600135,0.4028872880868007,-5.475858529908476,10.880645405693746,30.399246022395992,0.3579248445069218,1039.1239195730025,2.793882613478823,3.7236374519151654,339.7276996993497,0.5354330708661418,0.5289256198347108,0.765625,0.20689655172413793,52.09895052473762,51.88889311571469,52.3335003340445,43.80165289256198,0.4253257713861319,0.5746742286138682,7.099014016044763,8.251787685101938,0.6520172575524906,0.3479827424475092,24.546657194833376,17.932534101166336,0.6262545823192129,0.3737454176807872,18.06840307609758,13.958291071787647,1.2394641404784768,1.195574336113041,1.3554543499903116,1.6707126358505504,-0.46872978680196553,-1.012031278403752,-0.2363122673867505,0.0007130030096627924,0.09686270312224445,0.743958116606465,1.4527841023887236,5.8852282656113974,0.917408357230075,1.4485022850042693,1.1125306399431865,1.6748493650754954,1.7675423785873337,1.7054266919438912,2.4702221363042987,0.8254351992250589,Relax,,,,,,,,,
127.7532409318067,469.6825396825397,20.945892501834642,,,,,,,12.97443640394449,13.025657063483742,0.04459585088258136,0.027623842292953796,468.5,20.0151,0.042721664887940235,27.75,1.6143970997820507,453.0,486.0,0.0,7.936507936507936,425.0,529.0,7.0,70.3125,,,0.03825147537733516,0.031006602161275147,0.0012928844261994674,0.07055096196480978,1.2336558252457699,0.5421821944315185,0.43949226626762333,-3.4735551242281493,9.210530438999804,28.01253521251259,0.32880031632715845,810.5632889436147,3.041359604426273,3.6157570402701884,340.7847720516173,0.5079365079365079,0.5041322314049587,0.7377049180327869,0.16666666666666666,50.819672131147556,50.87395020344292,50.76750924395387,44.62809917355372,0.4758102841935175,0.5241897158064823,6.353815211503674,6.669018402404728,0.6711954381210443,0.3288045618789558,22.949694753750485,16.062802985218223,0.6521306103988068,0.3478693896011933,16.838341026245104,12.298159337753523,1.3207903055683625,1.0243606392332394,1.462617971742291,1.722194475087885,-0.023238659805262074,-0.7814655334531802,-0.24659656628363436,0.0007382819579260774,0.0868993209210177,0.8155774944774072,1.4575573811413811,5.8093551973406194,0.9808889347916794,1.1228507741679046,1.1214130405900136,1.6700990021349134,1.795550393613889,1.6702833461138127,2.0931919639824863,0.7752533248333241,Relax,,,,,,,,,
127.11413803135466,472.144,19.33061419513851,,,,,,,12.286893095306228,12.333294348574986,0.040942200250640715,0.02602361376043374,472.0,17.7912,0.03769322033898305,24.0,1.5732711308868703,456.0,486.0,0.0,7.199999999999999,425.0,529.0,5.681818181818182,70.3125,,,0.05827670443232101,0.026869246200350028,0.0022353726239472925,0.08738132325661833,2.1688998640967396,0.6669240320517472,0.30749415548951337,-3.6167729103265853,8.720956068247096,25.654104882040116,0.3399438845497373,702.8632516845408,2.9416619784895404,3.553840947334712,301.86281969472117,0.52,0.5166666666666666,0.7419354838709677,0.16129032258064516,51.546391752577314,51.64999931677542,51.44791910566385,45.0,0.4807692307692309,0.5192307692307694,6.048583789091339,6.285872661926204,0.6762533290701559,0.32374667092984405,21.096556544126077,14.596862651926479,0.6559928524439417,0.3440071475560582,15.518538331189044,11.237895585943956,1.347679319905912,0.4351357341640636,1.4152059683236196,1.3065924624196272,0.8740735125503853,0.565407147250534,-0.7496083345410577,2.026336653605358e-05,0.00948461808011362,0.71250532468986,1.7397031072720017,5.696644613050604,1.0090790926844215,1.1025291731928473,1.2331440881289955,1.6348997246013794,1.7644490265157033,1.6561997609097319,2.0042293807778524,0.7801678398821538,Relax,,,,,,,,,
126.5705158455042,474.104,17.18580809854457,,,,,,,12.841465095792287,12.89351982184368,0.03624902573811773,0.02708575564811157,473.0,16.3086,0.034479069767441854,21.0,1.3383058685551212,459.8,486.2,0.0,8.799999999999999,437.0,529.0,5.0,70.3125,,,0.036629530062898215,0.08463791300909138,0.0020504155971416333,0.12331785866913121,0.43277922104439953,0.2970334585615642,0.6863394639066811,-2.4693729684411316,9.117095299388833,22.562333157815463,0.40408477419502703,646.234850078116,2.474728234915778,3.5173604848574485,223.34257164488957,0.544,0.5416666666666666,0.7538461538461538,0.20689655172413793,50.16528925619834,50.17234990879346,50.15833364857368,45.83333333333333,0.4645442097026605,0.5354557902973396,6.214002022707378,6.671441379589632,0.6495955638149132,0.3504044361850867,18.18467455195055,13.35576613167141,0.6236206776264263,0.3763793223735738,13.588528428394469,10.556623964251116,1.273022380464069,1.515683053967594,1.3994019680581968,1.8717615318780103,-0.959709062278705,-1.4912142910690669,-0.18835201885821656,0.0016987255197240363,0.17715437866049732,0.7896655828404331,1.7458497679239768,5.59148263682879,1.1185878835365504,1.5637749804536702,1.2852173524728108,1.6961745963317374,1.8326410221526306,1.6833268027947375,2.4288602466845397,0.7801678398821538,Relax,,,,,,,,,
126.79084371648692,473.312,18.31376003041464,,,,,,,13.055094173194146,13.108056233148456,0.03869278621800132,0.027582428024630994,473.0,16.3086,0.034479069767441854,22.0,1.402805662483695,457.8,486.2,0.0,8.799999999999999,430.0,529.0,5.434782608695652,70.3125,,,0.05789585636154246,0.041798225071909466,0.00360951376851421,0.10330359520196614,1.3851271498236757,0.5604437701161493,0.40461539591328705,-3.1749014027474898,9.268795450633865,24.19541368803753,0.38308067678199925,704.5409208195266,2.6104161880477013,3.5548763326307316,252.64039827105637,0.536,0.5371900826446281,0.7692307692307693,0.16129032258064516,50.000000000000014,50.0022854741199,49.997867722923175,46.28099173553719,0.46313996403898944,0.5368600359610108,6.307821960564428,6.791314395572642,0.6404092570715275,0.3595907429284725,19.362518801454836,14.508994079486765,0.617723934916886,0.38227606508311407,14.399579025493608,11.327684238583238,1.2643802801859416,1.4963229056812866,1.2871120741142539,1.9921516613786117,-1.154550538386431,-2.1137703950904845,-0.02881855608342225,0.0025574870671955696,0.21915240826372515,0.7023414976071249,1.7623455840217614,5.683560836863406,1.0983706363114196,1.4258025322961374,1.3257155101504154,1.7097830656229547,1.787314025624602,1.685347398885402,2.4287771132827816,0.8916203884367472,Relax,,,,,,,,,
126.97655612505115,472.568,18.466332049295517,,,,,,,13.08779288423549,13.13968010592824,0.03907656051466777,0.027695046817041127,471.0,17.7912,0.03777324840764331,24.0,1.4109584566805442,457.8,486.2,0.0,8.799999999999999,430.0,529.0,5.681818181818182,70.3125,,,0.057839095905532656,0.027484781172344524,0.003793979372885111,0.0891178564507623,2.104404453608347,0.6490180330749855,0.3084093611197874,-3.59412283941325,9.291156905523831,24.478692758412688,0.3795609919704843,714.5093040848944,2.6346226855623844,3.5609779983531893,257.9684770169029,0.528,0.5289256198347108,0.75,0.12903225806451613,49.11575562700964,49.116479995134625,49.116239815978204,44.62809917355372,0.4485404896421846,0.5514595103578156,6.223153724312358,6.900276888517691,0.6651385961883941,0.334861403811606,19.963849908394277,14.165136638799906,0.6378591041018998,0.3621408958981001,14.786530110903588,11.141474703424203,1.247925407222041,0.9362638270850661,1.4127836396430302,1.716057320764574,-0.7587813123670042,-1.7776358558315173,-0.17608095886204816,0.0008235638635239375,0.08058289271832426,0.6952608067994497,1.5599578551707305,5.676516160693516,1.1064396085184243,1.1498495360398369,1.5404066092300237,1.7258270688582424,1.7308385993470623,1.7017696746298974,2.9294823224641515,0.9473466627140439,Relax,,,,,,,,,
127.41660787271603,470.91269841269843,18.75356812610116,,,,,,,13.041165592078034,13.092105476448456,0.0398238743387334,0.027693382735347303,468.0,17.049899999999997,0.03643141025641025,24.0,1.4380285254174807,456.0,486.0,0.0,8.73015873015873,430.0,529.0,4.666666666666667,70.3125,,,0.05215999437401356,0.029246686751160593,0.002832136474727056,0.08423881759990122,1.783449688431586,0.619191910097213,0.34718776431632736,-3.53198898518479,9.257516562406238,24.914140304188184,0.37157680134160626,724.5865633308123,2.6912336733332762,3.5670603862164927,268.199093315124,0.5555555555555556,0.5609756097560976,0.7681159420289855,0.1935483870967742,48.99759422614273,49.00479728440176,48.991690575556454,45.52845528455284,0.45312573498283076,0.5468742650171692,6.232394558713679,6.846826436975347,0.6623383678722738,0.3376616321277261,20.27616714432282,14.477272983274785,0.6369516746964466,0.3630483253035533,14.999428255770287,11.324099639492813,1.2422275038130024,0.8646104616367281,1.3054892769365325,1.6745327346313665,-0.4374308368976987,-1.44197990381573,-0.07316794779902855,0.0006353922315353184,0.06647276703047124,0.733908837554357,1.603538190306912,5.640284015524694,1.0947825257259345,1.415959093220862,1.3490691213335784,1.5528275322550151,1.6440555738376856,1.7082374414059154,2.7987474776707124,0.8306285623214186,Relax,,,,,,,,,
128.17666427655067,468.1653543307087,18.972312231804334,,,,,,,12.828848938208179,12.878758197062817,0.040524810424998746,0.02740238853545316,466.0,16.3086,0.0349969957081545,21.5,1.4788787617023902,455.0,481.6,0.0,7.874015748031496,430.0,529.0,4.096774193548387,54.6875,,,0.02290224846985748,0.01284876009043408,0.0019163112868538054,0.037667319847145365,1.782448135747218,0.6080137520480671,0.34111160928291606,-4.354507963313269,9.106657254404952,25.308191157855184,0.35983042792761655,724.0523546619445,2.7790868208654103,3.56674008019032,281.33464202695137,0.5590551181102362,0.5609756097560976,0.7681159420289855,0.16129032258064516,50.94494658997534,50.94420360391033,50.94472347369838,45.52845528455284,0.48030091141438,0.5196990885856199,6.3118935352238,6.565668282817827,0.645611188458251,0.35438881154174906,20.335114877407243,15.066109073187748,0.6266574131819184,0.37334258681808163,15.055844331643266,11.621007757617026,1.2405169532883658,1.8809499705230481,1.351846794907929,2.18099193854989,-1.271691506440554,-2.271411837072769,-0.05918809291275565,0.006302963340134204,0.4247999449775032,0.7406823235551601,1.5250205706215174,5.580402451099401,1.0673249168143004,1.1529379198128078,1.3727705224829712,1.8320275650346398,1.6027224637573965,1.7013248089739135,2.441785919036473,0.9354932257884001,Relax,,,,,,,,,
128.5018714253255,466.9527559055118,19.416429905655022,,,,,,,12.74972766593685,12.798392756235337,0.04158114425945041,0.027304106260627285,464.0,14.825999999999999,0.03195258620689655,21.5,1.5228897757188526,453.0,479.0,0.0,7.874015748031496,430.0,529.0,4.096774193548387,54.6875,,,0.028280985917617317,0.007746295336348725,0.0022847846892593933,0.038312065943225435,3.6509046827728846,0.7381743902698134,0.20218944464722793,-4.860540571021692,9.049830306222796,25.8708661294073,0.34980778227350856,735.53150093164,2.8587128436671474,3.573571387144752,295.8295091237201,0.5275590551181102,0.536,0.746268656716418,0.16666666666666666,48.749999999999986,48.69893024209509,48.80045320285887,45.6,0.4534225173322917,0.546577482667708,6.094915914104148,6.691786009728643,0.6468493362168476,0.35315066378315246,20.80714708013841,15.37414533140629,0.6257544938321296,0.37424550616787045,15.331101878444882,11.856313606496789,1.3526244185833762,0.8427994331269746,1.5171395617843881,1.6089846729774613,0.6024265229063452,0.054272034191402696,-0.3910237624955356,0.0012725767200127314,0.07422175395408155,0.7308488117417622,1.5718999931150355,5.66894664399575,1.0341779330856489,1.204835295589874,1.2637637225812772,1.6962427876086903,1.625311614582469,1.676940531463697,2.5181199588948235,0.9905222390700708,Relax,,,,,,,,,
128.90129295530528,465.5590551181102,19.372969855055118,,,,,,,13.360983235371304,13.413636747491367,0.041612271616412407,0.02869879360843209,460.0,13.343399999999999,0.029007391304347825,20.0,1.4499658830323157,453.0,478.0,0.0,10.236220472440944,429.0,529.0,3.4324324324324325,54.6875,,,0.022431039536176554,0.004214371318628841,0.0015920917848512397,0.028237502639656634,5.322511435341337,0.794370515779058,0.1492473103025122,-5.469254852003001,9.484873504524211,25.659868611176805,0.36963842832744803,764.6027298668206,2.7053464233273377,3.5904059542123914,277.67533508118635,0.5433070866141733,0.5519999999999999,0.7536231884057971,0.20689655172413793,50.67513899920573,50.64826723608912,50.70241245514592,44.800000000000004,0.4909971991286178,0.509002800871382,6.646502839839911,6.767274192760332,0.6596858402627853,0.34031415973721485,20.8412138292747,14.969056859578899,0.6394062611104241,0.3605937388895757,15.468228629638737,11.616123778294249,1.2824701768299112,1.4648356209156939,1.4434834505603362,1.8562032689605803,-0.3157303452750977,-0.8126826277690009,-0.21824837373749428,0.0032293235471467802,0.21510657551261944,0.7444555577473149,1.5421047923655133,5.558584341389424,1.0450583929233461,1.0827891386844193,1.248156851599879,1.4581597266157484,1.59109732666408,1.6910291976058425,2.966981306372995,0.9354932257884001,Relax,,,,,,,,,
129.08981048153203,464.79527559055117,18.456443182886826,,,,,,,12.89887407415672,12.95020990208022,0.039708758139670786,0.027751732325092808,460.0,11.8608,0.025784347826086955,18.5,1.4308569164082983,453.0,474.8,0.0,10.236220472440944,429.0,529.0,3.2564102564102564,54.6875,,,0.014521759236494243,0.00893457625805334,0.0016276396687337404,0.025083975163281327,1.625343924218543,0.5789257540707355,0.3561866171487859,-4.717826556447404,9.157181239550097,24.50702264107491,0.37365539558453886,705.0212943637707,2.6762627057361783,3.5551723445205896,262.3489228917637,0.5748031496062992,0.5772357723577236,0.7887323943661971,0.2,49.665551839464875,49.67517935726978,49.656413493658874,44.71544715447154,0.47004388475481773,0.5299561152451823,6.278216307200636,6.6663333249995835,0.6704176167168794,0.32958238328312073,20.066113338410908,14.069301838407142,0.6458686565726025,0.3541313434273975,14.867160194703496,11.008752295791894,1.2626314950445496,1.2806969790264175,1.4282097501001267,1.7473611752192848,-0.05958280067552657,-0.5854180228632897,-0.2507986429687871,0.0022364747895393944,0.15795942693797296,0.8037408384137636,1.5869650565820417,5.468742534033385,1.00841990101944,1.1567171895083577,1.4329364509524523,1.6137629393006347,1.5803878135138814,1.7002829860798654,2.876394275294528,0.8804642125067295,Relax,,,,,,,,,
127.99658252869786,469.6746031746032,57.83408398030758,,,,,,,81.25264303393459,81.57959738609537,0.12313649405226103,0.17299773605967925,461.5,12.6021,0.0273068255687974,20.0,0.7117809565425901,453.0,477.0,2.380952380952381,10.317460317460316,390.0,1076.0,3.5,93.75,,,0.0034468974415876636,0.004783097609606995,0.0008291003504257407,0.0090590954016204,0.7206412502777418,0.3804902464070659,0.5279884356611857,-5.342666906880461,57.68548651817639,58.44284663310511,0.9870410125693687,10591.264009912842,1.013129127630571,4.731917903853191,236.84060090258015,0.5317460317460317,0.5365853658536586,0.7272727272727273,0.16129032258064516,50.145047658516376,51.08070901946973,49.13390150718433,43.08943089430895,0.42008169655461564,0.5799183034453844,37.38811265284643,43.92887396396515,0.608460218810736,0.39153978118926414,45.58767631718027,36.56952406828184,0.5154994409479648,0.48450055905203493,41.689970015232284,40.41705121803532,0.39432355112412637,2.8763728189399265,1.3257911806079825,0.9541696151570136,0.13425070414891938,0.8678529375140248,-0.6291979826133693,0.007763753820105224,0.7625278446125304,0.6004472468960065,0.6218178594119743,5.53649376553424,0.43035123342874454,0.5719663657261135,0.7200146323752912,0.6804296431403937,0.5092978489417036,1.9682928861779438,1.4002351039963954,0.8860037998095133,Relax,,,,,,,,,
128.87088526242306,466.2834645669291,56.55632080344466,,,,,,,81.09606296591363,81.41957644554182,0.12129171437801804,0.1739200918077448,459.0,13.343399999999999,0.029070588235294115,17.5,0.6973990935566929,453.0,473.8,2.3622047244094486,11.023622047244094,389.0,1077.0,3.2564102564102564,93.75,,,0.03202880763664924,0.088302077733043,0.01930657550279311,0.13963746087248535,0.3627186183940033,0.22937116900097046,0.6323666814142302,-2.42699164126352,57.57233462597911,55.93665010882244,1.0292417317442948,10117.196096328564,0.9715890535309545,4.712030277740513,217.38974774769184,0.5826771653543307,0.5887096774193549,0.7808219178082192,0.23333333333333334,49.51456310679611,50.28742283474792,48.6771686528412,43.54838709677419,0.4180086116179609,0.5819913883820392,37.22268125753436,43.92111109705673,0.5955762005616113,0.4044237994383889,43.16831743459009,35.57253428227022,0.5042339123054963,0.49576608769450387,40.30528271910231,39.96541752104743,0.5218241223467134,2.155640413364157,1.2759284493584127,1.0383932611345439,0.38270536781146447,0.4951328899919891,-0.6101923988580099,0.005444663027498569,0.4721559773784912,0.623813932047343,0.6169709553421643,5.364322927671072,0.4261889117945059,0.49061204307268025,0.7125474590175004,0.6664274377017242,0.44009301210719187,1.8938842525647825,1.4237679666538205,0.8804642125067295,Relax,,,,,,,,,
129.7574450324493,463.125,56.721727148498054,,,,,,,80.75129505799462,81.07013987315317,0.12247606401834937,0.17436177070552145,458.0,13.343399999999999,0.029134061135371175,17.0,0.7024249841164922,449.4,471.6,2.34375,10.9375,389.0,1077.0,3.282051282051282,70.3125,,,0.008976093084915635,0.00784188421705074,0.0008035078070878258,0.0176214851090542,1.1446347378349153,0.5093834616869821,0.44501834939107693,-4.848276139687871,57.325245656048516,56.467150805667416,1.015196354661744,10169.314344082286,0.9850311177813407,4.7142617819976165,222.48760270413644,0.6015625,0.6016260162601627,0.7972972972972973,0.25,48.97792313982011,49.57116128355841,48.315517908695895,43.08943089430895,0.41760914243761305,0.582390857562387,37.04555325370396,43.74801582802229,0.5942117539095495,0.4057882460904506,43.52777760200682,35.97042809225684,0.5045777354845314,0.4954222645154686,40.41683089285194,40.04847429072117,0.5733025888139922,2.1434224333463385,1.3239273942778222,1.0789969720224124,0.376288395627153,0.4984944528186931,-0.6142707188489305,0.005439289213441379,0.4652802119834946,0.6286024299145587,0.6264382841808243,5.408542211697545,0.42024040608430424,0.5613842858192869,0.7375692904463347,0.6745711858606388,0.44723117002425167,1.8680543022631075,1.4106975462726834,0.9296875,Relax,,,,,,,,,
130.4137131015376,460.75,56.97271069362531,,,,,,,80.65606967118562,80.9754762044144,0.12365211219452048,0.17505386797869912,457.0,14.0847,0.030819912472647704,18.25,0.7063660667559011,444.0,469.0,2.34375,8.59375,389.0,1077.0,3.2,70.3125,,,0.01153150391930658,0.018288317545507488,0.0016120505963540758,0.031431872061168147,0.6305393533665586,0.36687295929639957,0.5818399079099527,-4.001492808480937,57.258308333951334,57.135652198570206,1.0021467530458013,10277.691433555392,0.9978578456306157,4.718865684712401,228.0530352462617,0.59375,0.5934959349593496,0.7945205479452054,0.2413793103448276,50.16680567139284,51.12555043821012,49.12274359079002,43.08943089430895,0.4183670505188905,0.5816329494811096,37.035429197904755,43.66798434943908,0.5889015846766725,0.4110984153233276,43.84585574366546,36.63364145511142,0.5034514403066711,0.49654855969332884,40.58375341049259,40.30456886882996,0.7901931625257138,2.651942252809544,1.424273410476669,1.3881494418749663,-0.6419396366457004,-0.19211402309981396,-0.5136217025704206,0.005201001375437011,0.5087824032201504,0.6296388094512828,0.6049179477825248,5.41859655918038,0.40630870853098594,0.6574027555955454,0.8007522692955146,0.7382762074593372,0.451437222397724,1.847991083379775,1.3861378705282432,0.9296875,Relax,,,,,,,,,
130.5801424751322,460.1875,57.044084347591365,,,,,,,80.65250629492888,80.97181188975526,0.12395835251411949,0.17526009788386013,455.5,14.0847,0.030921405049396267,19.0,0.7072822280189708,444.0,469.0,2.34375,9.375,389.0,1077.0,3.4594594594594597,85.9375,,,0.03766471680229152,0.12259893645840315,0.0299056039869504,0.19016925724764505,0.30721895222207624,0.1980589152390873,0.6446832586549494,-2.098836930408329,57.255717272207455,57.25823957519209,0.9999559486459355,10299.276644925214,1.0000440532946717,4.719776833681615,229.04304795716993,0.5625,0.5573770491803278,0.75,0.21428571428571427,50.35520267446719,51.379084497605696,49.24667429614522,42.62295081967213,0.4184137036942888,0.5815862963057111,37.03585778545924,43.66430382556704,0.58780846341969,0.4121915365803101,43.89912953273029,36.76101774323803,0.5031146980206164,0.49688530197938346,40.61273405987459,40.36052436533803,0.5068525223892845,3.1004328481438668,1.3758018173007742,1.4152120728991648,-0.9328625913245059,-0.6618636327087787,-0.48728878916955604,0.006635266918214065,0.7694871196965205,0.6231692547472889,0.6119927440337185,5.460556008531233,0.41527075398272306,0.5971371207943234,0.8284108248228309,0.7375648758833503,0.45718353455388044,1.861898966047568,1.3765482910001539,0.8203125,Relax,,,,,,,,,
130.22818590076128,461.3671875,57.03057214298918,,,,,,,80.66031622906786,80.97952311914676,0.12361211132508027,0.17482889640708976,457.0,16.3086,0.03568621444201313,19.25,0.7070462255693074,444.0,470.0,2.34375,10.15625,389.0,1077.0,3.5555555555555554,93.75,,,0.053366908134854535,0.15869345848684763,0.03819979388362354,0.2502601605053257,0.33628927520838886,0.2132457200822376,0.6341139483264678,-1.8407808716638543,57.26116993480147,57.20928967088228,1.0009068503422722,10291.451820639337,0.9990939712901733,4.719446755202023,228.6298256478867,0.53125,0.5245901639344263,0.71875,0.1724137931034483,50.52235687421648,51.56585240799699,49.37985050244932,44.26229508196721,0.4186473477894111,0.581352652210589,37.049784182050345,43.65975954096177,0.5885489327630996,0.4114510672369004,43.88921808922185,36.69658512945913,0.5035208845689435,0.49647911543105655,40.61372903600324,40.32873642539674,0.6882867298954569,2.290963295716407,1.4169353768494464,1.1550617758226454,0.0346780827005988,0.37240307480286405,-0.6143072006070314,0.0056128717786202015,0.46549782617997326,0.6140414258815108,0.6231732879778269,5.53368874602303,0.4200521683529294,0.6574748903998938,0.8778988101000142,0.7982129847432705,0.47081044472927364,1.856573321095508,1.3891612156613538,0.875,Relax,,,,,,,,,
129.6738291070805,463.40157480314963,57.6329738955053,,,,,,,80.96457191118783,81.2877846697026,0.12436939585280318,0.17471794726977594,458.0,17.7912,0.03884541484716157,21.0,0.7118295389584031,444.0,473.8,2.3622047244094486,10.236220472440944,389.0,1077.0,4.096774193548387,101.5625,,,0.05405020819528399,0.1696661382375719,0.041745669947920526,0.26546201638077643,0.3185680345927434,0.20360806767079942,0.6391352727246833,-1.7739226656179028,57.47914376757859,58.241058173275476,0.9869179161643994,10516.940570248873,1.0132554933103692,4.728859529750834,236.05228852112057,0.5196850393700787,0.5083333333333333,0.7049180327868853,0.13793103448275862,49.97900041999163,50.89566603240535,48.989556652489625,47.5,0.4185683862352187,0.581431613764781,37.18720209964713,43.82880331471531,0.5835437300549585,0.4164562699450414,44.49036416350579,37.584948499918106,0.5021422262841552,0.497857773715845,41.00171035091927,40.826415185156144,0.5442352190650783,3.3656632876504693,1.5276363879683388,1.6072375816028894,-1.1138738732688989,-0.8742153106940522,-0.47634903232102,0.008504389760578424,0.9431138614769486,0.634777904720943,0.637057713908902,5.688905800990225,0.4221316533219443,1.0316142457895245,0.9668932736046598,0.9135688310310983,0.5440404163790029,1.8173053193527682,1.3867496800633596,0.9354932257884001,Relax,,,,,,,,,
129.31927331704296,464.6692913385827,57.53867644975032,,,,,,,80.9541316337309,81.2767968997654,0.1238271551881499,0.1742188114056873,460.0,16.3086,0.03545347826086956,21.0,0.7107565146900527,445.2,474.0,2.3622047244094486,10.236220472440944,389.0,1077.0,5.291666666666667,109.375,,,0.03470137107893702,0.11144917714444852,0.027019996127804577,0.17317054435119011,0.311364982389783,0.20038841599159374,0.6435804516409525,-2.1941866023587755,57.47137424094587,58.01437260344567,0.990640278639029,10474.590529435114,1.009448153444588,4.727107164580301,234.2500051911781,0.5118110236220472,0.5041322314049587,0.7049180327868853,0.0967741935483871,50.753768844221106,51.8930295147906,49.52801713286639,45.45454545454545,0.4187998788979716,0.5812001211020283,37.19268745331534,43.8144268477861,0.5846486439078726,0.4153513560921272,44.35913545098892,37.38896268435707,0.5025035262070409,0.49749647379295914,40.933048371451534,40.72860500073778,0.9126905527729794,2.236248711665459,1.553236730414273,1.2236633482756973,-0.2707148771134591,0.334669531280712,-0.6473777851360387,0.005828748497609844,0.39967814545177155,0.6125148744898612,0.60736204529356,5.685227553672359,0.41827867298627697,0.9152860911777851,0.9339386070941009,0.8979744601643262,0.5372968581004077,1.823109234944704,1.3765760358121901,0.8804642125067295,Relax,,,,,,,,,
129.0579736900468,465.66141732283467,57.51510781131059,,,,,,,80.96339560919755,81.28594755455133,0.12351271905234186,0.17386751961257527,461.0,16.3086,0.035376572668112796,21.5,0.7103840862719053,448.2,475.0,2.3622047244094486,11.023622047244094,389.0,1077.0,5.08,109.375,,,0.05741681249592157,0.17268469081695484,0.04189324627228476,0.2719947495851612,0.3324950939442755,0.21109529718309672,0.6348824419601067,-1.7562879438679235,57.477844730997305,57.9410321477725,0.9920058825394431,10462.526594038856,1.0080585383627896,4.726606684870362,233.6318087124598,0.5275590551181102,0.5166666666666666,0.7258064516129032,0.1,50.85594989561587,51.98741002729022,49.62150408364854,44.166666666666664,0.41875247445634617,0.5812475255436539,37.194838351577765,43.82122773268681,0.5846171456198445,0.41538285438015554,44.3018641941379,37.34311228691803,0.5023497609588651,0.4976502390411348,40.90300215800692,40.711227169377786,0.5194185643624456,2.9940518567940546,1.3482110226396546,1.422014940233,-1.56080965752985,-1.3719505524769042,-0.47534981986839314,0.008269424665808113,0.6642402043063865,0.6035529780378657,0.6103194494390606,5.695339463240424,0.41925869624391954,0.993802965410279,0.9608902784484401,0.9193279117799074,0.5402263159122898,1.8445726123980903,1.3858772623104598,0.8804642125067295,Relax,,,,,,,,,
128.65892178518723,467.04761904761904,57.52075898565417,,,,,,,81.21999753755229,81.5468398944692,0.12315823192279135,0.173900891954384,463.5,15.5673,0.03358640776699029,20.75,0.7082093170349986,451.0,476.0,2.380952380952381,9.523809523809524,389.0,1077.0,5.04,101.5625,,,0.0541031412347752,0.16867727362128446,0.04167395193316893,0.26445436678922857,0.32074944106725367,0.20458403425758392,0.6378313040136754,-1.7797680132573768,57.66232347371285,57.83969783082628,0.9969333457164278,10477.74986170929,1.0030760875807283,4.727238136162278,232.07047122798707,0.5317460317460317,0.516949152542373,0.7213114754098361,0.0967741935483871,50.000000000000014,50.941624144184075,48.99770702569084,46.61016949152542,0.41820258893553863,0.5817974110644615,37.28940868396816,43.98230949355771,0.5819552890389249,0.41804471096107493,44.12358845407427,37.397053187340504,0.5003304104427088,0.4996695895572913,40.8496698766619,40.82268447495749,0.7748167758548061,2.679738835467375,1.4713250292105742,1.3258607263705664,-0.8668251948198407,-0.2993084127425282,-0.5542830147903712,0.005659105127826,0.5078258010218519,0.585185708186819,0.5716936236714861,5.698244086229507,0.4153561077554693,0.8490861672960873,0.9319235238496115,0.8698778859386253,0.5212685207675806,1.849471059170902,1.3853416500631637,0.9413790372976079,Relax,,,,,,,,,
128.46520583356516,467.72222222222223,57.46089298142018,,,,,,,81.16506637710586,81.49168728633732,0.1228526040700277,0.1735326279591288,465.0,16.3086,0.035072258064516124,21.0,0.7079510378818357,452.0,478.0,2.380952380952381,8.73015873015873,389.0,1077.0,4.666666666666667,101.5625,,,0.02508317292254127,0.08495474397207994,0.02108280556576209,0.1311207224603833,0.2952533519586,0.19129831236340142,0.6479124152000313,-2.4656365881376154,57.623324690502685,57.7378251375379,0.9980168901969816,10452.22152761788,1.0019870503420307,4.72617871568628,231.4102124109022,0.5238095238095238,0.5126050420168068,0.7213114754098361,0.1,49.97815640017476,50.94883790434602,48.96311908358905,44.537815126050425,0.41762733599604607,0.582372664003954,37.23855095756755,43.974286841582845,0.5831765836892261,0.41682341631077363,44.092067094264934,37.27661560506454,0.5005662733731269,0.4994337266268731,40.80943553925069,40.7632430885568,0.4526239939999718,3.2128547986128613,1.3396687083389545,1.4704656283735504,-1.9279557534014984,-1.7507842235357947,-0.4592895016322968,0.009507685086665938,0.7510091648720918,0.533978756215838,0.4887549396466804,5.649627443220993,0.38844214668047333,0.6182022981949237,0.8824322383923014,0.8312953185130899,0.4990807224610781,1.8464284109615847,1.3863771792879154,0.8860037998095133,Relax,,,,,,,,,
128.51385829973358,467.62204724409446,57.31629441353774,,,,,,,80.90519633281161,81.22798329295927,0.1225697007900467,0.17301407581105738,465.0,16.3086,0.035072258064516124,22.0,0.7084377396201035,450.2,477.6,2.3622047244094486,9.448818897637794,389.0,1077.0,4.535714285714286,101.5625,,,0.009771369604705765,0.008802286740187671,0.0015357349318860525,0.020109391276779486,1.1100944439918838,0.48591076031171876,0.4377201984404053,-4.732743734415409,57.436857808559076,57.63052762456469,0.9966394578708826,10399.037429497592,1.0033718734519066,4.723963251337052,231.29940188272533,0.5511811023622047,0.5416666666666666,0.7538461538461538,0.14285714285714285,50.47619047619049,51.56718296560744,49.32105454373905,45.0,0.418011717461734,0.581988282538266,37.13521240009272,43.817622025847086,0.5832170023968154,0.41678299760318444,44.01165337331763,37.205538319350424,0.5008922236539517,0.49910777634604836,40.71885087188157,40.64625494207709,0.16235229224886102,2.8590711160484927,1.1911039561091155,1.0669829387279948,-0.4374833915623473,-0.38767356847212164,-0.5434130570185564,0.014101554526828139,0.8254581800832095,0.5556128080429359,0.4953058121079539,5.668819262025853,0.4026374831212618,0.4455531598225083,0.8516597713861054,0.806675301795261,0.5171756792780894,1.9882167821470913,1.3773581507597177,0.8804642125067295,Relax,,,,,,,,,
129.91123253647376,461.84375,16.44242519997257,,,,,,,9.489322636231112,9.524686873724232,0.03560170555512025,0.020546608319872494,463.5,15.5673,0.03358640776699029,22.0,1.7327290714295946,446.0,475.0,0.0,4.6875,420.0,503.0,4.7407407407407405,70.3125,,,0.013763827329030875,0.01550644047571256,0.0005476712269363765,0.02981793903167981,0.8876200408848758,0.46159552859798986,0.5200372989976898,-4.166499826797105,6.734970677088902,22.28912625825271,0.302163960985022,471.6052447098286,3.3094615146694117,3.3805487361894913,295.0600221891791,0.5546875,0.5454545454545455,0.7575757575757576,0.13793103448275862,48.63731656184486,48.63361397447746,48.6420579142881,47.93388429752066,0.4015389996502274,0.5984610003497726,4.268749491621899,5.21140385680578,0.5107554354247482,0.4892445645752518,15.929404583371896,15.590356601937646,0.5016140246522852,0.4983859753477147,11.661221046763751,11.623638611345221,1.3060933661664318,1.3073334482362806,1.48639924542882,1.8094918770418125,-0.33699091851546736,-1.0306171264011397,-0.25286134379191794,0.001151550831767523,0.13567016676585297,0.7851634958461231,1.4381194289844765,5.556700590456678,1.0015266042720516,1.1155081412481243,1.1266474498886134,1.6639636329612273,1.75993653860507,1.7053008184440597,2.5037571717820977,0.8203125,Relax,,,,,,,,,
130.12381372633595,461.13178294573646,16.44848959866891,,,,,,,8.8644303257457,8.89904002608297,0.03566982413052297,0.019223203981124887,462.0,16.3086,0.0353,23.0,1.8555608193902997,446.0,474.4,0.0,3.10077519379845,420.0,503.0,5.16,70.3125,,,0.018921033726102487,0.03499956116455654,0.0023585569360501605,0.05627915182670919,0.5406077418268745,0.3361996958369736,0.6218921221898427,-3.3524197557268542,6.292571548493778,22.47438393084149,0.27998861138340314,444.2892760530934,3.571573840303981,3.3546359406296857,321.07568689736644,0.5038759689922481,0.5,0.7096774193548387,0.125,50.443458980044355,50.44997098823206,50.43639889122167,45.96774193548387,0.41350169019685834,0.5864983098031418,4.046481897652762,4.819171033364441,0.5152940896533279,0.484705910346672,16.133009006615275,15.646851231584474,0.5078939691012023,0.4921060308987975,11.76112229669348,11.576881335492635,1.2789966213224153,1.7110155839726346,1.5082897254056697,1.9593480118763034,-0.8771240536022624,-1.5215152956873461,-0.2363797906367593,0.0016899088095804525,0.225565575190297,0.8178824476348332,1.521213679019261,5.6352798761696965,0.9680162240430829,1.0416736799862842,1.259931508415361,1.873215929718414,1.763491191038372,1.7220153253926245,2.4514595952416753,0.7609083843095005,Relax,0.8359792937166612,7.665329540669593,1.142144042837797,4.651958948067582,-13.92937379747957,-14.896003565511819,-0.042118197709841675,0.027250684804978036,4.317275174658869
129.49129727425378,463.390625,13.990567336939872,,,,,,,8.746652903132375,8.779869830226444,0.030191735831815485,0.0188753341808164,463.5,14.0847,0.030387702265372168,19.0,1.5995338436180007,452.0,474.6,0.0,3.125,435.0,503.0,4.413793103448276,54.6875,,,0.027823013958701896,0.036084435984415984,0.0037257876147816647,0.06763323755789954,0.7710530371243158,0.41138077908636467,0.5335311052280289,-3.3218936427749823,6.208305494888299,18.725558581307457,0.33154180517133724,365.22267539016775,3.016210880203209,3.2695278434766015,225.92093412328848,0.5,0.49593495934959353,0.7049180327868853,0.09375,51.14155251141551,51.18160399751703,51.101882250066254,43.90243902439025,0.41313297653355285,0.5868670234664471,3.9910614413425693,4.756782959835789,0.5491719397324548,0.4508280602675451,13.876787914676017,12.573038668240818,0.5356955021518957,0.46430449784810435,10.210137468650208,9.505479616517595,1.3628265349393731,1.800091500796741,1.5581818783759922,1.9753849861395016,-1.135612532355994,-1.4594729159601574,-0.2682322773154306,0.0012684230261168882,0.20601854874609443,0.7522009843606661,1.6670077642555783,5.453424958043603,1.0591810145897471,1.3114106969248047,1.1762021089190973,1.4733275734905238,1.7883531680824862,1.7561146282064273,2.159490565873194,0.875,Relax,,,,,,,,,
129.94119193515954,461.8359375,15.908585976622515,,,,,,,8.533860301970224,8.567362490142186,0.03444640116734639,0.018478120927889516,462.0,14.825999999999999,0.03209090909090909,21.0,1.8641722987836675,449.4,474.0,0.0,2.34375,415.0,503.0,4.7407407407407405,70.3125,,,0.011361120310362344,0.020456610257307824,0.002845341617821456,0.034663072185491625,0.55537648552031,0.3277586086301257,0.5901557181036603,-3.889449208757956,6.0580401136628055,21.628244609292498,0.28009855737714334,411.62646564974165,3.570171904361269,3.3214734000466795,308.8662049789966,0.5234375,0.5203252032520326,0.734375,0.125,49.46996466431095,49.45107643919193,49.48851390582337,47.96747967479675,0.41690993620931993,0.5830900637906802,3.9117243386500666,4.626099182982748,0.4472472588502909,0.5527527411497093,14.464223252032975,16.080025205040528,0.4450401454106818,0.5549598545893183,10.595172051133446,11.831483513184903,1.4047949736947798,1.3326488376606829,1.6515608379923141,1.8411469806300813,-0.10605137929421637,-0.6180731982707304,-0.35773735940027185,0.0007434742279874743,0.13077589465612954,0.8224538147340894,1.4708517491479538,5.581272832860791,0.9532702979732268,1.3531158464385262,1.3069375675499257,1.888714477403125,1.6997240560709905,1.694046727032721,2.2985891032886063,0.875,Relax,,,,,,,,,
130.2233026622223,460.9453125,16.650794402438684,,,,,,,9.226374382820616,9.262506450566264,0.03612314509096713,0.020016201776258687,462.0,16.3086,0.0353,23.0,1.8046952910822953,446.0,474.0,0.0,3.90625,415.0,503.0,5.12,70.3125,,,0.005178091905606954,0.03079339578831268,0.0027576265843910442,0.038729114278310675,0.1681559234714947,0.1337002408161661,0.7950968247564028,-3.4804550344517704,6.549581121979544,22.43807738166144,0.2918958255903196,461.6884816062292,3.425879756853788,3.371319149691067,307.4806203382111,0.5234375,0.5241935483870968,0.7538461538461538,0.16666666666666666,49.38547486033521,49.349449820324054,49.4198734350073,45.96774193548387,0.4306724632318934,0.5693275367681067,4.298393941484479,4.942125370182668,0.4785610373645849,0.5214389626354149,15.522236994205628,16.202699629417964,0.4748008291851414,0.5251991708148586,11.388942702913125,11.978148405654027,1.277170061078818,0.9889414504434297,1.4046593415565707,1.6620932594571376,-0.3535497703065964,-1.135596666784993,-0.2396874023379882,0.00025354014209374054,0.06026326750387783,0.8047118546298972,1.4505139538541845,5.609473149067329,0.93276334159723,1.2501703833952311,1.3037519095632626,1.7926410607620087,1.7061735570494923,1.7086348786769443,2.195669066377321,0.765625,Relax,,,,,,,,,
138.0770788646332,435.1102941176471,45.590556656057075,,,,,,,59.575411283763955,59.79682108649971,0.10477931060792162,0.13692025238009123,428.0,16.3086,0.038104205607476634,21.5,0.7652579423900987,414.0,444.0,10.294117647058822,24.264705882352942,375.0,804.0,5.037037037037037,70.3125,,,0.017794751826191266,0.14097835779140439,0.047815330331141284,0.20658843994873693,0.12622328777953912,0.08613624184686652,0.6824116481366862,-1.9591488912259971,42.28273768366268,48.9518874589454,0.8637611311540142,6502.530729917891,1.157727482671009,4.520052523240656,226.69178175935758,0.625,0.6356589147286822,0.8902439024390244,0.25,49.5266272189349,49.582479445886186,49.45264881835548,48.837209302325576,0.4642259353099057,0.5357740646900946,28.80920250985319,30.949766714815357,0.6175738868278186,0.38242611317218145,38.469266343971576,30.272146153681124,0.552049302586694,0.44795069741330606,33.98422135563176,30.61283139838035,0.9163928688173327,1.5844714933617543,1.104274106454039,1.0744844024428628,-0.6017708748200441,-0.08775840582932704,-0.518801035005036,0.0006180824470428053,0.1070527312360732,0.830330290198229,0.9007865453381899,5.657311485204856,0.6543887757412419,0.5322154522586644,1.0274183037269429,0.9958792935433948,0.9704504105268076,1.954089561251755,1.8577560296974016,0.8338191577941575,Stress,0.4408225056497589,2.006978072358479,0.8655541234870623,1.4443115418289982,-3.1078226202291734,-4.090474884874001,-0.21162743314787916,0.0021970040784990044,0.25199912929859825
138.4499685767905,433.93382352941177,44.69488365878505,,,,,,,57.7108372902416,57.92443563150446,0.10299930827068994,0.1329945585270331,428.0,13.343399999999999,0.031176168224299063,17.25,0.7744625750966633,416.0,438.0,6.61764705882353,19.852941176470587,396.0,804.0,4.689655172413793,54.6875,,,0.008596936635001497,0.12461079291715338,0.047590004989210885,0.18079773454136577,0.06899030520347552,0.04755002410184821,0.6892276235277879,-2.082560055857225,40.95876123144048,48.327275882786594,0.8475288640473388,6218.5481499814205,1.179900818037679,4.5006591113646435,228.08556939053,0.6397058823529411,0.6484375,0.891566265060241,0.25,49.11460073504845,49.15751691007536,49.067957996539675,47.65625,0.4552569597195873,0.5447430402804126,27.636634782287665,30.23101353088377,0.625109544344977,0.37489045565502294,38.20941428533358,29.589968810776288,0.5541039521512581,0.44589604784874187,33.3447366320219,29.912208488568602,0.7006278537986791,2.06164594204274,1.1178508672484604,1.0709335622101492,-0.6469476011826938,-0.20576360382759162,-0.5227572077637268,0.0013429103532005204,0.23923796535311811,0.8071365286746053,0.8719247289191706,5.515069000146427,0.5960688691535087,0.37786349988826595,0.926859682211488,0.8976306180444311,0.8627554328096481,1.940929877141728,1.8084733952835532,0.9380465525184273,Stress,-0.010281426234706377,1.3205355699270158,0.06934723867477577,0.5371620469659992,0.3584938188679496,-0.4158575576064457,-0.14573857838825283,0.005451233511101487,0.2538169058841367
139.4776954740222,430.7226277372263,43.99226702217229,,,,,,,57.47966392304223,57.69124490390281,0.102135955227806,0.13344937140871369,425.0,11.8608,0.02790776470588235,15.0,0.765353588028493,414.0,434.0,6.569343065693431,18.97810218978102,357.0,804.0,4.28125,85.9375,,,0.018029269783989763,0.14300449399366946,0.0519522564199321,0.2129860201975913,0.12607484758337653,0.08465001490362445,0.6714266685719625,-1.9448792226868756,40.79387048664353,47.18753089424604,0.8645052986151869,6047.446552674454,1.1567309091128257,4.4885421487185475,218.3331020403631,0.6204379562043796,0.6259541984732824,0.8658536585365854,0.22857142857142856,49.25675675675677,49.344402002709025,49.16972333987426,48.091603053435115,0.4479048899254893,0.5520951100745105,27.302014577682723,30.311591719878265,0.6370878894425853,0.36291211055741457,37.664042228279214,28.42680064519792,0.5561707407253179,0.443829259274682,32.89361698699004,29.384312034778162,0.8211159215560668,2.4230444484576177,1.2012117647937828,1.4067626047025352,-1.5006513111391762,-1.1243263994388881,-0.41516835770817356,0.0016464789412080408,0.30961112899941506,0.796127661970893,0.811945341671484,5.501796295140075,0.5719796746867168,0.42395267049307617,0.9370749271806595,0.8958709377474516,0.7886718500919894,1.9432451875719547,1.7834878554628575,1.0362090632059162,Stress,0.2909612501151078,4.2087370107977,1.0715164559453205,2.1333946393305334,-4.154931077672533,-4.495382842543872,-0.24769671265728455,0.009196663889404799,1.347787852622972
139.15391020056597,432.56934306569343,55.23276888880448,,,,,,,74.6044963950092,74.87367102126379,0.12768535212726898,0.1724682934446401,423.0,11.8608,0.028039716312056737,15.0,0.7403410190769597,413.2,433.0,10.218978102189782,21.897810218978105,357.0,804.0,4.419354838709677,85.9375,,,0.024285388680359427,0.08154277569106294,0.02471062524109202,0.1305387896125144,0.2978239148047679,0.1860396342914402,0.6246631819791721,-2.5066275413185184,52.94368051146631,56.679488889582565,0.9340888838042631,9427.35642709697,1.0705619318873603,4.681360037049066,242.71561249607873,0.6131386861313869,0.6153846153846154,0.85,0.22857142857142856,51.715374841169,52.06760486667825,51.23258309956322,48.46153846153846,0.44338684171936715,0.5566131582806331,35.25688795325175,39.50293003666287,0.6472460657980784,0.3527539342019215,45.59955820362048,33.66370081287768,0.5522466581444245,0.44775334185557564,40.757624173358785,36.69963374408812,0.5292403497513674,2.146036682837182,1.0424931269511273,1.0714605287508117,-0.9182261710569808,-0.7695405054936679,-0.4865019074318022,0.0019959069267076364,0.2867922589134795,0.6148804473365115,0.5695661187885908,5.480484729165301,0.49451270793784624,0.33749297272018375,0.7564867726414493,0.6662424870646243,0.7247334803449499,2.0351043802898845,1.9195722967974942,0.8807777037250288,Stress,0.1149042317443143,5.799665997998761,0.90939749979397,2.7637052218700746,-8.54922559848454,-9.0471615807373,-0.1802733601010896,0.007629414243566147,2.062907396551105
138.93985829508324,433.3602941176471,74.56537502423927,,,,,,,99.93979669262372,100.31197989882199,0.17206323707172982,0.23061595178235786,422.0,13.343399999999999,0.03161943127962085,18.0,0.746102928882011,409.0,432.0,10.294117647058822,21.323529411764707,357.0,1059.0,4.533333333333333,85.9375,,,0.0033925137319264706,0.00447276104958531,0.0021659327112617172,0.010031207492773498,0.758483114639224,0.33819594843097844,0.4458846108813417,-5.409749376574206,70.93128122070567,78.48313822136974,0.903777331388517,17488.962140023457,1.1064672295593554,4.949734147557407,347.35608205969174,0.6323529411764706,0.6328125,0.8765432098765432,0.23529411764705882,49.88113248325048,49.50815990661302,50.53651952455893,47.65625,0.5459831278390654,0.4540168721609345,52.411617146776706,47.794062267814205,0.4296817080185921,0.570318291981408,51.44578438845386,59.270011420037214,0.48196918952265316,0.5180308104773468,51.930946184734495,53.83867866966575,0.5848957359170086,2.2342846691057554,1.0258881742722694,1.3345060199651377,-1.37148833872482,-1.6030448489557108,-0.361871743578499,0.001454190056834427,0.308345393650114,0.49076656434965615,0.38578885513289113,5.501425275240066,0.3821978421729177,0.2233712260384037,0.5634798040861013,0.504135431892049,0.523106672572124,1.932040892540013,1.6687437655653212,0.7817054604320227,Stress,1.4381232524405736,0.40884014339694486,1.2303497601095197,1.434769831807992,1.390657649039655,-0.5305413851105838,0.0,0.0024750786334032655,0.04795216649921619
140.2198758852161,429.07246376811594,68.08888969909027,,,,,,,88.56450492633442,88.8893802390289,0.1586885560101746,0.20640920218594458,422.0,13.343399999999999,0.03161943127962085,19.25,0.7688056265399416,406.0,432.0,10.869565217391305,22.463768115942027,346.0,1059.0,4.758620689655173,93.75,,,0.005942146360259082,0.006768084483457011,0.005034830537161854,0.017745061380877947,0.8779657486225622,0.33486197836781395,0.38140665383948963,-4.9955371739758325,62.85428354248682,73.32110388126108,0.8572468254743597,14478.17253888232,1.166525171378322,4.867683857847397,342.12365308294335,0.6159420289855072,0.6124031007751938,0.8607594936708861,0.22857142857142856,49.747170719961474,49.252598131910034,50.600730130268666,46.51162790697674,0.5663797026381396,0.4336202973618603,47.30307476637159,41.389514514725896,0.4241777350155785,0.5758222649844216,47.753249449437746,55.63821925067744,0.4844129769282254,0.5155870230717746,47.52869509745227,49.034188854059565,1.0577462125881192,0.7543416027040792,1.08197199762321,0.9889020155430848,0.668434783001322,0.7960829494713764,-0.6233790921069426,0.0007771287173388161,0.0341173546738189,0.5137087509967293,0.42942209179270047,5.615108018350921,0.42679231740115975,0.27326249759870197,0.6229858377907833,0.5554684325127344,0.5664438458013695,1.8864224107646526,1.6066369778241625,1.0302209357649519,Stress,3.1569080270584853,3.724559984206914,-0.5676519571484286,1.2946280349550283,1.5904178284489783,-1.5216497169572114,0.0,0.09117356888465783,2.8158151528199062
140.46412471906285,428.3188405797101,68.26023470836849,,,,,,,88.56957346101252,88.8945703228811,0.15936780790679522,0.20678421089564405,421.0,14.825999999999999,0.03521615201900237,22.0,0.7706962113622009,405.0,432.0,10.869565217391305,22.463768115942027,345.0,1059.0,5.111111111111111,93.75,,,0.005803580011880428,0.009780283772284785,0.005724514624865798,0.021308378409031013,0.5933958714292649,0.27236141110675643,0.4589877082406074,-4.627386779785313,62.85795348597364,73.7181850946829,0.8526790696927701,14557.431141414352,1.172774183797324,4.870054854476045,345.81913742174714,0.6086956521739131,0.6046511627906977,0.8589743589743589,0.2,49.879285369386764,49.431439612606766,50.689928006598116,46.51162790697674,0.5664172341086771,0.4335827658913227,47.30734926116287,41.39009188057394,0.42454073387968,0.5754592661203203,48.03240336900655,55.92190125747672,0.4842681897432031,0.5157318102567969,47.67125479531978,49.19552188021451,1.0222460826311799,1.1691203301993633,1.1168131048193226,1.129702362019081,-0.023763015685418054,0.12972998648662992,-0.48897525184806223,0.0006573087305842785,0.0661096118442506,0.5332923015719913,0.4409772556614299,5.569995246690176,0.41732163275419365,0.31670128975748196,0.6764556802253033,0.6125993257540823,0.6046340776300523,1.872494695856625,1.6150966857676736,1.1332430293414473,Stress,3.1183810771685354,3.7133862758743295,-0.5950051987057943,1.2616879392313707,1.6418070257482342,-1.643612507324057,0.0,0.0814953864820359,2.6092174310996086
141.13603910267267,426.1798561151079,68.34262062711706,,,,,,,88.19843404571274,88.51955415194472,0.16036098291951706,0.20695120330110353,418.0,17.7912,0.04256267942583732,24.0,0.7748734018530926,404.0,431.0,10.79136690647482,21.58273381294964,345.0,1059.0,5.148148148148148,54.6875,,,0.04556143700607854,0.026680207990353418,0.024506477023656707,0.09674812202008867,1.7076867250267267,0.4709283865646323,0.27576977654215934,-3.623833262224718,62.5927770084499,74.0815909439607,0.8449167493689281,14567.478748395415,1.1835485575909157,4.870354503158759,350.7166404230597,0.6258992805755396,0.6201550387596899,0.8625,0.20588235294117646,49.69445123441702,49.19140113952044,50.566141491419394,48.06201550387597,0.5666014902696513,0.43339850973034877,47.115520402238175,41.20679555607303,0.42366047663334194,0.5763395233666582,48.21911950047885,56.24054259506091,0.4831998503044836,0.5168001496955162,47.67051367551634,49.300094479558865,0.900657191274467,1.3549986283482034,1.1728871183024636,1.1513268323024237,0.04894445292092975,0.051267305463027046,-0.5159116662917385,0.0003111079229509201,0.1052328910490696,0.5238898486723904,0.44358114341026905,5.623649256967161,0.4080164249161068,0.3460530055553416,0.7472038974935812,0.6678960679244919,0.6283660534011961,1.8722888536157207,1.612095039392935,0.9730926646168824,Stress,2.434464198063469,1.535910000860338,2.434464198063469,1.6665091976333,1.2311318372713163,4.241178148929638,-1.0,0.03518735445851083,0.8650185503379055
141.03492941880788,426.49640287769785,68.52645465049937,,,,,,,88.20015938728245,88.52146503848078,0.16067299557072706,0.20680164895218295,418.0,19.273799999999998,0.04610956937799043,27.0,0.7769425262555725,402.0,432.4,10.79136690647482,21.58273381294964,345.0,1059.0,5.148148148148148,109.375,,,0.050721158137860704,0.04067311401026745,0.027820457486534132,0.11921472963466229,1.247043885674865,0.4254604971491146,0.34117524013107803,-3.202187994247239,62.59412820927764,74.44546377087397,0.8408051349096028,14639.347083246555,1.1893362189177312,4.872491817526621,354.1627455873128,0.5971223021582733,0.5909090909090909,0.8589743589743589,0.17647058823529413,50.06093102607849,49.6529068541105,50.82759338755286,45.45454545454545,0.5666827194913273,0.43331728050867263,47.11981931483581,41.20373982034254,0.4285467700490678,0.5714532299509323,48.734594054400574,56.276695162503046,0.48575728244509425,0.5142427175549057,47.93400687356519,49.31944136745557,1.1029732835333974,0.8530651822502642,1.2130755775376723,1.078201691563242,0.7561281971875085,0.8850950508693063,-0.6581050179760616,0.00040552791533566163,0.042291765233919046,0.5285128731280446,0.4810200491151298,5.768668838845432,0.4160753918721144,0.4661895872971832,0.7645939115339635,0.7085003315193725,0.6913545711037185,1.8539673490096307,1.6111348047946104,1.0243080680177707,Stress,2.103560291388807,1.9317812121925986,1.9335507155479845,1.137669685292508,0.7665639345367015,4.338330653369717,-0.9119933588918906,0.024988767064384795,0.6237052037992173
141.1113008068685,426.32374100719426,68.69711044145087,,,,,,,88.48687776293094,88.8092306332997,0.1611383646595736,0.20755794071866554,417.0,19.273799999999998,0.04622014388489208,27.0,0.7763536490178837,402.0,433.4,11.510791366906476,23.741007194244602,345.0,1059.0,5.148148148148148,109.375,,,0.053122821068652626,0.04639902820853363,0.028774823284730845,0.1282966725619171,1.1449123638947758,0.414062344781507,0.36165418231046526,-3.0704767637508543,62.79760921276629,74.56828674105388,0.8421490147793995,14711.167744650029,1.187438306582772,4.874617257531547,354.18096053030234,0.60431654676259,0.5984848484848485,0.8607594936708861,0.18181818181818182,49.952290076335885,49.533274107118324,50.733764032751274,45.45454545454545,0.5646988052159587,0.4353011947840413,47.19017279857241,41.43220652133166,0.4295143280440376,0.5704856719559622,48.87007358298816,56.32180124507164,0.4856072491085935,0.5143927508914065,48.03746715203561,49.4407374172131,0.7658596313378501,2.1605080501093656,1.1935132604922174,1.3756176379885572,-1.0395606456892743,-0.9788847836949057,-0.4157122430128776,0.0009245870672154912,0.27335593946509484,0.5281737679402374,0.49767606861225006,5.842515331697881,0.42766987970106773,0.43182472356602436,0.8772434720789615,0.7703435526174464,0.7135231413397286,1.8580375467368069,1.611730565005517,1.0755234714186594,Stress,2.0973820218444,1.963378446799215,2.639991537375129,1.6583023139755215,2.085219031061458,1.289570631878495,-1.0,0.049194882110316814,1.2233700660066769
141.06029440395437,426.46043165467626,68.64794308402398,,,,,,,88.37231844116498,88.69399037652695,0.1609714242835341,0.20722278523772616,418.0,20.7564,0.04965645933014354,27.0,0.7768036902837084,402.0,433.0,11.510791366906476,22.302158273381295,345.0,1059.0,5.148148148148148,109.375,,,0.041513280694199954,0.044087460699178814,0.023713343702779437,0.1093140850961582,0.9416119693864154,0.379761497868118,0.40330997291334647,-3.12157987484812,62.7161220457366,74.5166582724784,0.8416389502654315,14681.906021476207,1.188157938370872,4.873752549797692,354.1502362692589,0.5827338129496403,0.5725190839694657,0.8266666666666667,0.15151515151515152,50.36638983878847,50.01462003243968,51.06087076438881,43.51145038167939,0.5653602837063691,0.4346397162936308,47.156673173767444,41.34711527550428,0.43032744084986835,0.5696725591501316,48.88244169683968,56.24268178040937,0.48631792113794425,0.513682078862056,48.027309580396285,49.360020236311854,0.6388973992745791,2.2849438588466366,1.2448160071274825,1.3665163371665345,-1.037840308596703,-1.1427607450128727,-0.44673815307633763,0.003254415563074709,0.3773348781949842,0.484083879363312,0.4387447415904626,5.818450742000425,0.39016365403205616,0.36652325191223145,0.7765352711114311,0.6872429209608737,0.6809849779874847,1.8515578815794769,1.6124817740733823,0.9730926646168824,Stress,0.9880145794288009,0.5286663128030771,1.175195181597791,1.1853168861578034,0.22773624866214792,-0.32493801584077797,-0.4808542660750495,0.00445181052966016,0.08678357788082988
140.88297333662993,426.92028985507244,68.61710769573801,,,,,,,88.06152461085557,88.3846435334644,0.16072580602583122,0.20627158442328897,419.0,22.238999999999997,0.05307637231503579,29.0,0.7791950911474386,402.0,434.6,10.144927536231885,16.666666666666664,345.0,1059.0,5.111111111111111,93.75,,,0.05251758804107257,0.04144148211675761,0.028790521420730304,0.1227495915785605,1.2672709893219802,0.427843281315205,0.3376099389319337,-3.1834729163047024,62.49738079526841,74.69525822664868,0.8366981021155573,14665.76502841114,1.1951742181218536,4.87327483250861,357.09538739377916,0.5869565217391305,0.5736434108527132,0.8378378378378378,0.125,50.15806111696522,49.738678611794626,50.940225945847196,44.18604651162791,0.5659857004627206,0.4340142995372793,47.01806598969979,41.173145874179575,0.43058565152391515,0.5694143484760849,49.014300586687064,56.36470473216031,0.4863416302699004,0.5136583697300997,48.026556150810336,49.35690367476512,0.83346121133191,1.9332306326982955,1.2671167193185298,1.3685392633463929,-0.4637030072130983,-0.456617840334713,-0.4475372765605813,0.0012036692467204974,0.24846056521262222,0.4342043227625956,0.38810786600005925,5.776193008225205,0.350761870712703,0.46675205011366583,0.7911016341530331,0.7165737408195707,0.6501230010401,1.8340017650321885,1.5693481673736775,0.8756877954002092,Stress,0.2754341306896991,1.6910952090236968,1.4438077712334207,0.9403837283994516,0.6822854216400156,0.04348143524420722,-0.79769112948088,0.010595903432561218,0.5041530477792459
