PPG_Rate_Mean,HRV_MeanNN,HRV_SDNN,HRV_SDANN1,HRV_SDNNI1,HRV_SDANN2,HRV_SDNNI2,HRV_SDANN5,HRV_SDNNI5,HRV_RMSSD,HRV_SDSD,HRV_CVNN,HRV_CVSD,HRV_MedianNN,HRV_MadNN,HRV_MCVNN,HRV_IQRNN,HRV_SDRMSSD,HRV_Prc20NN,HRV_Prc80NN,HRV_pNN50,HRV_pNN20,HRV_MinNN,HRV_MaxNN,HRV_HTI,HRV_TINN,HRV_ULF,HRV_VLF,HRV_LF,HRV_HF,HRV_VHF,HRV_TP,HRV_LFHF,HRV_LFn,HRV_HFn,HRV_LnHF,HRV_SD1,HRV_SD2,HRV_SD1SD2,HRV_S,HRV_CSI,HRV_CVI,HRV_CSI_Modified,HRV_PIP,HRV_IALS,HRV_PSS,HRV_PAS,HRV_GI,HRV_SI,HRV_AI,HRV_PI,HRV_C1d,HRV_C1a,HRV_SD1d,HRV_SD1a,HRV_C2d,HRV_C2a,HRV_SD2d,HRV_SD2a,HRV_Cd,HRV_Ca,HRV_SDNNd,HRV_SDNNa,HRV_DFA_alpha1,HRV_MFDFA_alpha1_Width,HRV_MFDFA_alpha1_Peak,HRV_MFDFA_alpha1_Mean,HRV_MFDFA_alpha1_Max,HRV_MFDFA_alpha1_Delta,HRV_MFDFA_alpha1_Asymmetry,HRV_MFDFA_alpha1_Fluctuation,HRV_MFDFA_alpha1_Increment,HRV_ApEn,HRV_SampEn,HRV_ShanEn,HRV_FuzzyEn,HRV_MSEn,HRV_CMSEn,HRV_RCMSEn,HRV_CD,HRV_HFD,HRV_KFD,HRV_LZC,Labels
98.4592837989894,612.75,149.05286946160024,,,,,,,200.22855361863483,201.2902908413868,0.24325233694263604,0.32677038534252933,585.0,37.065,0.06335897435897435,57.25,0.74441365513479,558.0,631.0,32.29166666666667,53.125,478.0,1739.0,10.666666666666666,132.8125,,,0.05078664509919454,0.06271939102254273,0.018443335038062645,0.1319493711597999,0.8097439128664483,0.38489493851159295,0.47532921507132586,-2.7690846124491317,142.333729640957,156.91170654420878,0.9070943957954817,70163.7912806426,1.1024210982177265,5.553083157933468,691.9311034067371,0.53125,0.5473684210526316,0.8269230769230769,0.10344827586206896,50.27977617905673,50.58175046055299,49.94807055726484,47.368421052631575,0.4820056239809487,0.5179943760190511,98.8177454130109,102.44043417123675,0.4680352955222297,0.5319647044777701,107.34817077879184,114.44498189550838,0.4743415124105941,0.5256584875894061,103.17116016131469,108.60869310109281,0.7308528625801205,2.3732723531013225,1.2934144060805923,1.3943601034977133,-0.6251492042026534,-0.49566410303222463,-0.4574656076513055,0.0020825919664889925,0.4039379328516197,0.7154741098659492,0.5226321363529796,6.1812657559069555,0.6268903428813272,0.42486632992222934,0.7275208596389741,0.6467724578080538,0.8115020271606053,1.8504268259744756,1.6869694998405733,0.9603070313551686,Relax
97.14017343152227,621.2842105263157,149.6015035165867,,,,,,,201.19663293997485,202.26820424139154,0.2407939892595259,0.32383992628676783,591.0,45.9606,0.07776751269035533,70.5,0.7435586835154389,561.0,650.2,33.68421052631579,52.63157894736842,478.0,1739.0,10.555555555555555,132.8125,,,0.048679530732729966,0.054198232676577196,0.018307779077836414,0.12118554248714357,0.8981756106923345,0.4016942098344307,0.4472334864724232,-2.915106978511396,143.02521883751356,156.81214544495037,0.9120799822723121,70459.92723485237,1.0963950743756574,5.554912300304057,687.7122554724912,0.5263157894736842,0.5376344086021505,0.82,0.10714285714285714,51.07671601615075,51.703456471519985,50.444752058300956,47.31182795698925,0.48402655574267145,0.5159734442573286,99.50909073941408,102.74053863772514,0.4713809373100225,0.5286190626899774,107.6628084661343,114.01214247716227,0.4771237350816633,0.5228762649183366,103.6661455505134,108.52277851170841,0.8534721010559504,3.2329816588413314,1.3402037306132148,1.8782250535090417,-1.7252947882362584,-1.3596946256126694,-0.3335835523766478,0.006634151147200296,0.7929314862112732,0.7006652674654488,0.511845511666736,6.161909424097649,0.6167682060304907,0.47436826839710716,0.7158620879657772,0.605650670681448,0.8415174468083219,1.9503913220980642,1.6460544092602367,0.8298764978944355,Relax
100.11346920155079,600.6734693877551,77.42728887198663,,,,,,,92.83412765643871,93.31631648688462,0.1289007968853785,0.1545500715239866,585.5,37.8063,0.06457096498719044,59.5,0.8340390632907132,560.4,639.0,28.57142857142857,47.95918367346938,478.0,1210.0,10.88888888888889,156.25,,,0.03926761956891527,0.07207284640975052,0.020929579454311432,0.1322700454329772,0.5448323678749959,0.296874620707775,0.5448916734989002,-2.630077915754925,65.98460018322614,87.76654847826103,0.7518194725359391,18193.71895805948,1.3301065435654797,4.9668915917564265,466.95544174836755,0.5204081632653061,0.5360824742268041,0.8076923076923077,0.06666666666666667,50.122032394053704,50.1728289882318,50.07167204851449,49.48453608247423,0.4879414519542132,0.5120585480457865,46.09212920879225,47.217471166225465,0.5170768588769737,0.4829231411230265,63.11121926273708,60.99131934101494,0.5065555497728577,0.4934444502271426,55.260792483592176,54.54095075395641,0.7129538640135489,2.8217552329763023,1.3392104227597517,1.5250635579436367,-1.4056317102933722,-1.207350337726371,-0.43413562841598674,0.0022139841325776776,0.5211752611359607,0.6185081894433693,0.778087857209029,6.142621451191835,0.8166549141192907,1.0645146662272873,1.116792587873278,1.1039663805052355,1.2874617547568818,1.8037697296696,1.717160367587691,1.1474496668363117,Relax
100.01501183837597,600.9489795918367,75.58600923955746,,,,,,,89.07097829965568,89.53367280131032,0.12577774787286486,0.1482172053277343,585.0,33.3585,0.05702307692307692,52.5,0.8486042331910668,562.4,634.6,22.448979591836736,45.91836734693878,478.0,1210.0,8.166666666666666,156.25,,,0.0299554309533495,0.04424152999327414,0.030490882704134463,0.10468784365075812,0.677088494857739,0.2861404907076102,0.42260427238204706,-3.1180913384313,63.30986718234407,86.68157439356463,0.7303728344260934,17240.4289034379,1.369163737840513,4.9435181758634394,474.7250735943738,0.5102040816326531,0.5208333333333334,0.8,0.10344827586206896,50.063019914292916,50.096172315576446,50.026569959479,50.0,0.4891191494393571,0.5108808505606429,44.277063287139235,45.25132364546552,0.5059353352056971,0.49406466479430294,61.655851061728505,60.92824771155847,0.5000854309425067,0.49991456905749326,53.67449256154818,53.66532241991889,1.0029098176975657,2.6197622975924557,1.4328496386966347,1.7034717002154307,-0.8846025746196577,-0.4095947119843668,-0.3966997647964108,0.0036751071146924313,0.4912929298793828,0.6076740790538513,0.7231494308637442,6.020172471599999,0.7489303299862818,0.9347643823740823,0.958159874734423,0.9538402543205983,1.1614821601486534,1.8367805928101402,1.6585881446364896,1.0124555883849808,Relax
100.79160805696347,595.6262626262626,42.48567246097131,,,,,,,46.71221052620929,46.95167755519724,0.07132941431031187,0.07842537083614089,585.0,32.6172,0.05575589743589743,51.0,0.9095196305713994,563.0,630.4,22.22222222222222,47.474747474747474,478.0,740.0,9.0,156.25,,,0.045096868660064265,0.03398386258864822,0.024792803666652624,0.1038735349153651,1.3270083276268947,0.43415167007466,0.32716574646600655,-3.3818694967839673,33.199849587364184,49.51174876033083,0.6705448791169368,5164.095376859379,1.491324490192116,4.419964364714426,295.35233391408207,0.5454545454545454,0.5567010309278351,0.8333333333333334,0.13793103448275862,49.60127591706539,49.65090480258483,49.54896547351691,51.546391752577314,0.47731704693718185,0.5226829530628183,22.937499122166333,24.00279193382629,0.49311047104422967,0.5068895289557704,34.7680535834144,35.25047113624082,0.48821173956129105,0.511788260438709,29.452898125299622,30.155677209652445,1.02075901282405,1.8087658714161106,1.034264696692634,1.8220802392259594,-1.0517286194428852,-1.8456052008305932,-0.06444581635293001,0.0018074599693300726,0.265563838393147,0.5916073581800783,1.2144441041932317,5.972593488679067,1.048180326031147,1.019996050138855,1.2194273700375224,1.7750575654308693,1.6592252356670392,1.7635705656694933,2.5293613585048926,1.0714111709219571,Relax
101.20123942410244,593.27,42.138025966141704,,,,,,,47.24768178803521,47.487851737760174,0.07102672639125812,0.07963942519937837,584.5,31.875899999999998,0.054535329341317364,45.5,0.8918538301028888,563.0,626.6,20.0,47.0,478.0,740.0,7.6923076923076925,132.8125,,,0.044347437338295784,0.03869323532690226,0.021885759322246855,0.1049264319874449,1.1461289541601687,0.42265267672117385,0.3687653777413507,-3.2520904919797724,33.57898198775159,49.48103068291753,0.6786233335140319,5219.827313430396,1.4735714948406249,4.424626245518686,291.6553453987264,0.58,0.5918367346938775,0.8793103448275862,0.2222222222222222,49.74763406940064,49.73266575184381,49.76177507421417,51.02040816326531,0.4993212731106505,0.5006787268893494,23.727943571292666,23.760175049173082,0.49392351424124115,0.506076485758759,34.77511608487752,35.20033662803693,0.495625532299675,0.504374467700325,29.76847329675437,30.030065077305988,0.9648821861051644,2.0105944649117546,1.3562730417185014,1.6906277736561375,-0.9401346369890273,-1.363385327183976,-0.3337035450098532,0.0014399735187220293,0.29011594164242455,0.5922124481494535,1.3198492617117379,6.10120956470982,1.0470524765166085,0.8739906044997691,1.1666401017165,1.6525185804693792,1.6953118966219347,1.7615811070753071,2.8452096511081773,1.063016990363956,Relax
101.54842646443622,591.2020202020202,39.32984010147704,,,,,,,43.819783995220185,44.04063618043888,0.0665252126304264,0.07411981437452883,583.0,29.651999999999997,0.05086106346483705,42.5,0.8975361472746441,563.0,622.0,18.181818181818183,46.464646464646464,478.0,740.0,6.6,132.8125,,,0.04652371464144078,0.025448255259069286,0.012066862624981954,0.08403883252549202,1.828169128603054,0.5535978219036831,0.30281543060881894,-3.671108093971435,31.141432490957943,46.20921843413616,0.6739225104043919,4520.81860723514,1.4838501230652514,4.362187191767761,274.2702178409681,0.5959595959595959,0.6,0.8771929824561403,0.19230769230769232,48.95726495726495,48.973707576603495,48.94439070916625,50.526315789473685,0.474032426917211,0.525967573082789,21.443043713786068,22.587173625115955,0.5041049393410616,0.49589506065893835,32.808705822413394,32.540446993734534,0.49471129181545814,0.5052887081845419,27.71475510854284,28.009472530941927,0.7624078285848244,2.0451019085141917,0.7264328656292931,1.6117271403710496,-0.5093690840527554,-1.1629057991110143,-0.06711483615750916,0.004069959552044427,0.42024723696503724,0.6000523284169894,1.4529857356185627,5.944766342192567,1.0734216964190455,0.9871872683591653,1.177449286939108,1.4602874545741609,1.6674612719801307,1.7779288978100478,2.828136189949289,1.0044479727393347,Relax
101.67600652798266,590.35,34.38533132166986,,,,,,,34.539832078341085,34.71560695589555,0.05824567006296241,0.05850738050028133,583.5,24.462899999999998,0.04192442159383033,37.0,0.995526881650125,565.6,609.2,13.0,40.0,511.0,740.0,6.666666666666667,109.375,,,0.039189057063558394,0.01589566163325663,0.010208162348333848,0.06529288104514888,2.465393260609406,0.6002041330732496,0.24345168077764953,-4.141709060241473,24.54764109152062,42.217123399666285,0.5814617177757465,3255.7292063906307,1.7198036765434521,4.21961838545998,290.4206561433387,0.59,0.5894736842105264,0.8571428571428571,0.20833333333333334,49.97896508203618,49.97047125566028,49.98684618803328,51.578947368421055,0.5197659749210463,0.48023402507895374,17.697572761049834,17.01125077885881,0.4924417047877888,0.5075582952122112,29.625524705029907,30.07679826867071,0.49934574032552037,0.5006542596744797,24.401596215012148,24.433547093653203,1.073856815155553,1.7727925846550607,1.1748468646779617,1.9602531074830833,-0.8873377737911721,-1.8504025285116024,-0.05696664708356662,0.004370397383645838,0.357182876569699,0.6663583262642869,1.5558536662999942,5.82611181466655,1.0472364648611312,0.9498164917918844,0.985703223564451,1.3848303216404017,1.6573032400076748,1.7090422016551494,2.3991951286418494,1.063016990363956,Relax
101.5729160480686,590.74,34.69684583807455,,,,,,,33.80649032181229,33.97853312394458,0.05873454622689263,0.05722735945054049,582.5,24.462899999999998,0.0419963948497854,38.75,1.0263368219471098,565.6,612.4,12.0,39.0,511.0,740.0,5.882352941176471,101.5625,,,0.03926851086586802,0.026535419907263925,0.01604647455643148,0.08185040532956342,1.4798526272847292,0.4797595162511027,0.32419411730976044,-3.629274838170848,24.026451186712933,42.670685059302954,0.563066919439456,3220.83974196448,1.7759878363934423,4.214939226302132,303.13047054358975,0.56,0.5578947368421052,0.8490566037735849,0.22727272727272727,49.978232477144104,49.97153348628477,49.98426638166433,52.63157894736842,0.5206946838128067,0.4793053161871934,17.33729023385896,16.633964515719153,0.49172537292167334,0.5082746270783268,29.922021076354373,30.421374363043245,0.4986989855345257,0.5013010144654744,24.453107961431574,24.516818652168443,0.9783119868659769,2.3967926517797964,1.390207329205853,1.8762558180565356,-1.2843226744542413,-1.6060155156401685,-0.29720878713068666,0.0030643452391179386,0.4484592039756244,0.6680580734551755,1.5841201044498103,5.893660689688185,1.0074515616110662,1.0789506435509255,1.1616034487296019,1.488525668906266,1.6942606793897501,1.685557892193898,2.7823054286740994,0.9301398665684615,Relax
101.07627396953613,594.1212121212121,37.054365114328625,,,,,,,35.186094192021315,35.36485314839364,0.06236835911317171,0.059223763558946416,586.0,29.651999999999997,0.05060068259385665,45.0,1.0530968544593664,566.0,626.0,13.131313131313133,38.38383838383838,511.0,740.0,7.071428571428571,101.5625,,,0.04713646189882415,0.024172137218894923,0.013816197965270786,0.08512479708298985,1.9500328610570037,0.5537336183353234,0.28396117285694117,-3.7225546637285043,25.00672747689557,45.68448494782942,0.5473789954172111,3589.016598601905,1.8268877840988438,4.261945576839067,333.84170989614825,0.5656565656565656,0.5638297872340425,0.8490566037735849,0.22727272727272727,49.19559695173581,49.11343493104383,49.273046021245435,51.06382978723404,0.4880903321519823,0.5119096678480177,17.471626482922616,17.892865594288068,0.4977268818674147,0.5022731181325855,32.230295079196345,32.37715620706033,0.4955050010320003,0.5044949989679999,25.923441639285002,26.157550374907462,1.1774861717642684,1.4151861059490354,1.4143166050429357,1.7752024886379645,-0.7185343004172466,-1.5066516227486861,-0.24499051250010973,0.0007750173950264671,0.14631993045029854,0.6780009058047876,1.6796421711073488,5.992795508881087,1.0183951156041915,1.2446194139835431,1.2089919090214145,1.5711898104521405,1.7772256854655684,1.6686407212658354,2.293071875346722,1.1383743691045793,Relax
101.00352352824636,594.3232323232323,37.565406438291696,,,,,,,36.942591977835235,37.13238778473929,0.06320703010623879,0.06215909116227078,584.0,32.6172,0.05585136986301369,51.5,1.016858981113998,565.2,626.0,15.151515151515152,38.38383838383838,511.0,740.0,7.071428571428571,101.5625,,,0.03608911652782988,0.009940064212856039,0.005974677746051217,0.05200385848673714,3.6306723734393804,0.6939699779591145,0.1911408980430003,-4.611181798288642,26.256563204237672,46.48284581181977,0.5648656562581005,3834.250307469812,1.7703324479388713,4.290650571035012,329.16036085281604,0.5656565656565656,0.5604395604395604,0.8627450980392157,0.16666666666666666,49.79691307879773,49.784900377588784,49.80903518824856,51.64835164835166,0.5154696215213914,0.4845303784786085,18.851289982932695,18.276795044903302,0.5044820079977057,0.49551799200229407,33.01532296025963,32.72068771580396,0.507139838787748,0.49286016121225223,26.882919151301866,26.501741845665222,1.0362546511895778,1.743728418621487,1.394110541946282,1.7529017642345792,-0.5668844182197343,-1.2725743819015913,-0.2942390463694219,0.0019318612070915507,0.2645302923136082,0.6287700890788428,1.3609765531356008,5.896737175504046,1.0479527872473173,0.9550674690725727,1.201274597663875,1.3976028126073736,1.711801846965222,1.6635818111304923,2.5952585993055473,1.0714111709219571,Relax
100.90598563780945,594.7777777777778,37.13669057479507,,,,,,,35.47893885167391,35.66125665442741,0.06243792549470495,0.05965074718196622,583.0,31.1346,0.053404116638078904,51.5,1.0467249522329765,566.0,626.0,13.131313131313133,38.38383838383838,511.0,740.0,6.6,93.75,,,0.030775112212851403,0.006681533345888001,0.0043813903386523256,0.04183803589739173,4.605995453392634,0.7355773652550928,0.15969997641080808,-5.008407774976895,25.216316405979516,46.350091142028994,0.5440402766136969,3671.826149340973,1.838099205125696,4.271852220353393,340.7842627426682,0.5555555555555556,0.5434782608695652,0.84,0.18181818181818182,49.83193277310923,49.824968327811746,49.83889840487557,50.0,0.5172587104200783,0.4827412895799217,18.13579930675363,17.52023866522936,0.5110101177972771,0.48898988220272266,33.13334953263616,32.411604366685616,0.5124371962584054,0.4875628037415947,26.70885684325226,26.052551319488387,1.0201448658352528,2.066549016220262,1.375511965279494,1.846653585204851,-1.1787715014108198,-1.7648728361046024,-0.27201526979162616,0.001978341207390315,0.3288607828105066,0.6830726735125907,1.4542450230283985,5.964968362394586,1.0295573850245572,0.8881983863561294,1.2219434777509612,1.3286902062513375,1.7142860924735766,1.6691874301462453,2.720549989877427,1.0044479727393347,Relax
101.09977145625884,593.5555555555555,34.93382146410793,,,,,,,32.109983189160396,32.218035140961085,0.0588551840466064,0.054097687888888725,583.0,31.1346,0.053404116638078904,50.0,1.087942689297352,566.0,626.0,12.121212121212121,34.34343434343434,523.0,740.0,6.6,85.9375,,,0.037369694910752,0.013421139734447925,0.009294425793145919,0.06008526043834584,2.7843905696649234,0.6219444608898294,0.22336825431953494,-4.310924222993523,22.78159112468007,41.30892593213137,0.5514931848411928,2956.4996289249198,1.813259034720363,4.1777479387879115,299.61513264412605,0.5656565656565656,0.5543478260869565,0.8431372549019608,0.2631578947368421,45.6041372825576,45.90885994503084,45.2565560444787,52.17391304347826,0.45624140217531145,0.5437585978246884,15.415215404897248,16.828884104603773,0.4221850154698321,0.5778149845301677,26.84079101075895,31.400625783303703,0.430149004947183,0.5698509950528167,21.886718895972276,25.191373918360057,1.1098729584866485,2.865230871435172,1.5138340369931373,2.05444501441855,-1.6392671120432496,-1.4275452520848941,-0.31132027341495705,0.004350013921132659,0.5949236315458459,0.6321820866351056,1.4127276181880462,5.884160281586507,1.0071611264784937,0.9344535413125236,0.8930248468791078,1.177884847223879,1.7626465866389616,1.6406162121080279,1.9913887330445044,0.9374847745567124,Relax
102.41086587705593,586.049504950495,29.671661981636202,,,,,,,30.64751213394001,30.801434769152944,0.05062995827313707,0.052295090901115726,579.0,25.2042,0.04353056994818653,38.0,0.9681589112995858,564.0,614.0,10.891089108910892,33.663366336633665,520.0,663.0,5.9411764705882355,85.9375,,,0.03959699659825096,0.011142294692700302,0.007582486278554826,0.058321777569506086,3.5537559982318814,0.6789401532053869,0.19104861266310447,-4.497007078917957,21.779903395543148,36.093746485416766,0.6034259536992939,2469.6635126868196,1.6572041588027742,4.099607895392233,239.2588271296227,0.5643564356435643,0.5531914893617021,0.8461538461538461,0.2631578947368421,49.59310674964099,49.58723977621458,49.600384374004015,47.87234042553192,0.5029437754852173,0.49705622451478265,15.446224735703497,15.355550439268834,0.5207110878435538,0.4792889121564462,26.04536070284714,24.98795152092546,0.5159683839510477,0.4840316160489521,21.411990481121467,20.738739721895474,0.9600186413134482,2.2470744181560165,1.321192663286375,1.5856081017239727,-1.0056691163790976,-0.7739570929035331,-0.382329024663731,0.0012848766751301507,0.3078978051525181,0.575745427936484,1.4733057381095203,5.853417299433535,1.1078897250648632,1.0730070860869108,1.2280142140037695,1.3560201107577954,1.8047277549091474,1.687991077071992,3.602806290163711,0.9229204035497537,Relax
102.52413391413268,585.5445544554456,29.963152288260744,,,,,,,30.91763250962143,31.067921680984032,0.051171430184550816,0.05280150293323917,577.0,23.7216,0.04111195840554593,39.0,0.9691282888150101,563.0,614.0,10.891089108910892,34.65346534653465,520.0,663.0,5.315789473684211,70.3125,,,0.04073267502030706,0.01257336659680516,0.006470783563933659,0.05977682518104588,3.2395997290540355,0.6814124854730932,0.2103384808196863,-4.376174464331346,21.968338097996373,36.20413782925365,0.6067908094263613,2498.6491934475334,1.6480144136417703,4.104675396082422,238.65976390433315,0.5643564356435643,0.5578947368421052,0.8490566037735849,0.2631578947368421,51.375711574952575,51.40886830022876,51.34214576839044,46.31578947368421,0.5201903964849879,0.47980960351501195,15.847282531600287,15.219770502258374,0.5331752117433585,0.4668247882566417,26.43584425767714,24.736324188194054,0.5296799680690649,0.47032003193093525,21.79438259337168,20.53688326505325,0.9947352070833302,2.511769928823986,1.4361171893951301,1.7343560999789007,-0.7808649074500096,-0.49540229022021265,-0.3812634440912323,0.0033173579966463986,0.4702038478340893,0.5228397918480185,1.4271163556401458,5.804105913380601,1.0868165020862544,1.0296514824912926,1.2324460398251618,1.5379045492479777,1.7662500193157415,1.6984586647972204,2.660719586415258,0.9229204035497537,Relax
101.98524709528189,588.46,32.91139620253143,,,,,,,32.56555160772118,32.73044774905529,0.05592800904484829,0.05534029773938956,580.0,28.1694,0.04856793103448276,47.0,1.0106199519963988,563.8,619.2,13.0,35.0,520.0,696.0,5.882352941176471,78.125,,,0.043874072961121766,0.019940625658608786,0.007885187828429181,0.07169988644815972,2.2002355248156626,0.6119127258708211,0.2781123743205118,-3.9149961378790703,23.143921554628964,40.14811528061368,0.5764634626772747,2919.120237705141,1.7347153197805298,4.172222093780367,278.58220255038134,0.55,0.5425531914893618,0.8235294117647058,0.15,50.52487448653581,50.48398473605721,50.565810277444726,46.808510638297875,0.518092026935642,0.48190797306435795,16.659096920424037,16.06682473741645,0.5240121593707809,0.4759878406292192,29.062692364711605,27.69893631711477,0.5225354798336823,0.477464520166318,23.68718638515292,22.64259183753526,0.9092445316209382,1.900280252662931,1.3325242112324993,1.4436681357587684,-0.3296840788649984,-0.3661873910083777,-0.4415118247055827,0.0014974083044084789,0.26157956404489535,0.604485860673075,1.1786549963416462,5.787368784857278,1.0186815058202057,0.9422318381866326,1.1973727989998812,1.6881897141819804,1.6757902701429168,1.69870572058845,3.046804701806816,0.9301398665684615,Relax
102.50637900877584,585.4356435643564,32.15942034352739,,,,,,,31.444872395988508,31.60184753581296,0.054932460462653966,0.053711919903851574,577.0,25.2042,0.04368145580589255,39.0,1.0227238304083572,561.0,618.0,12.871287128712872,31.683168316831683,520.0,696.0,5.315789473684211,70.3125,,,0.04974992859506721,0.014573603391719621,0.006276764336217475,0.07060029632300431,3.4137012829190856,0.704670251913047,0.20642411081454592,-4.228543373517291,22.34588069059673,39.756249746918954,0.5620721479728731,2790.954513543654,1.779131030787639,4.152722868457599,282.9263103699469,0.5148514851485149,0.5104166666666666,0.7755102040816326,0.15789473684210525,49.27466150870407,49.2408599304764,49.30912395077997,48.95833333333333,0.5115495863589473,0.4884504136410527,15.98310345207075,15.618074222651218,0.5050100929615893,0.4949899070384108,28.252406029657838,27.970715891352288,0.5065801922138705,0.4934198077861293,22.952756287908457,22.652650947504906,1.0898623290629472,1.7650471507084782,1.4708599235147926,1.6752339425121583,-0.38211565266364467,-0.7283516501638903,-0.38421044791050973,0.0014992601919353707,0.2401877342520843,0.6326612957920155,1.1755733298042383,5.83846903206396,0.9966646870995488,1.0269252610389323,1.1327129157483564,1.6360327600310394,1.6627507035041273,1.6473308364477555,2.7405803212273194,0.7910746316140745,Relax
102.87296700678907,583.7941176470588,35.14167598163046,,,,,,,37.71099059798334,37.897566472722964,0.06019532386394457,0.06459638673643174,576.5,30.3933,0.052720381613183,46.25,0.931868280954405,558.2,617.2,17.647058823529413,36.27450980392157,487.0,696.0,7.285714285714286,117.1875,,,0.04048390819829466,0.012535654754099002,0.005204216912788232,0.05822377986518189,3.2295008910529326,0.6953156990500412,0.21530128725969896,-4.379178314663515,26.797626243330356,42.048629320380606,0.637300827076943,3539.9574486395013,1.56911768746107,4.255968151667768,263.9169920004134,0.5,0.5,0.7755102040816326,0.15,50.68603712671509,50.672104972063494,50.69870340042987,48.97959183673469,0.5121628583761504,0.48783714162384956,19.178633945096298,18.717638739969313,0.49061747027666824,0.5093825297233319,29.45258024170096,30.01054389425387,0.49684098214779404,0.503159017852206,24.852308573790825,25.009825517473512,0.9742416091649054,1.4269007178260278,1.3814379511018413,1.3712770449678082,0.4689335463253226,0.1650835667698276,-0.5071209622415173,0.0019223601615330251,0.19998912547401176,0.6032383589409118,0.9808292530117261,6.039784900667762,0.9664381764668158,1.4533230979303438,1.4317371538879466,1.7827055375985292,1.6197789349852136,1.7028059943140874,2.9384478296531795,0.8504071514277396,Relax
102.61944465854201,584.8415841584158,34.54409723042921,,,,,,,34.092081191971836,34.261588764189916,0.059065733638174855,0.05829284735460488,579.0,32.6172,0.05633367875647668,50.0,1.0132586812729936,559.0,618.0,12.871287128712872,32.67326732673268,487.0,696.0,7.214285714285714,109.375,,,0.03873474254858542,0.010519187204056273,0.005166075317880164,0.05442000507052186,3.6822942492789776,0.7117739606674016,0.1932963289956452,-4.554554336629271,24.226601749383512,42.61423091841123,0.5685096557478068,3243.3739765170617,1.7589850759607928,4.21796713775092,299.83118483612935,0.48514851485148514,0.4845360824742268,0.7659574468085106,0.2,49.09428704133769,49.096620769329405,49.096635926424874,51.546391752577314,0.5075154654254175,0.4924845345745823,17.260189495313817,17.002673586554234,0.48219877059512767,0.517801229404872,29.591549337128615,30.664521594115236,0.48838319234769295,0.5116168076523071,24.22368606948433,24.79318246702981,1.134124043976186,2.5824430709221144,1.6704102294917784,2.068821334448069,-0.9717457465729389,-1.2189614463579548,-0.34572317994447427,0.0039366229328826425,0.5603884371360711,0.5517139572939129,1.0498221244986776,6.026781408387268,0.9593440627722772,1.1241724414119687,1.087992986270425,1.220135092726163,1.6279777217738673,1.6303078744261992,2.7344296267345993,0.725151745646235,Relax
102.84438427119237,583.9117647058823,35.10439958356084,,,,,,,34.984579346895224,35.15293320437552,0.06011935656278994,0.05991415392104154,575.5,30.3933,0.05281198957428323,53.25,1.0034249443298295,557.2,618.0,13.725490196078432,35.294117647058826,487.0,696.0,6.0,93.75,,,0.04249577422487964,0.01160012536371547,0.005072145401956038,0.05916804499055115,3.663389221447899,0.7182217061872842,0.1960538896556064,-4.456739373711365,24.85687744741168,42.94410597071223,0.5788193021031572,3353.5131189306185,1.7276548939651288,4.232470119600152,296.77037938903237,0.5196078431372549,0.5204081632653061,0.803921568627451,0.25,51.443569553805766,51.4016437952649,51.48375913241586,46.93877551020408,0.5295107429458968,0.470489257054103,18.090881681112172,17.052858997833766,0.490757685991454,0.5092423140085458,30.084106735789632,30.645436194209715,0.5004854692013175,0.4995145307986825,24.822706118495454,24.79861648896344,1.1433671661106426,2.72875544514123,1.6695574592963878,2.1830031966027157,-1.2328898073105208,-1.563061390362574,-0.31183885927903154,0.004908062574842259,0.6436794662390007,0.6142940408076796,1.0233888674305223,5.929538699708581,1.0294963709446152,1.0412366090608849,1.4428748196677974,1.6542877798321887,1.5476168984619834,1.6414815007270356,2.6517980118385016,0.8504071514277396,Relax
102.17803383583538,587.23,39.742061020302074,,,,,,,38.14737503711392,38.34053063567145,0.06767716400780285,0.06496155686377385,575.5,30.3933,0.05281198957428323,54.0,1.0418032952893004,557.8,618.2,16.0,41.0,487.0,700.0,6.25,85.9375,,,0.045610152007761535,0.008373527480982832,0.005312901351954275,0.059296580840698644,5.446945998725988,0.7691868799365355,0.14121433921255033,-4.782680039895941,27.110849206773853,48.452372975099586,0.5595360462676726,4126.748914986045,1.787194956733166,4.3225781557344565,346.3753464914093,0.57,0.5684210526315789,0.8333333333333334,0.3,50.53045186640471,50.47166796623971,50.594630024394625,49.473684210526315,0.5339876585199943,0.4660123414800058,19.81161275615895,18.507720396788855,0.47395868546982,0.5260413145301802,33.35687018453063,35.14187898235569,0.48827207788716687,0.5117279221128328,27.433381021190485,28.08458093595351,1.0744944930259268,1.5965828171918321,1.4899434017367148,1.6283266602926232,0.18698868752656583,-0.2914982312886165,-0.41332534894788275,0.0026834669088460932,0.26048389988625803,0.533835906488819,0.94132681003548,5.993660689688185,0.973488534539106,0.9969170009798223,1.183311021387612,1.4162082917303365,1.5287083005906443,1.665612998984396,2.5305906922369976,0.8637013046707142,Relax
102.43006224556999,585.8613861386139,38.80825420009777,,,,,,,36.37677830704638,36.55853339011787,0.06624135865290805,0.06209110067281289,575.0,29.651999999999997,0.05156869565217391,50.0,1.0668414303358031,558.0,615.0,13.861386138613863,43.56435643564357,487.0,700.0,5.9411764705882355,93.75,,,0.043698733870393885,0.005649315729996098,0.003181963153520496,0.052530012753910484,7.735225991772294,0.8318812728089586,0.10754453375942778,-5.176220850893368,25.85078687038717,48.512817737670986,0.5328650875356931,3939.854105236186,1.8766476231810116,4.3024502499437105,364.1658564048555,0.5742574257425742,0.5773195876288659,0.8392857142857143,0.3684210526315789,49.340263894442224,49.298785735990506,49.38437068077826,50.51546391752577,0.5153747912368601,0.48462520876313986,18.558942411526132,17.996772999175114,0.4494510611572896,0.5505489388427103,32.52353216045144,35.9960184000476,0.4640310655670453,0.5359689344329548,26.478429783752873,28.456960300077768,1.194233255003028,1.296908634733392,1.4882026853357595,1.7281394959836862,0.019875044214019866,-0.7543084012742494,-0.3149932815450403,0.001548856402139142,0.1664567674087616,0.5203939335305492,0.9657913756471858,6.066385368783307,0.9562823354601481,1.0811153561084783,1.1971617808167707,1.4078812437064223,1.6193406148035394,1.628408754647284,2.8620642941330297,0.8569975175819141,Relax
102.4913339818443,585.58,39.49483536112058,,,,,,,37.35943351721587,37.54747149883029,0.06744566986768773,0.06379902578164533,575.5,31.1346,0.054100086880973064,51.5,1.0571583036161585,556.0,615.6,15.0,45.0,487.0,700.0,5.555555555555555,93.75,,,0.03876593985268213,0.004656366669596483,0.0017490238241705475,0.045171330346449164,8.325362370150621,0.8581978780646972,0.10308234523720446,-5.369519819592681,26.550071713231517,49.34907882744414,0.5380054165968833,4116.1824961165075,1.8587173458688055,4.321464731469913,366.90395527686974,0.6,0.6082474226804123,0.864406779661017,0.35,49.25143953934741,49.25699243325007,49.251318715379846,53.608247422680414,0.5249281718375706,0.47507182816242943,19.23710806048072,18.300775047711472,0.4424676431124021,0.5575323568875978,32.82613935409051,36.84801427788376,0.460979603536003,0.539020396463997,26.903733490212673,29.09204808508731,1.2114426837672383,1.4645550790528201,1.5490763934981877,1.7778298228435858,-0.060210673798138714,-0.7337929244286832,-0.34380687854133757,0.0017137819358076535,0.20122393745669875,0.5173360767244546,1.1349799328389845,6.033660689688184,0.9608797886820528,1.2992946930802765,0.9506155209584055,1.2858955026568313,1.69076099585669,1.6266270755586745,2.8627725390064778,0.8637013046707142,Relax
102.75295818627079,584.2673267326733,39.67666596101767,,,,,,,38.973452502953855,39.16979226728968,0.06790841134810094,0.06670482965545982,573.0,29.651999999999997,0.051748691099476433,43.0,1.0180433965405173,556.0,615.0,14.85148514851485,41.584158415841586,487.0,700.0,5.05,78.125,,,0.036551316036268044,0.0038995137441240352,0.0027553225314072747,0.043206152311799355,9.373300989474709,0.8459747994335077,0.09025366841238257,-5.546903414613695,27.697225729868922,49.06526832246569,0.564497590186154,4269.335861718273,1.771486747481474,4.3373304313512095,347.67389037948215,0.6138613861386139,0.6224489795918368,0.8688524590163934,0.35,49.980995819080206,49.98715607339225,49.976941935140474,51.02040816326531,0.5086146168684534,0.49138538313154656,19.752892640744232,19.415447354094006,0.4530067189072349,0.546993281092765,33.0237585197033,36.28817891253126,0.4664445341594481,0.5335554658405517,27.209790466341744,29.101473542996704,1.1327018634699155,1.7056748278188176,1.581584750787953,1.7188861492920904,0.10025289115622105,-0.36096939777086456,-0.4195031806386475,0.00267930975001769,0.28911041364452933,0.5038893390330834,1.045968555182688,5.91058994805549,0.932312971497559,1.4227447613403137,1.0649850596714947,1.5926163228462966,1.6601762101613144,1.654731345387685,2.8552947345039312,0.8569975175819141,Relax
102.0246455942228,588.53,40.64566149024761,,,,,,,42.414858269481485,42.62826329055444,0.06906302395841778,0.07206915241275974,580.5,34.099799999999995,0.058742118863049086,53.5,0.9582882779427592,556.8,620.2,18.0,45.0,487.0,700.0,6.25,78.125,,,0.039971191571640675,0.004153609028396387,0.0034235128369309335,0.04754831343696799,9.623243617387994,0.8406437301846287,0.08735554908593304,-5.483777677265278,30.14273404295661,49.01671787472168,0.6149480289560854,4641.696518666317,1.6261536795191713,4.373646852161582,318.8348645197272,0.59,0.5979381443298969,0.8448275862068966,0.3684210526315789,50.781521361583906,50.8358433798393,50.7285983631805,52.57731958762887,0.519418538710746,0.4805814612892541,21.725326140667423,20.89734384058981,0.44961862364637517,0.5503813763536249,32.86747745848892,36.364372079355114,0.46877299636767006,0.5312270036323299,27.859117631420457,29.656926141439698,1.0172865922748626,1.7528740532089224,1.4225819575080658,1.5618801373658353,0.040724203608872855,-0.18279622655200223,-0.4205315523937607,0.002429585417820264,0.27581267220829914,0.5710081776561924,1.2086131838824383,6.033660689688184,0.9685722357771221,1.2198507395686768,1.286840612668846,1.5352803742636585,1.7059772795710137,1.6838004719082658,2.6754421972358045,0.8637013046707142,Relax
101.8566122732448,589.48,40.30627191338285,,,,,,,42.46365052797058,42.676611105334885,0.06837597868186003,0.07203577819089804,581.5,34.8411,0.059915907136715386,51.25,0.9491946973996813,558.0,620.2,18.0,46.0,487.0,700.0,5.555555555555555,78.125,,,0.03374837639243841,0.005334086500591334,0.004569202040913775,0.04365166493394352,6.326927092145409,0.7731291909142207,0.122196633476941,-5.233637636520035,30.176921110643413,48.56207680959515,0.621409196088601,4603.859397587206,1.609245576496778,4.370092161717016,312.593229165351,0.61,0.6185567010309279,0.8666666666666667,0.3684210526315789,50.88204773434799,50.89894351142581,50.86328168478486,52.57731958762887,0.5194635684796064,0.4805364315203934,21.75126081262361,20.920403086607163,0.4368453071889837,0.5631546928110167,32.09675216651568,36.442746938482685,0.4598633015357773,0.5401366984642226,27.416407920964996,29.713103756831025,1.1511807953023394,2.1379248073310437,1.6467778433247577,2.0021812088573627,-0.4047928663189193,-0.9726055745334357,-0.3337624577282091,0.004928704524392529,0.4752844278339526,0.6170126982121222,1.3375041969504586,5.9212095647098195,0.9985087130653356,0.9474118787458066,1.1568805229741528,1.4085956585276496,1.637076433143407,1.665255062390236,2.972757922384415,0.9301398665684615,Relax
101.13829998034791,593.5757575757576,40.007675515899805,,,,,,,41.22090810870283,41.43279649371125,0.06740112783462801,0.06944506675450242,591.0,38.547599999999996,0.0652243654822335,51.5,0.9705675433058478,563.0,621.0,16.161616161616163,44.44444444444444,487.0,700.0,6.1875,78.125,,,0.033177622506908096,0.003652980651760751,0.0014255062027011807,0.03825610936137003,9.082342796126323,0.8672503048731336,0.09548751069415937,-5.612211827717168,29.29741136422543,48.74113124483571,0.6010818915354902,4486.159665217368,1.6636668215797616,4.358844836294982,324.35601159319134,0.5757575757575758,0.5789473684210527,0.8545454545454545,0.3333333333333333,49.891461649782926,49.9027018404506,49.88336080211947,55.78947368421052,0.5036992997753995,0.4963007002246004,20.79291612123567,20.639642568630514,0.4344635558748208,0.5655364441251793,32.127155903817275,36.65438211944266,0.45283928961780895,0.5471607103821909,27.06011370350209,29.745071641525275,1.0993668317597196,1.2914925198672451,1.4081280185858385,1.517600304013964,0.2785219889670305,-0.247656986264861,-0.41523583470744496,0.0012580212674901886,0.15204054511531148,0.6288166706210485,1.3862943611198908,6.0004206351655665,0.9739324528460993,0.9615603533836973,1.0181826583834388,1.4470608195130157,1.696626893917888,1.675390115977493,3.3915462098492504,0.8705215763740901,Relax
101.67388440489283,590.41,37.186153336961326,,,,,,,39.14451339961872,39.34365922132207,0.06298361026568203,0.0663005596104719,589.0,34.8411,0.059152971137521215,44.5,0.949971020391418,563.0,615.0,14.000000000000002,39.0,487.0,700.0,6.25,78.125,,,0.04778945023968746,0.009337087501762497,0.00578400600159935,0.06291054374304932,5.118239518550788,0.7596413477981978,0.148418483551799,-4.673760906017085,27.820168232089475,44.934310376602205,0.6191297473784252,3927.2423770972873,1.61517033260684,4.301057815354331,290.30626014574227,0.58,0.5789473684210527,0.8727272727272727,0.3,49.86171473725801,49.875211077768704,49.85156102720577,54.736842105263165,0.5030026961640638,0.49699730383593616,19.73084190927948,19.612704129347033,0.43485366077468063,0.5651463392253194,29.631227715511326,33.77991404803058,0.45373796148299544,0.5462620385170046,25.172562229314938,27.62010822170724,1.0869181136154216,1.987331932571108,1.6044114483657674,1.762601944897155,-0.10102679754528587,-0.46146650923683996,-0.42040056623720184,0.0034100690060838382,0.38119597547511624,0.69021660722394,1.4733057381095205,5.953660689688185,0.936763163020578,1.1922856510284623,1.0442697056876882,1.6104446074183696,1.6262057462760453,1.6708345210682267,3.110592711050602,0.9301398665684615,Relax
101.28486347020056,592.61,35.39243056663588,,,,,,,36.486194981697174,36.66903067658958,0.059722972218889114,0.06156864545265381,590.5,31.875899999999998,0.05398120237087214,40.75,0.9700225135668444,565.0,615.4,12.0,36.0,514.0,700.0,7.142857142857143,54.6875,,,0.03570329566154145,0.0055133365707085834,0.006086708516755336,0.04730334074900537,6.475805567762173,0.7547732379196108,0.11655279486416634,-5.200585290864684,25.928920250954025,42.98829499402723,0.6031623318523467,3501.7450635542937,1.657928466668238,4.25125463505537,285.0860720165178,0.57,0.5684210526315789,0.8333333333333334,0.23809523809523808,49.0388722768048,49.045350765964585,49.03824617524826,51.578947368421055,0.48134574673920466,0.5186542532607954,17.99064382689298,18.6748493969831,0.5121805012771347,0.4878194987228652,30.765341547149028,30.02477753424282,0.5039541712197219,0.4960458287802782,25.200887938908586,25.002372547228116,1.131911912653893,1.8288137669958175,1.5374975909656396,1.7518980427759847,-0.38828001203372686,-0.791174373784246,-0.38276528989469527,0.0016682481681547488,0.266953518356284,0.6446128617375564,1.2119409739751128,5.99101406462328,0.9215350482173421,0.6858543362348752,1.022936545539063,1.5188309762372825,1.6128692589966052,1.6725233439825598,3.122712776970504,1.063016990363956,Relax
101.3881459710377,591.99,34.676716200710906,,,,,,,34.489934119327565,34.66373792395219,0.05857652359112638,0.05826100798886394,588.0,29.651999999999997,0.05042857142857143,38.5,1.0054155534405231,565.0,615.0,10.0,33.0,528.0,700.0,6.666666666666667,39.0625,,,0.03259578787094575,0.009694270673867373,0.006585324733763691,0.04887538327857681,3.36237649716275,0.666916260997041,0.19834669364355845,-4.636220220155137,24.510964147299887,42.65877734149544,0.5745819658890542,3284.8736635886776,1.7403957300551436,4.223488781190502,296.97261573804707,0.6,0.5957446808510638,0.8571428571428571,0.3333333333333333,49.22089825847845,49.23103311828136,49.21519627238323,52.12765957446809,0.4986668478168571,0.5013331521831429,17.30960568527174,17.355820055414217,0.4698574546433741,0.530142545356626,29.240949089603937,31.06023471595916,0.4770085351117677,0.5229914648882326,24.027646083630426,25.159120318548432,1.1942138524527335,1.1512801992601867,1.5176167242854013,1.5537044196316487,0.4880705782033967,-0.08395433761394422,-0.46865428992052716,0.0012113289164005796,0.12989238670889222,0.6236556191027356,1.329135947279942,5.943465189601645,0.8837739265581567,1.6756488774356737,1.0056884233233567,1.2309552695996224,1.7046801767666588,1.6473704032022225,3.1916712292681857,0.9965784284662087,Relax
101.7986421133089,589.6534653465346,34.77856686051464,,,,,,,34.51231664203375,34.68603771146557,0.05898136601313036,0.05852982924767709,585.0,26.686799999999998,0.04561846153846154,37.0,1.007714643477645,563.0,608.0,9.900990099009901,34.65346534653465,528.0,700.0,6.3125,39.0625,,,0.04432184313516891,0.013267831313996045,0.00816746311723483,0.06575713756639978,3.340549188955578,0.6740233041685233,0.2017702078439553,-4.3224128717258115,24.526732478269622,42.730068896256036,0.5739923457136908,3292.4801084920573,1.7421835107515582,4.224493269814828,297.7744857773412,0.5841584158415841,0.5833333333333334,0.8392857142857143,0.3157894736842105,50.22281639928698,50.24392324715842,50.20318673788081,50.0,0.5016119553354043,0.49838804466459574,17.371025451956637,17.31511280105132,0.4769096064494793,0.5230903935505207,29.508805397026766,30.90451733839556,0.48303135609251563,0.5169686439074843,24.212828430525434,25.048975260799825,1.136327600752981,1.4250133312992221,1.4897862235257269,1.475246843714005,0.3459233112460911,0.15877084166460387,-0.510202978100188,0.0010494037268552327,0.16357974044759632,0.6148005769682645,1.3581234841531942,5.893021259829574,0.8927761463610147,1.1855994496423334,1.0479756595682612,1.4360006700802812,1.7495448767122939,1.6710280092975114,2.486593577719429,0.9229204035497537,Relax
102.10926957743067,587.6237623762377,37.094433945040464,,,,,,,31.549326458737593,31.667464104791886,0.06312616391658107,0.05368967097443128,584.0,29.651999999999997,0.05077397260273972,39.0,1.1757599324205907,560.0,608.0,6.9306930693069315,31.683168316831683,528.0,701.0,7.214285714285714,78.125,,,0.059685945293694864,0.021672094392418104,0.018055747204729085,0.09941378689084204,2.754046019408985,0.6003789530644377,0.21799888194797787,-3.8317298187078084,22.392278611479924,46.23392431511474,0.48432571846728284,3252.4371987879686,2.0647261994771644,4.219179029497288,381.84157935224687,0.5841584158415841,0.5833333333333334,0.8571428571428571,0.2,46.04743083003951,46.14377262134563,45.94269051316399,54.166666666666664,0.4394992766436265,0.5605007233563735,14.86403020514268,16.78593687488657,0.46966127965220683,0.5303387203477933,31.684958034634754,33.66955883166858,0.4639184660351661,0.5360815339648337,24.747484312511034,26.602695997650954,1.005360201329518,2.393763022022005,1.510101142163254,1.5264405721973715,-0.3062283988129142,0.25961810455647116,-0.4931741655778793,0.0019511579038149756,0.3980226557914272,0.7101048472998941,1.3188530803243579,6.011833141017694,0.8338988803070061,1.0374110935215455,1.225351723115676,1.5652928834148798,1.6747003223598322,1.6975295423204593,2.214092795824052,0.7910746316140745,Relax
103.40656161735234,580.2178217821782,29.258367678459457,,,,,,,31.647906723826143,31.800214407510467,0.05042652359176146,0.054544871832129284,581.0,26.686799999999998,0.04593253012048192,34.0,0.9244961423130169,557.0,600.0,7.920792079207921,29.7029702970297,527.0,667.0,6.733333333333333,78.125,,,0.03309104923261055,0.019617381359141567,0.010425589256619534,0.06313401984837165,1.6868229569891269,0.5241397476682935,0.31072599853860783,-3.9313393016862186,22.4861472507368,33.80748452785286,0.6651233466427002,2388.238971727599,1.5034805274053826,4.085047890924163,203.31557867274213,0.5841584158415841,0.5833333333333334,0.8571428571428571,0.23809523809523808,48.3325037332006,48.476819888235156,48.17987924324592,52.083333333333336,0.46279415728990914,0.537205842710091,15.300524847405091,16.484764928486992,0.4584234813003839,0.5415765186996161,22.89002596959839,24.87956432922653,0.4597644095577219,0.540235590442278,19.46868446370927,21.103793449988984,0.9945557750636519,2.360170773114899,1.4858249883831451,1.5302938546870573,-0.27714094501238584,0.22547185898456412,-0.4811586234307854,0.002098407216079022,0.39498479910597817,0.6241739792614354,1.5088966832122228,5.8829267052884475,0.9848813266109668,1.1498978379861238,1.046978745959263,1.1416894586714526,1.7999855584767668,1.7802273161821567,2.372062514922507,0.9888432895175933,Relax
103.1388372559515,581.9803921568628,28.617304324051617,,,,,,,30.095392891061028,30.242180889454637,0.049172282622776606,0.05171203926566195,584.0,28.1694,0.04823527397260274,38.25,0.9508865502317986,558.2,603.8,6.862745098039216,27.450980392156865,527.0,665.0,6.8,85.9375,,,0.03390024500670896,0.013709959238336044,0.004454354815948836,0.052064559060993845,2.47267292465148,0.6511194105570871,0.26332613750314815,-4.289632758546102,21.384451184803588,34.417156957966576,0.6213311346698469,2312.1871007876925,1.6094477553122526,4.070993083980152,221.5704640409151,0.5882352941176471,0.5876288659793815,0.8596491228070176,0.22727272727272727,51.19363395225464,51.225557524675416,51.159454456233746,50.51546391752577,0.5030990719181452,0.4969009280818549,15.169541852013857,15.075808436034201,0.4865120076749024,0.5134879923250977,24.00610902994837,24.66267265142888,0.4911326760004418,0.5088673239995583,20.0799436099528,20.439268850811885,0.9188153885208038,2.4875823437269524,1.456700260328144,1.4816762833682633,-0.3818693934211268,0.23295071136798073,-0.48995972008600946,0.0022353046273524157,0.43456064056205024,0.6816379348809392,1.513294051881198,5.865525709385239,0.9461290803913557,1.0569346315305832,0.9532084139530003,1.5234840136416918,1.7901279614496823,1.7351479520367241,2.526026698484226,0.8504071514277396,Relax
102.91917812110806,583.1386138613861,26.946253803811135,,,,,,,24.512649795564737,24.625212915041182,0.04620900273672555,0.042035717088341314,585.0,26.686799999999998,0.04561846153846154,35.0,1.0992795160271382,560.0,604.0,4.9504950495049505,22.772277227722775,527.0,665.0,7.214285714285714,101.5625,,,0.05565151834111956,0.01252786822857226,0.0017089643698211625,0.06988835093951298,4.4422177281682576,0.7962917652655,0.1792554561691531,-4.379799657942561,17.41265504038817,33.63771557479653,0.5176527223339392,1840.0997363695806,1.9317970462732297,3.971811473069731,259.92495836308376,0.5742574257425742,0.5729166666666667,0.8545454545454545,0.17391304347826086,52.368591823491236,52.4253268455581,52.310719887322996,50.0,0.5582738362707408,0.44172616372925927,13.016112780672728,11.578018183199793,0.4932507779211921,0.5067492220788081,23.62437803146862,23.945452004862464,0.5070019979713729,0.4929980020286271,19.072629987667263,18.807381220782396,1.1537129345763868,1.5812953779357368,1.5033200284393284,1.1626608193774652,0.7074993631811193,1.6899675621966814,-0.7154304716343182,0.0007103907805205528,0.16332977394448675,0.7141448988905261,1.484734433933143,5.73945913107386,0.939490508107823,1.0561274496421265,1.1869377487512107,1.5796647094997682,1.7037731373887017,1.6753017809460855,2.129240287015761,0.9229204035497537,Relax
102.6555932460064,584.6732673267327,25.712296245528552,,,,,,,18.540496217739157,18.63383205273937,0.043977205188619924,0.031710866998436206,586.0,25.2042,0.04301058020477816,31.0,1.386818127387959,565.0,605.0,0.9900990099009901,21.782178217821784,527.0,665.0,6.733333333333333,101.5625,,,0.031285613803185564,0.009810437534996967,0.0007521652478619338,0.041848216586044464,3.189013098710407,0.7475973017597765,0.2344290470497266,-4.624308405482335,13.17610900398325,33.558406043219875,0.3926321466822273,1389.11556070894,2.5469132073114213,3.849708486218206,341.8813902711845,0.5544554455445545,0.5520833333333334,0.8301886792452831,0.16666666666666666,49.81577008106115,49.826189725528195,49.80505328016445,51.041666666666664,0.5195054545454544,0.4804945454545455,9.496942623387758,9.133410749506009,0.48474995514191604,0.515250044858084,23.36470022633859,24.088532530956492,0.48939224185145286,0.5106077581485474,17.83397229809705,18.216429279830624,1.305128997886433,1.6589545900444662,1.640994782445832,1.8812734843440557,-0.17189781322976216,-0.5850969064718265,-0.35516258049487454,0.0019514871737506875,0.23745936004459978,0.683223403074849,1.4013322384844311,5.7271312845606275,0.9947185300878708,0.7141548677728183,1.09679453010595,1.3964838710742988,1.7545853583153417,1.6480602658053116,2.283052053672121,0.7910746316140745,Relax
102.9960496108959,582.6039603960396,23.177609543661227,,,,,,,17.233687939614086,17.318221851010225,0.03978278748380919,0.029580451063015527,585.0,22.238999999999997,0.03801538461538461,30.0,1.344901313338986,565.0,600.0,0.9900990099009901,19.801980198019802,527.0,658.0,6.3125,93.75,,,0.021883009031468444,0.008926929759072577,0.0007173852873592784,0.0315273240779003,2.451347733438633,0.6940966184569966,0.2831489833077868,-4.718682755184572,12.245832108942373,30.516493305036928,0.40128569120099805,1174.012714614128,2.4919901753962983,3.7766429103289694,304.1872060147958,0.5643564356435643,0.5625,0.8333333333333334,0.21739130434782608,51.12359550561798,51.112824653166356,51.1327772183319,50.0,0.5181481481481481,0.481851851851852,8.816020770292129,8.501633829904566,0.4836825194767838,0.5163174805232161,21.223393325347956,21.927697995775553,0.48846385022735433,0.5115361497726457,16.250456093055455,16.629818356971267,1.353474673853326,1.3848014777437125,1.5649216937159518,1.9239036570366599,-0.5461091081236358,-1.2486939148682152,-0.2407700893664518,0.0011194466622694045,0.15235673512529335,0.6866755746541839,1.55814461804655,5.607586394252243,1.025168701936832,1.0100182849459902,1.0121089626340343,1.4916458569812825,1.6789492579225453,1.6723861856673683,2.355810748449571,0.7910746316140745,Relax
102.86046625288348,583.3235294117648,22.919645153330187,,,,,,,17.369884032057577,17.445258086453475,0.03929148062387063,0.02977744451620822,586.0,20.7564,0.03542047781569966,28.0,1.3195047883468918,565.0,600.0,0.9803921568627451,20.588235294117645,527.0,658.0,6.0,93.75,,,0.02278645148316037,0.006517094325711579,0.0004453782797248799,0.029748924088596827,3.4964127177447892,0.7659588432609813,0.2190699168246448,-5.033326657943239,12.335660292480705,29.176414589816066,0.42279561988354897,1130.6916767415078,2.3652089874427533,3.76031430521009,276.0332720367553,0.5980392156862745,0.5979381443298969,0.8620689655172413,0.2727272727272727,47.57131842713956,47.75479346611966,47.374544604696446,51.546391752577314,0.45761821940734415,0.5423817805926558,8.350149699256892,9.090654541890808,0.4481089692507656,0.5518910307492344,19.530966717384892,21.674974219159644,0.44955260838510464,0.5504473916148955,15.019714726245574,16.619935430097723,1.1177646042523488,1.9160072396072052,1.4459602457221594,1.768460386622228,-0.7542355493003523,-1.0015124588544673,-0.33168114700538226,0.001652410923085381,0.26518470238387315,0.7067341509751257,1.6010696627635836,5.654303073030669,1.0243297668448472,1.029302206510993,1.2028057334593172,1.6047335944329335,1.687304166591905,1.713440288362087,1.987127369994094,0.7849912167025288,Relax
103.35838906895151,580.5742574257425,20.55497338098664,,,,,,,17.243549518588104,17.329253599132027,0.03540455526245184,0.02970085100749341,585.0,19.273799999999998,0.032946666666666666,25.0,1.192038411745152,565.0,598.0,0.9900990099009901,19.801980198019802,527.0,617.0,5.315789473684211,70.3125,,,0.03901915804525011,0.01456753169951926,0.002785066447105707,0.05637175619187507,2.678501674140017,0.6921756688303066,0.2584189793543969,-4.228960082905529,12.253632732847642,26.482370732167457,0.4627090548945253,1019.463293262986,2.1611852835427015,3.715341703175189,228.93323959872905,0.6039603960396039,0.6082474226804123,0.847457627118644,0.25,49.212598425196845,49.22077805417278,49.20509289822307,50.51546391752577,0.4722203538037263,0.5277796461962737,8.421053462254077,8.902672394150857,0.5299754861999693,0.47002451380003085,19.27901103964274,18.155872133535553,0.5197895637913823,0.48021043620861786,14.876061442478786,14.298483637904905,1.1901242305401314,0.7844005454177463,1.3456199649727183,1.4675313595916357,0.2135662250758763,-0.5566891876720512,-0.3445801761216377,0.00019653396581036063,0.04217709318526686,0.6790347169133151,1.4395388756387029,5.531573364515944,1.0906994042031777,1.1695633544895097,1.274149740304106,1.5355270718697778,1.679009762874433,1.712252676439186,2.8204383347049635,0.9888432895175933,Relax
103.46882448170567,579.9117647058823,20.16521018500612,,,,,,,17.194576625975255,17.278820091730115,0.03477289376123184,0.02965033246858846,583.5,17.049899999999997,0.029220051413881745,24.25,1.1727657286160353,565.0,595.8,0.9803921568627451,19.607843137254903,527.0,617.0,5.368421052631579,78.125,,,0.018168861444929088,0.01008397958299491,0.0019574704099548524,0.030210311437878848,1.801755080461299,0.6014125833257141,0.33379263910372103,-4.5968072943516,12.217970857764724,25.851326641178602,0.4726245204879624,992.2744132241818,2.1158445164198154,3.7036019027494755,218.78955086366093,0.6470588235294118,0.6530612244897959,0.875,0.2727272727272727,49.09945184025057,49.11725690066466,49.082137884302156,51.02040816326531,0.4726231539466192,0.5273768460533804,8.40029761377536,8.873556220591606,0.5264197374877982,0.4735802625122019,18.75637544127723,17.7901509103988,0.5165956947696269,0.4834043052303731,14.532147461647702,14.057550807568921,1.1593906169433061,0.4743861320966325,1.3380424778168436,1.3965836829916225,0.062163283074676556,-0.9441300284600433,-0.37659587577730047,0.00014246686729906522,0.018444697970802084,0.67772739569818,1.3862943611198904,5.474258681103215,1.1007276783484055,1.1079060882340364,1.2536144182309172,1.5634449145685796,1.7430611628416888,1.736371843786408,2.65310338897838,1.0466549556033717,Relax
102.95451829848325,583.3861386138614,50.79349767382233,,,,,,,68.19406132501568,68.53755071919231,0.0870666858738002,0.11689352353665157,583.0,19.273799999999998,0.03305969125214408,29.0,0.7448375516416077,560.0,596.0,3.9603960396039604,20.792079207920793,527.0,1045.0,5.9411764705882355,93.75,,,0.017147814775729537,0.017414202121370778,0.003796029513239189,0.0383580464103395,0.9847028681656147,0.44704609281423946,0.45399085070914197,-4.0504691918111675,48.463366879457816,53.37879643726437,0.9079141927903224,8127.036914679317,1.1014256720964646,4.616902342374289,235.17110696645713,0.6336633663366337,0.6428571428571428,0.873015873015873,0.20833333333333334,49.794238683127574,49.57780498442347,50.04389792831261,51.02040816326531,0.5410402908978311,0.4589597091021689,35.647474303832865,32.83229501511577,0.4741366654129457,0.5258633345870545,36.75534874152483,38.70840022501314,0.504366896835251,0.49563310316474896,36.20564931991647,35.89080553525787,0.15107824664024716,3.057528655424213,1.1355365430652364,1.1372921084594645,-1.1202334181656752,-1.0351324863798965,-0.49942582209618425,0.010203457801358734,0.8019367613209436,0.7275926792304781,0.7924021386552869,5.519659814834061,0.5761025291666844,0.7689453980957909,0.9553693929512227,0.911658539247284,0.9517655506593647,1.9344507783547016,1.4879863541248473,1.0547661754854327,Relax
102.8326862342748,584.1287128712871,51.03364838346101,,,,,,,68.65529841170309,69.00090688907757,0.08736712861212541,0.11753453802027242,584.0,20.7564,0.03554178082191781,28.0,0.7433315354254106,561.0,598.0,4.9504950495049505,24.752475247524753,522.0,1045.0,5.9411764705882355,101.5625,,,0.037682549838235574,0.014915251989949602,0.004081286727761021,0.056679088555946194,2.5264440630052607,0.664840434070147,0.2631526435931872,-4.20537096608945,48.7910091692883,53.578072459587865,0.9106525660490999,8212.526026097596,1.0981136355202261,4.62144686884289,235.33924773105653,0.6435643564356436,0.6530612244897959,0.875,0.2727272727272727,50.412863972186,50.28457458797414,50.56099049162922,50.0,0.5391435330059086,0.46085646699409133,35.82561580035642,33.1225913932781,0.4818010198269382,0.518198980173062,37.1895516580296,38.56873210204862,0.5077967406622308,0.49220325933776937,36.513952812589324,35.94894404962166,0.9094916343878429,1.7889379016738418,1.3191502471489425,1.037235633012295,-0.19383367897472858,0.3534812698984582,-0.6575877026658502,0.0028232893703748264,0.21863785831386315,0.7305118343662884,0.7872055346218263,5.479668725553787,0.5964754552160204,0.5765923800674664,1.0050052007867867,0.9351622240181806,0.9835453006481025,1.8433072657104663,1.548831687283215,1.0547661754854327,Relax
102.59955983204713,585.4851485148515,50.92045048139032,,,,,,,68.40014619867416,68.74472174412206,0.08697137854060984,0.11682644106717101,584.0,20.7564,0.03554178082191781,27.0,0.7444494392378556,565.0,600.0,4.9504950495049505,20.792079207920793,522.0,1045.0,5.9411764705882355,101.5625,,,0.06454902160635759,0.19704148347389078,0.040092504162719644,0.30168300924296804,0.3275910253432026,0.21396306596229753,0.6531408048744252,-1.6243409964025666,48.60985891605101,53.50638779952852,0.9084870221136353,8171.087593995822,1.100731188953537,4.619249976119045,235.5845994367362,0.6138613861386139,0.6224489795918368,0.8524590163934426,0.21739130434782608,50.090497737556575,49.93351186511319,50.278860175527164,52.04081632653062,0.5406875590456934,0.4593124409543067,35.74354501306509,32.9441676449441,0.4783615618958615,0.5216384381041385,37.00699065819535,38.6447432101415,0.506542856414985,0.4934571435850147,36.380752931163805,35.90775932577776,1.0793137804739263,1.3788448751594058,1.364671249245664,0.9329419626175175,0.22750876399647524,0.9176398421814054,-0.8131093964273792,0.004444498308635106,0.1828920134716806,0.6987148348025212,0.7569137989189345,5.534220953319401,0.5919564852031945,0.6447937534029877,0.9495664728613935,0.8883427419111616,0.9460396771261219,1.8090168978362764,1.4900420538964478,0.9888432895175933,Relax
102.38684035158481,586.6534653465346,50.13729861960343,,,,,,,68.27408000112489,68.61776649518606,0.08546322758016517,0.11637889151612796,584.0,20.7564,0.03554178082191781,27.0,0.7343533390530838,567.0,600.0,4.9504950495049505,19.801980198019802,522.0,1045.0,5.9411764705882355,101.5625,,,0.05536147514283637,0.13744800437539673,0.027020400054170363,0.21982987957240346,0.40278122184759857,0.251837808629661,0.6252471440313311,-1.9845095833893658,48.52008799862114,52.030718879049765,0.9325277267725359,7931.060793962767,1.0723541738120588,4.606301388849831,223.1814342255636,0.594059405940594,0.6060606060606061,0.8333333333333334,0.19047619047619047,50.435180943655524,50.34186657510526,50.55656630863153,51.515151515151516,0.5400988983878062,0.45990110161219394,35.65824029603958,32.90451444265772,0.48012408242343285,0.5198759175765671,36.05259844724066,37.51540819813543,0.5080201946346378,0.4919798053653622,35.85596153924812,35.2853576075105,0.6543111919788687,2.617291719996476,1.3517717582153441,1.2456715502480373,-0.8840275318020456,-0.47211716545812543,-0.5405381666692659,0.005237856515856326,0.48975256930973887,0.6963815504095856,0.7535428908496852,5.483277913440919,0.5859136152763246,0.6728894331531874,0.9833292455079786,0.928229282849325,0.9161995111005241,1.8022688415080153,1.475414290242165,1.0547661754854327,Relax
102.54965295268804,586.0792079207921,55.91684597119491,,,,,,,80.93485034272936,81.34231135246661,0.09540834278965242,0.138095413126595,584.0,20.7564,0.03554178082191781,27.0,0.6908871238336465,567.0,598.0,6.9306930693069315,20.792079207920793,394.0,1045.0,5.9411764705882355,226.5625,,,0.057797522306706886,0.13374025521051253,0.02825783292192946,0.21979561043914886,0.43216249449899186,0.2629603120427572,0.6084755511873107,-2.01185575409947,57.517699954716626,54.78845036072195,1.0498143235668385,9900.118675586285,0.9525493961659907,4.702610510604123,208.7548212319042,0.5841584158415841,0.595959595959596,0.8135593220338984,0.25,49.61859789320741,49.81088397552397,49.559832439828725,50.505050505050505,0.4763306337732523,0.5236693662267479,39.69695813092591,41.62282542018977,0.5373313243811981,0.4626686756188019,40.161515861744206,37.266968438768416,0.5053493207051333,0.49465067929486684,39.92991260422201,39.50497774063261,0.5997525368235749,2.0408435811695966,1.1991711061788883,1.1385729403839537,-0.6193859833055377,-0.6721506173826125,-0.529692704700184,0.00370134337556915,0.3189536190354134,0.6699636455725355,0.7296881800229246,5.513174448180066,0.5396233545249369,0.554479376933802,0.9199259061558385,0.8694199451985708,0.8686319930860954,1.9192556259497255,1.6698902253750323,0.9888432895175933,Relax
102.79815026369388,584.6336633663366,56.39977354072926,,,,,,,82.9033171833311,83.32096635507436,0.09647028057874366,0.1418038720281202,583.0,19.273799999999998,0.03305969125214408,22.0,0.6803078025938055,565.0,595.0,9.900990099009901,25.742574257425744,393.0,1045.0,5.9411764705882355,218.75,,,0.06385088735613167,0.18688984590940588,0.0390516642242867,0.28979239748982427,0.3416498475100843,0.22033320373207418,0.6449094162864238,-1.6772358949991373,58.91682032468925,54.355580126690676,1.0839148471484867,10060.818362768034,0.9225816978434735,4.7096034183138205,200.58985360219702,0.594059405940594,0.6020408163265306,0.8305084745762712,0.2857142857142857,49.967490247074124,50.15994040009301,49.87869388536126,50.0,0.47925639025980066,0.5207436097401992,40.78714146751288,42.515891265514,0.5340576929007266,0.4659423070992733,39.7226508417929,37.103100962185096,0.5044538805675511,0.4955461194324488,40.25841464209625,39.901385383913116,0.740251710452122,1.7185236236138741,1.2396286525370783,1.0842596641594036,-0.27271788022367893,-0.24014943192984983,-0.590408410011234,0.0031344340764876046,0.2301558284823178,0.7131528106759366,0.7750259543230547,5.577434101602572,0.5632056841025302,0.5532322492893904,0.9969936751554523,0.9086140266590217,0.876782621579069,1.897056585551887,1.709365088770928,1.1866119474211119,Relax
102.83365421886491,584.4554455445544,56.284016337229396,,,,,,,82.71565752625074,83.13216688934057,0.09630163730408553,0.14152602761564162,582.0,17.7912,0.030569072164948453,22.0,0.6804517792700497,565.0,595.0,9.900990099009901,21.782178217821784,393.0,1045.0,5.05,218.75,,,0.05569950031708002,0.14550827179880865,0.03294915171721099,0.23415692383309966,0.38279267307974485,0.2378725318273357,0.6214134923574703,-1.9275223431356197,58.783318942184486,54.17428664351136,1.0850778585974268,10004.541198547982,0.9215928535235264,4.7071672869412495,199.70654166158036,0.6039603960396039,0.6161616161616161,0.8360655737704918,0.35,49.70218398411647,49.884364944303435,49.63661130990074,51.515151515151516,0.4784679064818444,0.5215320935181558,40.66132602785397,42.45175514806796,0.5337934984653956,0.4662065015346043,39.58036922873292,36.98983245502073,0.5038769281603469,0.4961230718396532,40.12448792586805,39.81456530091732,0.5373501849657084,2.3048122463214007,1.2418332720344631,1.1831241285878704,-0.36604095561036587,-0.36425413863758194,-0.5254724190832877,0.00474247537845535,0.45737441567687126,0.6991959540183492,0.7082262873870657,5.597236081800592,0.5397172951755776,0.5517252918282021,0.9051314044630675,0.8563836692768252,0.8192199947945759,1.8777258764074427,1.7313179950963753,1.1866119474211119,Relax
103.54118456126619,580.8529411764706,59.79492959378092,,,,,,,90.58129109827097,91.03275767709681,0.10294331896240576,0.15594530848859248,579.0,17.7912,0.030727461139896373,25.0,0.6601245010838921,561.2,591.8,16.666666666666664,29.411764705882355,393.0,1045.0,5.666666666666667,203.125,,,0.05805717873737097,0.15750672415560454,0.038868785837266974,0.2544326887302425,0.36860127114328745,0.22818286057152432,0.6190506610673682,-1.8482871285763143,64.36988026358691,55.457282641865916,1.1607110409515933,11214.790361049709,0.8615408699655028,4.756761269656056,191.11486213278377,0.6568627450980392,0.673469387755102,0.8636363636363636,0.47058823529411764,49.690242643262785,49.84977678898488,49.62151184067672,50.0,0.47547972612591743,0.5245202738740824,44.386428105897416,46.61925567831386,0.5400465794083978,0.4599534205916023,40.75437108306589,37.611054699962395,0.5029870623401568,0.49701293765984295,42.60911734814649,42.35532100954709,0.3272761590476968,2.6648367835252786,1.161384694970883,1.214901132400065,-0.42810629004505607,-0.5595397741742341,-0.4799175552664108,0.006736853645836527,0.6904404220458632,0.6719627379309108,0.6825810445220634,5.604838547955994,0.5486245713971438,0.75979618925465,1.0298156854603309,0.9782320459889433,0.8645398168963147,1.9270245229131724,1.862617257300001,1.1120708903285825,Relax
103.52152720914391,580.7647058823529,60.13980024638438,,,,,,,90.92064868024009,91.3727118742107,0.10355278073417751,0.156553330048018,579.0,22.238999999999997,0.03840932642487046,28.5,0.6614537084737567,558.4,595.0,16.666666666666664,32.35294117647059,393.0,1045.0,6.0,218.75,,,0.0634699950662903,0.18716072607383444,0.03925818605844658,0.2898889071985713,0.3391202652272867,0.21894592545693345,0.6456291407716095,-1.6757875335631658,64.61026418165895,55.804991969472326,1.157786461415557,11327.248792144395,0.8637171303396993,4.761094549438462,192.7989100900104,0.6372549019607843,0.6499999999999999,0.8615384615384616,0.5294117647058824,49.3604213694507,49.48046301716321,49.33671814842636,50.0,0.4753180832244411,0.524681916775559,44.54514563900313,46.80112178142742,0.5425561666784988,0.45744383332150107,41.105070933348884,37.74347986443789,0.5040460354250363,0.49595396457496355,42.85963635190832,42.514205110040734,0.6877436028383034,2.1856783883545834,1.3021448745260369,1.3081535595617337,-0.5932983054149403,-0.5941630136159683,-0.49725088326456834,0.0032868727602596653,0.3702470697238952,0.7153506603993427,0.7455683109235524,5.809296910429262,0.5881174786393258,0.8022406736173926,1.0893291075691671,1.0515370999341216,0.9693933357567889,1.8798300692861831,1.8912736317097314,1.1120708903285825,Relax
104.05825282729404,577.9117647058823,60.625633068643424,,,,,,,90.8991389692253,91.35249540018917,0.10490465287464383,0.15728895745094715,575.0,20.7564,0.03609808695652174,28.75,0.666954976209057,553.2,594.4000000000001,16.666666666666664,33.33333333333333,393.0,1045.0,7.285714285714286,218.75,,,0.056707827016025204,0.14052095310023935,0.03442818325650707,0.2316569633727716,0.4035542441529925,0.2447922401744238,0.6065906720624649,-1.9623986689414201,64.59596897578665,56.99800587097172,1.133302261872366,11566.8459533711,0.8823771324234957,4.770185061671875,201.1749478971424,0.6274509803921569,0.6363636363636364,0.8412698412698413,0.5625,49.94989979959919,50.123504358361295,49.854719981193405,48.484848484848484,0.47616616818129537,0.5238338318187046,44.57431996116149,46.752219198664775,0.5429706249162639,0.45702937508373614,41.999858673748435,38.53290210524617,0.5054102626748961,0.4945897373251039,43.30622431368753,42.840136231415535,0.808163350046346,1.9321665331575049,1.3797305903823158,1.3010052933628635,-0.25711149541022316,-0.22613811536868988,-0.5407445712719189,0.003056364315164909,0.3023634160185794,0.7254864849459075,0.795749659039313,5.841111738839426,0.6060408859282753,0.874311708557288,1.242999454448532,1.260050414532101,1.0213111767087135,1.858721324434488,1.8922454842864158,1.1120708903285825,Relax
102.28496130339585,588.43,93.2484738684118,,,,,,,123.4542813998753,124.08204273467805,0.15846995202218075,0.20980283364185257,577.0,28.9107,0.05010519930675909,38.75,0.7553279870981129,552.8,602.4,21.0,38.0,393.0,1263.0,9.090909090909092,234.375,,,0.034467215911397134,0.041341816902328736,0.013104562963484381,0.08891359577721024,0.8337131382693448,0.38764843115513214,0.46496620163600677,-3.1858807754686387,87.73925384116984,99.31428056663944,0.8834505303826592,27375.087142779637,1.1319252924856567,5.144325620296471,449.6653843135837,0.54,0.5510204081632653,0.7962962962962963,0.47058823529411764,50.33339683749286,50.48987508637873,50.260434741990956,47.95918367346938,0.4967859734699491,0.5032140265300509,61.84155197777954,62.24035865013921,0.5066273992457545,0.49337260075424527,70.68968357319199,69.75883428492173,0.5023133389258193,0.4976866610741806,66.41313467492111,66.10657004295841,0.6611201526628577,2.6539109298047747,1.4726743014435666,1.6853737504262025,-0.40246275593579917,-0.797059021657714,-0.4198543377647258,0.008518860828591825,0.7691805704953973,0.6461924137363524,0.6649005144386408,5.97101406462328,0.504599851678486,0.6316591432506105,1.00118360786605,0.9390108417041443,0.9496150245516591,1.9152036426311618,1.7917713176100158,0.9301398665684615,Relax
102.22123087201666,587.91,93.91852207034984,,,,,,,114.48492468354941,114.9638816485164,0.1597498291751286,0.19473205879054517,574.5,31.875899999999998,0.05548459530026109,41.75,0.8203571110340714,552.0,605.0,22.0,40.0,393.0,1263.0,7.142857142857143,226.5625,,,0.059784219696144114,0.07243243294752168,0.009096571020029897,0.14131322366369567,0.8253791466518683,0.4230617499634826,0.5125665600828697,-2.6251011110101525,81.29174030519364,95.10370767408632,0.8547694121850085,24288.11118307192,1.1699061591871254,5.092363852240587,445.0496534777819,0.54,0.5555555555555556,0.8181818181818182,0.47058823529411764,45.215834493733844,46.355472341013595,44.19991432874837,49.494949494949495,0.39975939696649065,0.6002406030335095,51.44429323182941,63.03772760847916,0.454383872310094,0.5456161276899062,64.10750909673263,70.24914583658945,0.43129870604081405,0.5687012939591861,58.12180326138422,66.74090796809415,0.5430091295159263,2.319986713101022,1.326372086814452,1.2634699397345655,-0.14258812403214272,-0.2808325836602461,-0.5271131497110206,0.006349865161140369,0.5498327816501298,0.6585769665197567,0.6588410572189902,6.00120956470982,0.5153120689208127,0.49732599501680813,1.0043552485022695,0.9200274976570981,0.99827887403229,1.8259379519330572,1.799102187966587,0.8637013046707142,Relax
102.16109535292568,588.98,95.23081794707367,,,,,,,128.0218179006448,128.6733322314329,0.16168769388956106,0.21736191025271623,574.5,28.1694,0.04903289817232376,37.25,0.7438639718503328,553.8,605.0,21.0,37.0,393.0,1263.0,5.882352941176471,187.5,,,0.06369043909559112,0.0923200332980724,0.01313980189842981,0.1691502742920933,0.6898875230033192,0.37653169267469666,0.545787074153079,-2.3824941155413857,90.98578577871575,100.0926014250247,0.9090160959286238,28610.496835254853,1.1000905313765976,5.163495509568385,440.4436923540857,0.55,0.5612244897959184,0.8181818181818182,0.47058823529411764,49.99082400440448,50.22278527628444,49.84684068254673,48.97959183673469,0.475014621874324,0.524985378125676,62.70859069488626,65.92454716088194,0.5224457268680198,0.4775542731319802,72.34733991257737,69.16929425404633,0.5009856224375506,0.49901437756244943,67.69972281835719,67.56640136180924,0.6782760155076907,2.388534013044616,1.4277944647689809,1.4860914376301615,-0.4214847093141696,-0.6040636465071394,-0.4755929902849193,0.0063195531158063865,0.5588296805311015,0.575172498355502,0.5692448626178505,5.9461118146665495,0.5033764065212103,0.48161078123785694,0.9018675075491059,0.7957048174596455,0.9037790892907391,1.8508975415286884,1.7979268485366016,0.7972627427729669,Relax
102.30435812035282,588.18,96.34820898043395,,,,,,,129.0594961068481,129.71624360455127,0.16380735315793457,0.2194217690279304,571.5,28.9107,0.05058740157480315,37.5,0.7465410286482714,551.8,605.0,23.0,39.0,393.0,1263.0,5.882352941176471,195.3125,,,0.049083084522474785,0.0772848907562703,0.010924437300006,0.1372924125787511,0.635092888689793,0.357507626244973,0.5629217908304991,-2.5602568048967385,91.7232354828243,101.63382885637338,0.9024872575886665,29286.50356725525,1.1080488855564292,5.17363763554959,450.46100319654954,0.52,0.5306122448979592,0.7884615384615384,0.47058823529411764,50.097362365020345,50.33432570541956,49.936945627575,48.97959183673469,0.47653608687557564,0.5234639131244241,63.318034313991106,66.36252477021614,0.5195117605114797,0.4804882394885204,73.25478174986462,70.44978437714552,0.5002208794108122,0.49977912058918794,68.46691361018128,68.43667442484274,0.7795277078156365,2.278992352333668,1.4731232434857573,1.430916926559399,-0.4155298105915559,-0.42219673888866005,-0.5185197273185842,0.004828803460033202,0.45582671493231647,0.6212788445642148,0.6131044728864089,5.99101406462328,0.5451133048393486,0.6232397274574444,0.9824589057853748,0.8999529438415478,0.934502018994638,1.8694742405598097,1.8816673821328465,0.8637013046707142,Relax
101.26035987907149,594.5555555555555,98.09296113862253,,,,,,,129.93774019325798,130.60445018030936,0.16498535792330457,0.21854600294137952,576.0,34.099799999999995,0.059201041666666655,46.0,0.7549227883502335,552.6,618.0,24.242424242424242,42.42424242424242,393.0,1263.0,6.1875,195.3125,,,0.05800398154676077,0.10307618690128552,0.016015219822149904,0.1770953882701962,0.5627292131237868,0.3275295992364495,0.5820376685587157,-2.272286885526675,92.35129237563734,104.38097108152296,0.8847521863301092,30284.065928246866,1.130259993081148,5.188184292931754,471.91054260962267,0.5555555555555556,0.5670103092783505,0.8181818181818182,0.5294117647058824,50.50434782608697,50.80323500949101,50.26487591003925,46.391752577319586,0.4773911014895318,0.5226088985104682,63.80939723314844,66.76300599188268,0.5262607016253843,0.4737392983746156,75.72195238050342,71.84408849450665,0.5048027724082458,0.4951972275917544,70.01947317558509,69.35009740684819,0.709196557705411,1.7246225179650143,1.4076722898866607,1.0726668020627161,0.5874652466876533,0.584994294762345,-0.6942485873484,0.00681386445060275,0.39825283462261724,0.6392562188004316,0.673977264452225,5.997747276514149,0.5611333530573239,0.8475358998145486,1.160048558934054,1.0805033752427466,1.015687012807931,1.8229951596197425,1.8441592650275025,0.7365951800088454,Relax
101.20532747207177,594.6262626262626,94.81728786854563,,,,,,,122.14398495719914,122.77197488073628,0.15945694603156246,0.20541303442893788,576.0,38.547599999999996,0.06692291666666667,47.5,0.7762747211970434,549.6,614.8,22.22222222222222,42.42424242424242,422.0,1263.0,7.615384615384615,195.3125,,,0.06543579266738786,0.12148854589182109,0.01938074895122746,0.2063050875104364,0.5386169715592354,0.3171797334570222,0.5888780900067494,-2.1079352931407644,86.8128959778331,103.01941692220836,0.8426847925511646,28096.563484681737,1.1866833350256334,5.155623314176195,489.0057009825695,0.5454545454545454,0.5567010309278351,0.8333333333333334,0.3888888888888889,50.02908667830134,50.08530717811633,49.99972058114341,52.57731958762887,0.4974690115500073,0.5025309884499927,61.230425022643836,61.541160478087264,0.5022613508737664,0.4977386491262334,73.01027221503765,72.68081186996947,0.500271356272821,0.4997286437271787,67.37827838913482,67.34172126946113,0.8438840125314686,2.0171901581722,1.4974486508117164,1.2201336583366,0.2503463709103002,0.51745309857145,-0.6374758801750225,0.00432095413949942,0.3807073239283847,0.7230539103604108,0.8432655968592656,6.045776443202666,0.5675899074586237,0.8643830394590143,1.2434596060188545,1.2998564841684697,1.1224868956358445,1.7683732615668202,1.7736294673585669,0.9374847745567124,Relax
101.0469686546084,595.54,95.05813425945668,,,,,,,123.02089828212691,123.64696120926425,0.1596167079616091,0.2065703366392298,579.0,38.547599999999996,0.0665761658031088,48.75,0.772699074603223,549.8,621.4,23.0,42.0,422.0,1263.0,10.0,195.3125,,,0.04674022477777931,0.0716981394363405,0.009843118213746541,0.12828148242786636,0.6519028965776598,0.36435675588689653,0.5589126199617852,-2.6352904809972046,87.43160474418075,103.01529948234699,0.8487244630994184,28295.674554523535,1.1782386905028581,5.158690161716628,485.5064462553611,0.53,0.5408163265306123,0.8113207547169812,0.4117647058823529,50.0185666542889,50.04628949545751,50.00807563358306,54.08163265306123,0.5032170221854394,0.49678297781456066,62.022050061873564,61.62427298076759,0.4976613873943957,0.5023386126056043,72.67226604041412,73.01296923142432,0.4999876276226593,0.5000123723773405,67.5573569099853,67.55902862089225,0.8385840755241732,2.422911021349806,1.5403611912430724,1.5305606586603766,-0.376752641489972,-0.3461553907693239,-0.5040449411870007,0.00395347796882494,0.49803808254012094,0.7086044804454166,0.8119130172782366,6.10611181466655,0.6089804148713267,0.7703200434504373,1.1876509229008791,1.3117077909078658,1.1613588555513499,1.7838545024188657,1.8301130900710658,0.9965784284662087,Relax
101.07886990135886,595.4040404040404,95.17651905500077,,,,,,,122.48136051444476,123.11107820284744,0.15985198721596533,0.2057113358373065,579.0,32.6172,0.05633367875647668,45.5,0.7770694141152701,554.8,618.0,20.2020202020202,39.39393939393939,422.0,1263.0,7.615384615384615,195.3125,,,0.058323395983528634,0.09801909881269051,0.01518164037855245,0.1715241351747716,0.5950207325919377,0.34003025827298883,0.5714595133379662,-2.3225929334555637,87.05267823642077,103.48049967181765,0.8412471771251903,28300.26660395167,1.1887112696381565,5.158760636796317,492.0337445907088,0.5151515151515151,0.5257731958762887,0.7843137254901961,0.35294117647058826,49.95099000196039,49.96732940323735,49.95524777858701,54.63917525773196,0.5028986542326882,0.4971013457673118,61.73371482740815,61.37685684931276,0.49704883396419863,0.5029511660358014,72.95550143243128,73.38738735689923,0.49947309308903015,0.5005269069109698,67.57794290909288,67.649195042412,0.833192089373854,1.843627912011134,2.094633318237385,1.2607220789215892,0.864067691933645,0.838936876254238,-0.9523207930856927,0.0083599827482673,0.4990734987135597,0.6844823923689156,0.7404596939248639,6.086180483606709,0.558135498147047,0.9274802334914479,1.0596226728199143,1.1717226046476952,1.1041866368105806,1.7588683836564178,1.7700885225233394,0.9374847745567124,Relax
101.43686778989903,593.0,95.98033386999609,,,,,,,121.24654423857167,121.86709217360348,0.16185553772343353,0.2044629751072035,575.0,37.065,0.06446086956521739,52.5,0.7916129442925784,548.6,618.0,16.161616161616163,39.39393939393939,421.0,1263.0,8.25,203.125,,,0.06634623903911095,0.12100358984648726,0.019065569074410607,0.2064153979600088,0.5482997580756236,0.321420977770103,0.5862139697055482,-2.1119350656726996,86.17304727944105,105.52870034182267,0.8165839908983445,28568.794368652358,1.224613770470659,5.162862023075037,516.9275984738712,0.5050505050505051,0.5104166666666666,0.7959183673469388,0.2777777777777778,49.17093142272262,49.11826392184636,49.29427431238616,54.166666666666664,0.49840942172085095,0.501590578279149,60.83796291756294,61.031806816601524,0.49366476404977794,0.5063352359502223,74.14581692866078,75.09130727198541,0.4955629238418036,0.5044370761581964,67.81909723660897,68.42362848868326,0.6730930824168266,1.8439445122073295,1.7760199983244713,0.9475363720533547,0.7355906528609033,1.0074665408399408,-0.9492996512565144,0.01267799455813707,0.5711243030758729,0.672594234779532,0.761876512712126,6.093805609891187,0.5456928237685382,0.9063623951505368,1.0242733393652534,1.0137749181939741,1.1051673672971862,1.7483793117044102,1.8428529056323795,0.9374847745567124,Relax
100.0960258518593,600.8469387755102,95.84548906462658,,,,,,,117.49239940322,118.1011710269553,0.15951731277844886,0.19554464177293207,580.5,42.9954,0.07406614987080103,59.0,0.8157590580450758,551.0,635.2,15.306122448979592,39.795918367346935,482.0,1263.0,9.8,140.625,,,0.030366553657173168,0.08726051646297363,0.013208080395238356,0.13083515051538516,0.347998784422257,0.23209782338731902,0.6669500980373962,-2.4388571926361435,83.5101388992323,107.51299969349185,0.7767445717011975,28206.555710596193,1.2874245104923445,5.15732016785745,553.6594840078293,0.4897959183673469,0.4893617021276595,0.782608695652174,0.21052631578947367,50.658629158294275,50.755373466965416,50.54416423315514,54.25531914893617,0.5091547407718853,0.49084525922811445,59.58952473659556,58.508279328655696,0.4923530979237858,0.5076469020762141,75.439589510737,76.60230699883839,0.4986756434653648,0.5013243565346351,67.97809619238329,68.1583897533689,0.8266127058202722,1.590429158876534,1.5856795914630966,0.9447255930794498,1.074066521844164,1.4127545555799097,-0.9030069461480519,0.010811162438136603,0.4524159665795713,0.6657339075670894,0.7844969591481734,6.142621451191835,0.5717247243060131,0.9052900532266616,1.08141804216282,1.042216283889773,1.156850079363076,1.6922705041286374,1.7131529338730558,0.7424674314823193,Relax
99.83725261141338,602.3367346938776,96.21442375071142,,,,,,,118.08890587486044,118.69399203710552,0.1597352746543177,0.19605130996182085,580.5,45.2193,0.07789715762273901,62.5,0.8147625980434644,551.0,637.2,16.3265306122449,41.83673469387755,482.0,1263.0,9.8,140.625,,,0.042737086337049895,0.09048057800168642,0.01767446513089454,0.15089212946963088,0.47233436479874547,0.28322939365536176,0.599637491496181,-2.4026200590239597,83.92932665553938,107.48501254110823,0.7808467866479538,28340.762004886812,1.2806609658891404,5.159381633010442,550.6074399180081,0.5102040816326531,0.5106382978723405,0.7916666666666666,0.2777777777777778,51.46868250539958,51.67579624320348,51.212910596487724,55.319148936170215,0.5132190994955141,0.48678090050448597,60.13063036700458,58.561354933664795,0.48915002220321613,0.5108499777967839,75.17422340172884,76.8235904973802,0.4982675759129598,0.5017324240870401,68.0692903311999,68.30555009871391,0.9070012557993647,1.3456483609700818,1.1979888530325864,0.9655682870479728,1.1925862364213442,1.395962049583247,-0.6727201345655123,0.013706327301134663,0.4531520722744534,0.6672172058811503,0.7633514392331936,6.129916221622074,0.5896905271742994,0.866647502871424,1.0868480627258783,1.1266558596299838,1.1820027665086468,1.7268960476912114,1.699892151142666,0.7424674314823193,Relax
99.02079398250243,607.9583333333334,113.40128252005346,,,,,,,149.72406198351052,150.51760638552182,0.18652805020089663,0.24627355819369834,585.5,48.1845,0.08229632792485056,69.75,0.7574018565736121,556.0,646.0,17.708333333333336,41.66666666666667,433.0,1466.0,9.6,156.25,,,0.058637345218110454,0.1287591210267802,0.02337820220050646,0.2107746684453971,0.45540342890283214,0.27819920510657065,0.6108851788332254,-2.049811899021085,106.43202016317005,120.63849823517766,0.8822392662389338,40337.41845268149,1.1334793612883396,5.3126782103920664,546.9649917055746,0.5104166666666666,0.5161290322580645,0.7708333333333334,0.2777777777777778,49.585100497879395,49.49323060312595,49.80015486864271,58.06451612903226,0.5134301852470109,0.4865698147529891,76.2632269657798,74.24155514695457,0.4702862400030213,0.5297137599969783,82.73076843932354,87.80243282436994,0.4891695783361684,0.5108304216638314,79.56274201469874,81.30521422552275,0.46998937262348633,1.9796795403840866,1.4445923063638553,0.760398442735749,1.0056229070846672,1.3873890293468654,-0.8456083925054672,0.013102329915691513,0.643402743265146,0.6671294375782786,0.7067264386863263,6.110902344426085,0.5456333424522936,1.0931706955687663,1.0278833019790183,1.029167147529211,1.0047765311351298,1.8268573750596597,1.7528669467736482,0.8231203125901446,Relax
98.90358322082265,608.7938144329897,112.68447265709182,,,,,,,148.76361982465113,149.5445274151634,0.18509464121616015,0.24435796865512605,588.0,48.925799999999995,0.08320714285714285,72.0,0.7574733176694269,556.4,646.0,16.49484536082474,39.175257731958766,433.0,1466.0,9.7,164.0625,,,0.048418329811629725,0.0825820881163659,0.008672080759945282,0.1396724986879409,0.5863054678806833,0.3466561439543437,0.5912551783073091,-2.4939624728622127,105.7439494245996,120.27855256999617,0.879158812316617,39957.066154338616,1.1374509201187006,5.308563702634913,547.2438011651506,0.5360824742268041,0.5425531914893618,0.7843137254901961,0.25,49.95320980722441,49.89012484471711,50.108220521031555,55.319148936170215,0.5138324125845655,0.4861675874154346,75.79949312425998,73.73073343343044,0.4742450790603839,0.5257549209396163,82.83037160614514,87.21272698363029,0.4915035277182255,0.5084964722817745,79.39280073881646,80.7535782506039,0.5314383903714087,1.8455695148694162,1.5855143634442483,0.8396457514333038,1.0477701518611626,1.256991997670824,-0.9041400803392219,0.01537436240478543,0.6397159984516037,0.6251276551630753,0.6726432003622381,6.184813228718154,0.514549548713365,0.9754838037835836,1.111467590751046,1.182779826449387,0.9982639831676764,1.7513185814682055,1.6898573254330116,0.7484437243717361,Relax
98.22651183994817,613.0625,112.17672265342377,,,,,,,148.73540618370455,149.52445559823477,0.18297762895858705,0.24261051064729053,601.0,51.149699999999996,0.08510765391014974,69.0,0.7542032225660728,560.0,646.0,14.583333333333334,38.54166666666667,433.0,1466.0,12.0,156.25,,,0.010757155626909695,0.0039530502440364695,0.001492400468625571,0.016202606339571737,2.7212291680678304,0.6639151381859733,0.2439761950138792,-5.533267784392566,105.72975650673862,119.22015262879486,0.8868446665719337,39600.14518952314,1.1275931825417231,5.3046668881825845,537.7273253032511,0.5416666666666666,0.5483870967741935,0.7843137254901961,0.25,49.97089074325636,49.88945204364506,50.13526649935698,55.91397849462365,0.5167821257121321,0.4832178742878677,76.0065436712594,73.49685186484216,0.47099072890085203,0.5290092710991479,81.81931754279366,86.71242165724955,0.4911501282486805,0.5088498717513197,78.96643402110661,80.37671087979152,0.799961930578557,1.450747269326172,1.396501337683496,0.8443027684536036,0.648696620805028,1.0507789945009667,-0.8806304384680124,0.009754783542961111,0.3800562643841446,0.6107273771734505,0.6613984822453655,6.186372266278549,0.5158471547698275,0.863662120774997,0.9529959397200696,1.0945893053533007,1.0408723296244675,1.776271546497247,1.6237848340124,0.8231203125901446,Relax
98.20615344810123,612.6666666666666,101.18223961760823,,,,,,,130.45987485571348,131.14726769196645,0.1651505543268905,0.21293777179931472,610.5,52.632299999999994,0.0862117936117936,68.25,0.7755813021399427,565.0,649.0,15.625,42.70833333333333,433.0,1466.0,10.666666666666666,187.5,,,0.05881938786699388,0.11215943355666264,0.011295362736042465,0.18227418415969895,0.5244265774334398,0.3226973042735413,0.615333619918411,-2.187833906023672,92.7351223190769,109.67604337539498,0.8455367231079502,31952.577470424687,1.1826807430956836,5.211476006447877,518.8469779160263,0.5520833333333334,0.5638297872340425,0.7924528301886793,0.3333333333333333,51.16537180910099,51.222152345773,51.13245294170885,54.25531914893617,0.5375263084003196,0.4624736915996806,67.99229461975507,63.067171215350875,0.4615374516323753,0.5384625483676246,74.51011754684369,80.48028872734652,0.493217515168026,0.5067824848319739,71.32569573619327,72.2998788337278,0.915565610373925,1.9693902924328377,1.5557335485322348,1.1987172837405229,0.2800080599680239,0.735726926714658,-0.6812826366431819,0.00397346272345622,0.3588245181722103,0.6579824357565194,0.7028559946869066,6.116008854797678,0.5568835971759366,0.8637832190092126,1.0400181599420462,1.2139980604155833,1.0627131603116717,1.7462962866705258,1.534594507939981,0.7545269532076325,Relax
98.25633701223244,612.40625,100.11210328269111,,,,,,,129.4218723888338,130.10584716670226,0.16347335332173882,0.21133336308836465,610.5,49.6671,0.08135479115479115,63.0,0.7735331086998594,567.0,645.0,12.5,39.58333333333333,433.0,1466.0,9.6,187.5,,,0.05377359469813638,0.09577316064038845,0.008843096932366103,0.15838985227089092,0.561468310522265,0.3395015143152511,0.6046672767683978,-2.345772793587533,91.99872680359572,108.44917790435247,0.8483118874790794,31344.255152465765,1.1788117256869886,5.203128063925651,511.3646502190598,0.5416666666666666,0.5483870967741935,0.7843137254901961,0.2777777777777778,49.07844990548204,48.72274597148221,49.58814129850843,60.215053763440864,0.5342529027457625,0.4657470972542375,67.24561996335017,62.78640759530205,0.4489084720976362,0.551091527902364,72.66163485837043,80.50783196583265,0.48462429576048244,0.5153757042395174,70.00602325709721,72.19294974774942,0.8175612500309406,1.8376674785304703,1.4415715624365084,1.0311449250764246,0.1721623624422346,0.6168839326902382,-0.7233410789248391,0.00507416413174638,0.33559015365408434,0.6137954515454047,0.6267911852105417,6.032675521464345,0.5070008317163391,0.8381305613203975,1.0094038253301225,1.1022792739281608,0.993376767204175,1.7350006148841608,1.5640832567486245,0.7545269532076325,Relax
99.68894501273735,604.0510204081633,105.5216177049601,,,,,,,134.93320226009962,135.63339226097656,0.17468990886507912,0.22338047234639868,606.5,46.701899999999995,0.0770023083264633,66.5,0.7820285588535486,560.8,637.6,17.346938775510203,43.87755102040816,369.0,1466.0,9.8,250.0,,,0.0623735215985563,0.12097940114957556,0.010067677369676198,0.19342060011780807,0.5155714196455595,0.3224761042027892,0.6254731971459595,-2.1121349863108625,95.90729142307151,115.28693193618143,0.8319008044741986,34736.141912007675,1.202066393759588,5.247751690354608,554.3301860805308,0.5612244897959183,0.5684210526315789,0.7962962962962963,0.23809523809523808,50.432730133752955,50.15898180646493,50.67720566634299,58.94736842105262,0.5496207411232585,0.45037925887674135,71.10262536174972,64.36403628321227,0.4268328182990825,0.5731671817009176,75.31976975223341,87.28120622292221,0.47705391041328005,0.52294608958672,73.24155599406252,76.68356449199183,0.834289838002582,1.9854417631905021,1.4306992604535276,1.1974196350978883,0.0707199292929026,0.4774607526704866,-0.6174950732278196,0.0032243435073292335,0.3292126107516684,0.5729115311714734,0.5819215454497209,6.126196548391459,0.5303416031684505,0.8736214011656346,1.0211448993762697,1.03183595319993,1.0152273716995972,1.7914442774980062,1.612765442814416,0.7424674314823193,Relax
99.57855006622202,605.639175257732,110.1698674743358,,,,,,,144.97309376800465,145.73152097655588,0.18190677217578044,0.23937205466656086,609.0,45.9606,0.07546896551724137,66.0,0.759933202850984,563.4,639.6,19.587628865979383,45.36082474226804,369.0,1466.0,9.7,250.0,,,0.06260895816070891,0.11539451851058329,0.011635225868004232,0.1896387025392964,0.5425644040012767,0.3301486316999836,0.6084966674282722,-2.159398425944585,103.04774671515226,117.19558340542035,0.8792801206396508,37940.20016055425,1.1372939937190085,5.286069727721469,533.1433323895187,0.5876288659793815,0.5957446808510638,0.8214285714285714,0.2857142857142857,50.71811732133587,50.903404379033546,50.60616976277059,58.51063829787234,0.5181188421585299,0.4818811578414702,74.17557407579454,71.53460700947478,0.4554701048633734,0.5445298951366268,79.09357096976971,86.48128006098685,0.48278717387289716,0.5172128261271028,76.67401371463372,79.36060672962007,0.69780569231479,1.8932140102101265,1.504749051465027,1.0658735215815422,0.7891779129856893,0.9417741503729908,-0.7318150655534048,0.009224270458029768,0.5246450306348739,0.5677318892320882,0.582517552222107,6.143576115316091,0.5238171654263134,1.051156263556605,0.9945979827075603,0.9843482618133711,0.9972056640329179,1.810150424801903,1.6342266275400346,0.7484437243717361,Relax
99.38801643698315,606.5,112.60113438113102,,,,,,,148.29713833083025,149.06750529213474,0.1856572702079654,0.2445130063162906,611.5,48.1845,0.07879721995094031,67.5,0.7592940474005209,561.2,642.4000000000001,23.46938775510204,47.95918367346938,369.0,1466.0,8.166666666666666,250.0,,,0.05285348187467173,0.08664638545121457,0.010602501413387203,0.15010236873927352,0.6099906141431645,0.3521162411932203,0.5772486215838377,-2.4459199780447207,105.40664384663003,120.457072674826,0.8750556651096394,39888.725764903946,1.1427844420328457,5.307820273067575,550.6258743424438,0.5612244897959183,0.5684210526315789,0.8148148148148148,0.22727272727272727,49.95233555767397,49.868886475549594,50.100711596066496,55.78947368421052,0.5200850541995511,0.4799149458004489,76.01603449273054,73.02140097259158,0.4530649604531724,0.5469350395468275,81.07977645497903,89.08409626526468,0.4821288680838193,0.5178711319161807,78.58870036458603,81.44968142171872,0.5160968345599188,2.3699265803849165,1.4555314532969206,1.1360808205435262,0.542356334150524,0.6557225200370747,-0.6347934722524232,0.01123200487614813,0.7482822091630943,0.5955189490614097,0.6466271649250525,6.122213287926528,0.5681347843947165,0.8473424495092898,1.0091784237522001,1.001071643985837,1.0064688787271296,1.8154563756351842,1.7662373858388236,0.6749703922566539,Relax
100.07445770144837,601.6734693877551,73.25956895525228,,,,,,,91.96239706655544,92.43999632714294,0.12175967976417346,0.15284436117838737,612.5,46.701899999999995,0.076248,62.5,0.7966252652400148,565.0,644.0,24.489795918367346,47.95918367346938,369.0,801.0,8.166666666666666,250.0,,,0.05484968326372502,0.06130207522654611,0.024689539859077188,0.1408412983493483,0.8947443142997064,0.38944318113053533,0.43525639102310765,-2.791941582998863,65.36494825578231,80.81404054670534,0.8088315819081655,16595.166559250538,1.2363513274801128,4.926951725573567,399.6581852358033,0.5714285714285714,0.5851063829787234,0.8363636363636363,0.22727272727272727,50.15240804714489,50.20041568267383,50.03411048345237,54.25531914893617,0.4988193876419079,0.5011806123580917,46.16546328154846,46.27459931395048,0.4421094167725693,0.5578905832274307,53.734313386078036,60.36168250149502,0.464537187727993,0.535462812272007,50.09304560052845,53.78136878175358,0.8077064881105901,2.2795701240086474,1.5587623610938568,1.4164801174515538,0.25598897176458735,0.44343571839913043,-0.562416260918571,0.006970377017574335,0.5673531430223162,0.6374706869624878,0.9894129967031176,6.122213287926528,0.7258283647463988,1.1200518493352245,0.9495174089612506,1.2436644388363622,1.427298436712412,1.7733856968237156,2.861166998929458,0.8099644707079847,Relax
99.52785467200594,604.7731958762887,72.5896722960986,,,,,,,93.89893724993199,94.38306082689114,0.12002792582584532,0.15526306041701587,613.0,45.9606,0.07497650897226754,61.0,0.773061702529026,569.6,644.0,26.804123711340207,45.36082474226804,369.0,801.0,8.818181818181818,250.0,,,0.05432260806707483,0.09052877559970414,0.016188535279910096,0.16103991894668906,0.6000590166741675,0.33732386617170296,0.5621511498007705,-2.4020875163879265,66.73890233983711,77.83315171942446,0.8574611314780073,16319.000247466753,1.166233620731354,4.919663658968603,363.08655337070877,0.5773195876288659,0.5913978494623656,0.8363636363636363,0.21739130434782608,48.77221002196047,48.96932033161963,48.52400139718979,54.83870967741935,0.48850056649492635,0.5114994335050737,46.650040898047166,47.73556546775492,0.4389853449638972,0.5610146550361029,51.56910900128756,58.297740122514774,0.45996772576248,0.54003227423752,49.171126278417454,53.27903299572255,0.7403529801136531,1.9650861154418569,1.4754670779952292,1.3042539314017156,0.33624036091594256,0.17554577595606158,-0.5871275539774581,0.007368952553911785,0.4838381934829483,0.6355593044181997,0.9888614247089906,6.148629981250866,0.6899469187302859,1.0491754799371553,0.9659354513643166,1.28017348864077,1.418792571194931,1.8098315819277988,2.4017468137565112,0.8845244015302336,Relax
100.37753465976017,599.7551020408164,70.2833823864518,,,,,,,92.93662622908883,93.41820093709266,0.1171868019918381,0.15495762505870941,605.0,42.9954,0.07106677685950413,56.25,0.7562506326967716,569.4,636.6,25.510204081632654,39.795918367346935,369.0,801.0,8.909090909090908,281.25,,,0.05827166275759972,0.09062654547351932,0.03480560069339709,0.18370380892451613,0.6429866928407466,0.3172044341309414,0.49332970287381334,-2.401008112451805,66.05664336886572,74.87886336980058,0.8821801025829547,15539.091269785444,1.1335553783995784,4.898395727511802,339.51735320513853,0.5918367346938775,0.6063829787234043,0.8421052631578947,0.2727272727272727,49.52498967368855,49.593274220666814,49.400670390941684,54.25531914893617,0.4913524546138147,0.5086475453861855,46.30402250344995,47.11190136260687,0.4512426001839204,0.5487573998160797,50.29957203006497,55.46888527044301,0.46879680505840354,0.5312031949415963,48.34309385221272,51.46031715383014,0.6705527547537564,2.2427579489552913,1.497878668609315,1.2424851375755952,0.39780888524866675,0.6019393627446652,-0.6138747635038752,0.00960122803790627,0.6255013905161827,0.6350075579115306,0.8807457944547435,6.053285864435065,0.6447508162606683,0.7544738234919934,0.9490727016983446,1.1802444068673748,1.3470872872735138,1.822819471884427,2.8609535303603,0.9449585491593154,Relax
100.69686926626845,597.9090909090909,71.00274368212548,,,,,,,93.57317337522653,94.05362607662269,0.11875173795094729,0.15650067008172297,605.0,45.9606,0.07596793388429753,62.0,0.7587937987034588,565.6,636.4,25.252525252525253,36.36363636363637,369.0,801.0,9.9,210.9375,,,0.05214422484338655,0.0814919986052703,0.03637416274745327,0.17001038619611014,0.6398692599989104,0.3067119957202922,0.4793354125510177,-2.5072504401774105,66.5059567939638,75.87910617865012,0.876472590984162,15853.77261631177,1.140936990256744,4.9071027349690866,346.2931161073639,0.6060606060606061,0.6210526315789474,0.864406779661017,0.3181818181818182,49.648905410987204,49.764177712128706,49.47870025917731,52.63157894736842,0.4813759057992125,0.5186240942007874,46.142987091560926,47.894966698511716,0.4661867600794513,0.5338132399205486,51.80863785754899,55.439190089829076,0.472785803490805,0.5272141965091952,49.05767123695649,51.804592619128606,0.624002934271468,2.393461326877153,1.5194092630191238,1.4412781739960154,0.1946326287040936,-0.05911098875722309,-0.5326435560690881,0.012015782236067243,0.7671534114325752,0.5957009560125597,0.8204089601708725,6.048449801854085,0.6024307382039832,0.7051531644264585,0.9804054298299018,1.1064297871359452,1.3240373355802857,1.8469544850924664,2.8490929734400408,0.8705215763740901,Relax
104.72280997162446,584.2254901960785,175.23731613894088,,,,,,,259.88937098025934,261.1805494403069,0.2999480835389903,0.4448442858818689,522.5,110.4537,0.21139464114832535,220.75,0.674276579599908,449.8,747.2000000000003,61.76470588235294,78.43137254901961,324.0,1168.0,12.75,171.875,,,0.04561002605698894,0.10332781506730354,0.03590577249002175,0.18484361361431423,0.44141092141821076,0.24674926639422134,0.5590012716528167,-2.269848674171505,184.68253762326933,166.43281015782225,1.1096522221077774,96563.8676581063,0.9011832537049368,5.691784762131185,599.9458455251292,0.6666666666666666,0.6831683168316831,0.9130434782608695,0.2,50.442189788942535,50.52112239322207,50.28306180527944,50.495049504950494,0.49142857059091954,0.5085714294090804,129.46858692362406,131.7074029810018,0.5391119269441726,0.46088807305582746,122.20202880089431,112.98913422969086,0.5127980601921771,0.48720193980782284,125.88774929089526,122.70571391336081,0.5098900828865773,4.182011090816358,1.416041444146217,2.2102724070488664,-1.609803862423842,-1.70594896437974,-0.31008396542831507,0.02972504588211892,2.0907381691868854,0.6999262609588963,1.116761607173787,6.383113822321232,1.2670426898937688,1.082753681097826,1.0605108438334323,1.0181961608416397,1.2754612649776136,2.0007878160251136,3.8828440589336477,1.1774868250537933,Stress
105.33517823731643,580.6470588235294,179.30397040541243,,,,,,,257.11986263681814,258.3877752066409,0.30880027321365733,0.44281609409643485,491.0,81.54299999999999,0.1660753564154786,234.0,0.6973555779262348,448.2,762.6,61.76470588235294,78.43137254901961,324.0,1168.0,10.2,140.625,,,0.04209436996566739,0.10311019283909915,0.03402263594424947,0.17922719874901602,0.4082464478691703,0.2348659704524813,0.5753043821406334,-2.2719570292271,182.70774802432106,175.70996072229283,1.03982578604686,100856.34352706085,0.9616995591172373,5.710673329041637,675.9207670365444,0.6764705882352942,0.6930693069306931,0.9285714285714286,0.25,50.74846225028576,50.785357986501324,50.618881889852396,49.504950495049506,0.4909381560130313,0.5090618439869687,128.02497803163257,130.3666751896358,0.5463302488027443,0.4536697511972558,129.8745348423229,118.34946343993262,0.5175515825048402,0.4824484174951601,128.9530724731089,124.50314352762334,0.6436896148502155,3.755486210785371,1.479823868913306,2.3686470931481978,-1.3826830285853138,-2.0771117743959073,-0.2633267240651071,0.03144409363586896,1.965058725135923,0.7342117758163411,1.1442823255012982,6.309488577180771,1.2893070933967405,1.1133900722741685,1.0136748725547984,0.9121131151866647,1.1898742821922261,2.000052727092383,3.8560580087292347,1.1120708903285825,Stress
106.11808956018173,576.3398058252427,186.56526763102624,,,,,,,263.2232519975332,264.5231056131443,0.3237070661185537,0.4567153775204407,478.0,63.751799999999996,0.13337196652719666,224.0,0.7087719880946332,446.4,757.0000000000001,59.22330097087378,76.69902912621359,382.0,1168.0,8.583333333333334,93.75,,,0.033566500912890374,0.10178949555845546,0.02990921406896553,0.16526521054031135,0.32976389880637413,0.20310687774607508,0.615916049274188,-2.2848483672384354,187.0460817595796,187.18420257607204,0.9992621128567925,109993.66711133147,1.0007384320227033,5.748337791322042,749.2897015415934,0.6504854368932039,0.6666666666666666,0.8970588235294118,0.24,49.970555168906266,50.25979238459145,49.616569884477904,49.01960784313725,0.4650560665925122,0.5349439334074878,127.55612237927133,136.80525654309406,0.5729403955583746,0.4270596044416252,141.68501334540719,122.32449749478548,0.5190380444629817,0.4809619555370183,134.8057998810212,129.76702374866574,0.5291417970509369,3.889742468420608,1.462063735158845,2.2286228626807794,-1.3030699836044644,-1.8141746136881682,-0.3029280514724698,0.029460417929435347,1.9909926684175798,0.8279799799540424,1.1534532043676957,6.23635947886671,1.1638350728727953,1.3862987219579144,0.9518860879678854,0.8702587036867968,1.1764248742141001,1.9893259373396153,3.434566001821467,1.1685146552359023,Stress
107.29846362433842,570.6057692307693,184.54164779858795,,,,,,,257.0228352969395,258.2796597459666,0.3234135680881173,0.4504385499702021,473.5,61.527899999999995,0.12994276663146778,210.25,0.7179970899682367,446.6,697.2,56.730769230769226,74.03846153846155,342.0,1168.0,9.454545454545455,140.625,,,0.05160146789654126,0.12338084483168195,0.024117082916272597,0.1990993956444958,0.4182291665042234,0.2591744074837819,0.6196947229914551,-2.092479407828384,182.63129884892714,183.7558972481231,0.9938799330196331,105430.52428537382,1.0061577528401975,5.729936476146659,739.5496825852231,0.6442307692307693,0.6601941747572816,0.8970588235294118,0.18518518518518517,49.97235124972351,50.10125416890035,49.7249455836962,49.51456310679612,0.47692635315308546,0.5230736468469146,126.12491862450979,132.08596057262162,0.5650287390803217,0.434971260919678,138.1263560382163,121.19133443058824,0.5212479641835882,0.4787520358164119,132.26183374359232,126.75575040497934,0.6776219951275563,3.6563677750467183,1.598632817437487,2.2753587506501427,-1.0183683644960215,-1.5651232687747667,-0.314918527115613,0.027352453383301206,1.801087669735757,0.7774610709455319,1.1239300966523995,6.301307266176409,1.162601335429215,0.9656269749994338,0.9818244765163104,0.9054065025343927,1.1136710238262835,1.9668303824419688,4.246094163587364,1.09526418469614,Stress
104.39324235522356,586.980198019802,203.29249765783388,,,,,,,274.78449737931,276.1486526924192,0.3463362109039592,0.4681324826737001,491.0,75.6126,0.1539971486761711,231.0,0.7398252070138105,449.0,761.0,60.396039603960396,76.23762376237624,343.0,1359.0,10.1,125.0,,,0.04053675735066292,0.1039406395020859,0.016669559699715675,0.1611469565524645,0.3899991143488147,0.2515514919915065,0.6450052903620679,-2.2639353168126686,195.26658493433837,208.14086090865956,0.938146330719892,127683.60914640277,1.0659317925729606,5.813105260050949,887.455843904187,0.6435643564356436,0.66,0.9090909090909091,0.15384615384615385,50.864763492394246,50.71356167151719,50.836883311827776,51.0,0.4891696770027278,0.5108303229972723,136.58071946395995,139.57189233980145,0.5663809207478667,0.4336190792521335,156.64323879633636,137.06025579719278,0.5302340915579861,0.4697659084420139,146.95475016122987,138.3217749497617,0.6946670672984403,3.691416091144582,1.4988436786838681,2.381074102943739,-1.450763821709259,-2.1421948702961817,-0.2610048820082156,0.02712558930074113,1.8100279349280957,0.7991985078194483,1.2112632375886156,6.311483264844332,1.1806760054046006,1.1795767427591084,1.0740145547958384,0.9631839084587576,1.177368576097278,2.001868304838094,3.688571159457997,1.1206890614532723,Stress
106.50864528976733,573.4563106796116,193.62090394654965,,,,,,,260.20531109408324,261.4900933470646,0.3376384570902823,0.45374914574697073,490.0,65.2344,0.13313142857142857,161.0,0.7441081933817313,453.0,687.0,56.310679611650485,74.75728155339806,343.0,1359.0,10.3,125.0,,,0.026216499721677805,0.09750918740072868,0.018684002895812638,0.14240969001821913,0.2688618418481651,0.184092105799288,0.6847089365074377,-2.327808675666616,184.90141821881272,203.29540130129436,0.9095209091561259,118091.2364005808,1.099479945906711,5.7791877795982725,894.076867303321,0.6407766990291263,0.6568627450980392,0.8955223880597015,0.1111111111111111,50.08986744551787,50.189067196594294,49.8157208609631,50.98039215686274,0.47815856546406704,0.521841434535933,127.857594050708,133.57028038444852,0.5499029731807306,0.4500970268192693,150.75460550599206,136.38940248049707,0.5174226033084036,0.4825773966915963,139.77574080952485,134.98720108026393,0.7215455340732454,2.8547230056535593,1.4732297671492507,1.9289774564802555,-0.5306492912810921,-1.0899221536985042,-0.3403530961047949,0.014660288185153832,1.0497780921559832,0.7569222300675897,1.0365080781763436,6.276163997993991,0.9987167015602673,1.1185993905045155,0.9839401150271895,0.9296347443443455,1.2431836345212182,1.9454556127959561,2.817872311939046,1.1035971743894633,Stress
106.86964295969214,571.0485436893204,191.6378518139315,,,,,,,256.3671731150078,257.6304333843059,0.33558942393204366,0.44894112058971414,491.0,65.2344,0.13286028513238288,127.5,0.7475132228725775,453.0,664.6000000000001,50.48543689320388,68.93203883495146,343.0,1359.0,10.3,125.0,,,0.038923076100145795,0.1196895406044963,0.012206460961034915,0.17081907766567703,0.3252003132735192,0.22786141121968298,0.7006801713257683,-2.122854050315467,182.17222648607182,202.01307847987738,0.9017843193960241,115614.29249714222,1.1089126063644092,5.769981635819265,896.0593975072752,0.6504854368932039,0.6666666666666666,0.9117647058823529,0.1111111111111111,50.35860352083459,50.60307094704548,49.95678179813215,48.03921568627451,0.47228037693502306,0.527719623064977,125.19493710700814,132.33917944373684,0.5656133523278669,0.4343866476721331,151.9285222060777,133.1428106102408,0.5237536336872732,0.4762463663127267,139.20497142155227,132.74160318648413,0.626242443636641,3.936581898326101,1.7904253950552227,2.2386914061904437,-0.5051598021407901,-0.7215194847943127,-0.3861281124810763,0.04107650151791014,2.3156174718173466,0.720545007228035,0.8642416747601168,6.290822007744738,0.8614975077765306,1.2527652476793072,0.9759397465598408,0.9232833404367188,1.223074573286587,1.9456924511635878,2.6918069821269315,1.0386796935430243,Stress
107.73081261665065,565.1142857142858,178.47469731706389,,,,,,,235.97744758605802,237.1202004281434,0.31582053724137904,0.4175747340872658,497.0,69.6822,0.1402056338028169,106.0,0.7563209922930301,453.8,589.8,42.857142857142854,60.952380952380956,343.0,1359.0,13.125,125.0,,,0.0407775555371344,0.12448515134700307,0.013119850399683358,0.17838255728382083,0.327569634578077,0.2285960923424484,0.6978549542203126,-2.083568836479296,167.66930167905346,190.27641137053166,0.8811880593677236,100227.84212888822,1.1348315372288715,5.707958490208792,863.7266896560543,0.6476190476190476,0.6601941747572816,0.8970588235294118,0.10344827586206896,50.010039488655366,50.01914668451486,49.82692760030773,49.51456310679612,0.47888747162327083,0.5211125283767293,116.03000114215523,121.03732474151319,0.5586982242502726,0.44130177574972745,142.2242320693153,126.40166350306211,0.5238135024279473,0.47618649757205267,129.78962468694291,123.74856467233036,0.6975199059782146,3.5836824609744227,1.7540194041418142,2.1507450799693313,-0.809525899130648,-1.0405541265835807,-0.38929664384392887,0.02505800424535537,1.6595709881780227,0.6967056032977985,0.7576857016975164,6.326103731931234,0.7088001971797846,1.1079355654580463,1.0040689300600096,0.9140506498971666,1.174282356037852,1.91135825972584,2.677674283949222,1.0231231265015044,Stress
107.41823623318325,566.8349514563107,175.9932093769852,,,,,,,235.27420381417116,236.43420619170857,0.31048404641390576,0.4150665078250827,498.0,72.64739999999999,0.14587831325301204,115.0,0.748034448842473,458.0,592.2,42.71844660194174,61.165048543689316,343.0,1359.0,14.714285714285714,125.0,,,0.039824256247317405,0.12214848331520697,0.010135083779240047,0.17210782334176444,0.3260315246366997,0.23139131896541437,0.709720691038255,-2.1025178979317576,167.18423050261555,185.8870271084406,0.8993862191635652,97632.46740504798,1.111869382355009,5.696564375067696,826.7283760754826,0.6213592233009708,0.6336633663366337,0.890625,0.14285714285714285,50.324298491158615,50.321876719444134,50.12771713007862,47.524752475247524,0.48549681080915463,0.5145031891908454,116.49087415920715,119.92031182463965,0.553931508583168,0.44606849141683214,138.3493478909108,124.15089522582535,0.5233288555589467,0.4766711444410532,127.88797016181096,122.0539347450394,0.5955835305763841,2.303075159055713,1.3598827636026702,1.423571901297169,-0.23944452633367774,-0.4748249188632516,-0.47234604461601154,0.011834831593920507,0.6601524522518827,0.6283893507336398,0.6487811776049609,6.251987056288426,0.6817411518499426,0.9103327348572263,0.9490594986773117,0.8704509042471484,1.175370562143537,1.9515733934801534,2.5788900144205043,0.9737622126965852,Stress
106.16125722893767,573.9126213592233,180.57810796005606,,,,,,,243.10287905313166,244.30202579951253,0.3146439043845816,0.4235886614191897,526.0,88.95599999999999,0.16911787072243345,118.5,0.7428053039248029,459.0,592.6,38.83495145631068,56.310679611650485,343.0,1359.0,12.875,125.0,,,0.0332746560005929,0.1159234546581812,0.012061374566409103,0.16125948522518319,0.28703989282159104,0.20634231812242287,0.7188628594237751,-2.1548251793245736,172.74761910044617,189.3765903234387,0.9121909883656069,102775.17762312134,1.096261652169709,5.718858345992381,830.4251751609563,0.6310679611650486,0.64,0.875,0.19230769230769232,50.281413168780084,50.33701757045066,50.042828304855405,49.0,0.48388107096449484,0.5161189290355053,120.16661288180319,124.10503376551893,0.5534909938055815,0.4465090061944185,140.89045518121893,126.54395521462287,0.5218756440815107,0.47812435591848923,130.93917521631218,125.33042728583725,0.7164560837448037,2.9806395772237515,1.5794718267323467,1.9982278068956596,-0.7990523409054049,-1.381956209983365,-0.3595080118498079,0.014892704245851643,1.0901776622967665,0.5832501605680931,0.514863702515271,6.298151012620111,0.607356794876939,1.0549407449289772,0.7847292723173062,0.7983433507606762,1.106658827149828,1.963360537634411,2.5216403259532676,1.0386796935430243,Stress
105.27205097244273,577.6764705882352,173.25910098620687,,,,,,,228.85820764814355,229.99454750317042,0.299924109441018,0.3961702082397475,534.0,80.0604,0.1499258426966292,105.25,0.757058716690567,464.2,593.8,34.31372549019608,51.9607843137255,343.0,1359.0,14.571428571428571,226.5625,,,0.032382171945552235,0.12535895208789047,0.01532744019435417,0.17306856422779687,0.25831559219519284,0.18710602985606367,0.7243311496066386,-2.076574040191626,162.63070417542332,184.3353224130115,0.882254697832909,94180.49702396695,1.1334595355018342,5.6809310880009285,835.7465156753315,0.5784313725490197,0.5858585858585859,0.8448275862068966,0.2,50.59203444564048,50.73830723865378,50.24750373641519,46.464646464646464,0.48253000387146733,0.5174699961285328,112.97291710848224,116.99162363177972,0.5628120393611334,0.4371879606388668,138.2898330773294,121.88286654223914,0.5276726482090374,0.47232735179096275,126.2674897441056,119.46228098557569,0.5702139270032665,1.9923059485491075,1.9315818857642153,1.1753782041623788,0.21711838409198236,0.09768118203215681,-0.8795620256781044,0.018464944632433287,0.6836830104441711,0.5326364966833337,0.4542120206178071,6.339092008638162,0.5266994246921801,0.9181504347914696,0.741611283521579,0.7665789425323961,1.0817030614749628,1.9253768247295282,2.3406236910912375,0.9158230861529503,Stress
104.82847926884433,579.0784313725491,165.9288101121617,,,,,,,213.60808936363847,214.6706826285276,0.2865394411580349,0.3688759204126083,541.0,74.13,0.13702402957486137,96.5,0.7767908537849925,479.2,592.8,29.411764705882355,47.05882352941176,343.0,1359.0,14.571428571428571,226.5625,,,0.03687589052537332,0.11604122072218866,0.011921176012640752,0.16483828726020272,0.3177826835660145,0.22370949818935879,0.7039700706123798,-2.1538097999446544,151.79509540857703,179.82644410653288,0.8441199855937234,85755.33913632602,1.1846657075612732,5.64023127873794,852.1368865827741,0.5588235294117647,0.5656565656565656,0.8214285714285714,0.14814814814814814,50.485008818342145,50.648973913175624,50.11368291019026,48.484848484848484,0.4778004413612329,0.5221995586387673,104.92685547561216,109.69368714743796,0.5624487631252213,0.43755123687477876,134.86369044335098,118.95097729737238,0.5272284709795432,0.4727715290204568,120.82603196331492,114.4159953852607,0.8053359404805324,1.8552188654800772,1.5321408920529023,1.4709339943426134,0.2128595334834955,-0.2604355401163647,-0.5329917395996565,0.010579733384307267,0.5090005844578589,0.46469443504966756,0.3577829772930945,6.312083307636559,0.4803928963978788,0.8452263253039929,0.7310717136525212,0.6962365050403749,1.005343698683986,1.9354934584552295,2.1851268655628013,0.9158230861529503,Stress
106.61174870417462,568.0582524271845,149.51777553467554,,,,,,,193.05845909322642,194.01031801032414,0.263208526406966,0.3398567986088245,541.0,63.751799999999996,0.11784066543438076,87.5,0.7744689159798721,485.2,585.2,23.300970873786408,40.77669902912621,343.0,1359.0,11.444444444444445,273.4375,,,0.030522911198799164,0.10889075993856272,0.007732302478363224,0.14714597361572512,0.28030763322820507,0.20743286716434664,0.7400186173148936,-2.2174101016921175,137.18601148525875,161.87165632000733,0.8474986579123708,69763.86178037975,1.179942871488768,5.550600622934024,763.9972278834898,0.5922330097087378,0.6,0.85,0.2,50.415070242656434,50.51922729291558,50.04094265659946,48.0,0.47465949443669936,0.5253405055633008,94.51578002253024,99.43371840797086,0.5920411896798495,0.40795881032015036,124.55087184256384,103.39010321611931,0.5429735662151849,0.45702643378481494,110.55802175783106,101.43120279153611,0.8080699061829901,1.97730784393001,1.4756875873668687,1.545812895202813,-0.2428653749720091,-0.741043509081645,-0.4645349569359082,0.007393463595124715,0.44644248962750605,0.40946396001533136,0.299536571986329,6.271404532016582,0.43958504824495565,0.6395763783604579,0.6124005319181892,0.5766126975283979,0.9195503547396296,1.9090893733668017,2.0281065929773936,0.7790097701572681,Stress
107.18071143188776,563.7884615384615,137.83490004856017,,,,,,,166.90297163845696,167.71857859730665,0.24447981725705661,0.2960382892246738,540.0,59.303999999999995,0.10982222222222221,75.0,0.825838501828094,488.6,582.4,19.230769230769234,38.46153846153847,343.0,1359.0,10.4,226.5625,,,0.029574310869842017,0.12549090974530747,0.010548441736071631,0.16561366235122113,0.2356689494869799,0.17857410101301316,0.7577328341376551,-2.075521955341952,118.59494425712448,155.20943245528463,0.7640962432569381,57827.46558988827,1.3087356584002152,5.469104268814826,812.5124750971626,0.6153846153846154,0.62,0.8709677419354839,0.2608695652173913,50.291854603343054,50.44995720592917,49.83563525391023,49.0,0.46029805906114185,0.5397019409388581,80.46132306769458,87.12536043754739,0.5974741750316575,0.40252582496834277,119.97138705286449,98.4725048513713,0.5469075138741963,0.45309248612580383,102.14489272888817,92.97220725323211,0.5767349161190853,2.372634932490698,1.4120317895367873,1.4174779738877186,-0.7144297386199039,-1.0232809216664724,-0.49770458393056954,0.01386014454151148,0.6587197037225349,0.43649360322009834,0.34053911976836615,6.197894886347915,0.3922591416164769,0.8241663688249601,0.655826805296701,0.6437254160505892,0.9139154782398514,1.8800138113093394,1.8316893684546438,0.9019822697497624,Stress
105.19804087283637,573.3980582524272,148.86375793847608,,,,,,,164.77649746746974,165.57963231609853,0.2596167806918902,0.28736842599304746,541.0,54.856199999999994,0.1013977818853974,72.5,0.903428342187361,497.0,583.6,19.41747572815534,36.89320388349515,343.0,1359.0,10.3,226.5625,,,0.0438419433665809,0.11130206370656287,0.019310800322962642,0.17445480739610641,0.39390054331935787,0.2513083131440228,0.6379994072266935,-2.1955074790345943,117.08248083708848,175.66382126476566,0.6665144820037721,64613.62615399975,1.5003424936749397,5.517294224542928,1054.2235825793896,0.5922330097087378,0.595959595959596,0.864406779661017,0.2727272727272727,48.706074639062926,48.39081990463727,48.80774688971664,48.484848484848484,0.46870982930795924,0.5312901706920409,80.16258231843828,85.34646918285604,0.5246610594312849,0.4753389405687152,127.23943787342155,121.11112067434284,0.5074492149324142,0.49255078506758593,106.33887848361177,104.76622392969841,0.6796020292968382,2.0853962677984708,1.515949640081554,1.3550435821125442,-0.02790351058194318,-0.2735749249027011,-0.5771585048144718,0.014445873258420209,0.6273695156186986,0.36751437044875424,0.3232007731371393,6.166988148500433,0.3566287527408014,0.8398530745977298,0.7152652431140136,0.6533560279354497,0.8859515018351358,1.9014655386033121,2.0801415720414127,0.7790097701572681,Stress
107.69256675421956,558.6666666666666,118.01056558522035,,,,,,,124.97430505138615,125.56637334498119,0.21123609591626555,0.22370102336166975,537.0,48.925799999999995,0.0911094972067039,62.0,0.9442786302088058,493.2,578.4,13.333333333333334,32.38095238095238,453.0,1165.0,10.5,117.1875,,,0.059075453633256884,0.06394854910306588,0.008065629959435688,0.13108963269575846,0.9237966218443044,0.4506493184732856,0.4878230855332544,-2.749676439204249,88.78883408123794,141.63380858969936,0.6268901116572482,39507.10071223987,1.5951759030883383,5.303645269461596,903.7233540996582,0.5904761904761905,0.594059405940594,0.8333333333333334,0.3333333333333333,48.12749003984064,47.963994758608564,48.29419799064604,50.495049504950494,0.45738063400831847,0.5426193659916814,60.05410182186615,65.41109730378658,0.47757325297666914,0.5224267470233307,97.87841579436852,102.37163404580541,0.4718756478520085,0.5281243521479916,81.19938246084867,85.90274473989099,0.9269971281231831,1.9079859791228058,1.6046125607995692,1.570309400435276,-0.301983545033611,-0.6806221105349912,-0.5179787276948774,0.008244641162292224,0.39963469596307083,0.5428584191679793,0.4650273692595081,6.114059327107516,0.38028971390813543,0.6614246632620653,0.8407600960379822,0.8272149384047393,1.0118027176702833,1.7510267605865337,1.9969508610267732,0.7673423448761283,Stress
107.82818102534095,557.9056603773585,111.06030350793228,,,,,,,110.66947787594073,111.19979379114935,0.1990664576387572,0.19836593484476508,536.5,42.2541,0.07875880708294501,56.5,1.0035314672075137,499.0,578.0,10.377358490566039,33.0188679245283,453.0,1165.0,10.6,164.0625,,,0.06389973627629729,0.05431554130984013,0.004892948208711143,0.12310822579484856,1.1764540081039536,0.519053344029032,0.4412015603275224,-2.912944881025489,78.63012825626744,136.7967865333861,0.5747951413835096,33792.06658996045,1.7397502657956343,5.235784862292223,951.9689829257885,0.5943396226415094,0.5980392156862745,0.8524590163934426,0.3333333333333333,50.38185085354897,50.64043504185422,50.05538450905978,50.0,0.47700099221469167,0.5229990077853084,54.306333743085474,56.86450663977148,0.4620054254981284,0.5379945745018714,92.9821177518114,100.33786216702586,0.46572945455792075,0.5342705454420793,76.14083039416863,81.55139085151673,1.0262128607638985,1.719841383238079,1.6019757953220541,1.5327032546585966,-0.44579778070432674,-0.7389371852556441,-0.5402784473839283,0.006404314963213289,0.29019638462839836,0.5507342413921457,0.501693140202718,6.121650053558573,0.410284293370449,0.8918083283395078,0.9260773203646189,0.8898771089849716,1.0175108848482532,1.69908341861865,1.7155837797738838,0.6347094768455848,Stress
