PPG_Rate_Mean,HRV_MeanNN,HRV_SDNN,HRV_SDANN1,HRV_SDNNI1,HRV_SDANN2,HRV_SDNNI2,HRV_SDANN5,HRV_SDNNI5,HRV_RMSSD,HRV_SDSD,HRV_CVNN,HRV_CVSD,HRV_MedianNN,HRV_MadNN,HRV_MCVNN,HRV_IQRNN,HRV_SDRMSSD,HRV_Prc20NN,HRV_Prc80NN,HRV_pNN50,HRV_pNN20,HRV_MinNN,HRV_MaxNN,HRV_HTI,HRV_TINN,HRV_ULF,HRV_VLF,HRV_LF,HRV_HF,HRV_VHF,HRV_TP,HRV_LFHF,HRV_LFn,HRV_HFn,HRV_LnHF,HRV_SD1,HRV_SD2,HRV_SD1SD2,HRV_S,HRV_CSI,HRV_CVI,HRV_CSI_Modified,HRV_PIP,HRV_IALS,HRV_PSS,HRV_PAS,HRV_GI,HRV_SI,HRV_AI,HRV_PI,HRV_C1d,HRV_C1a,HRV_SD1d,HRV_SD1a,HRV_C2d,HRV_C2a,HRV_SD2d,HRV_SD2a,HRV_Cd,HRV_Ca,HRV_SDNNd,HRV_SDNNa,HRV_DFA_alpha1,HRV_MFDFA_alpha1_Width,HRV_MFDFA_alpha1_Peak,HRV_MFDFA_alpha1_Mean,HRV_MFDFA_alpha1_Max,HRV_MFDFA_alpha1_Delta,HRV_MFDFA_alpha1_Asymmetry,HRV_MFDFA_alpha1_Fluctuation,HRV_MFDFA_alpha1_Increment,HRV_ApEn,HRV_SampEn,HRV_ShanEn,HRV_FuzzyEn,HRV_MSEn,HRV_CMSEn,HRV_RCMSEn,HRV_CD,HRV_HFD,HRV_KFD,HRV_LZC,Labels
102.71876309798404,584.0990099009902,16.378342376745607,,,,,,,12.101652779682617,12.160787288442613,0.028040352918115505,0.020718495622401332,583.0,13.343399999999999,0.02288747855917667,19.0,1.3533971495400277,571.0,596.0,0.0,6.9306930693069315,544.0,630.0,5.05,70.3125,,,0.019995319664080666,0.026525599723644145,0.006049855245545346,0.05257077463327016,0.7538121615496377,0.38035048567510255,0.5045693145799119,-3.6296449849867294,8.598975156224938,21.57525120703036,0.3985573597132875,582.844131367773,2.509049138421069,3.4725225378982563,216.5334618088706,0.48514851485148514,0.4845360824742268,0.723404255319149,0.125,51.07913669064747,51.07613861433866,51.081271942374315,47.42268041237113,0.45291908501194955,0.5470809149880507,5.787918451395113,6.361182788180706,0.5422817184314049,0.4577182815685951,15.887967502598825,14.596710358256349,0.5300292377348643,0.4699707622651359,11.956745195989507,11.258965310974952,1.3321950475863198,0.5506720448847444,1.3457313253435887,1.5655955960386208,-0.3800862846409778,-1.2191423245168833,-0.1007346428107685,0.0003281881534647302,0.02442084898223344,0.7458559782267784,1.7404661748405046,5.409310834361521,1.1853931052552678,1.3745229356431437,1.562497241870923,1.9205148516314399,1.8475301980058887,1.7951481484833185,2.716789515786507,0.7910746316140745,Relax
102.22980161042972,587.039603960396,16.46385179238395,,,,,,,12.79531164137865,12.85348673365018,0.02804555549798079,0.02179633461704548,586.0,14.825999999999999,0.025300341296928326,19.0,1.286709714763151,575.0,598.0,0.0,9.900990099009901,544.0,630.0,5.05,62.5,,,0.026059979346802098,0.03461872477898338,0.00713671883086175,0.06781542295664723,0.7527712101811099,0.3842780625796821,0.5104845368451701,-3.3633605647194424,9.08878763125537,21.33510882763125,0.4260014656913499,609.1870898163032,2.3474097639009726,3.4917208009472818,200.3289711034857,0.504950495049505,0.5102040816326531,0.78,0.12,51.94552529182879,51.92134336692432,51.968983541111015,45.91836734693878,0.46506230149034955,0.5349376985096506,6.201172909582949,6.6507385478849805,0.5416905034007568,0.45830949659924336,15.70256042944602,14.443561356066743,0.5299105155916957,0.4700894844083043,11.9378588845519,11.24386027747561,1.2674677699856702,0.4101390320038867,1.2891232575465577,1.4406403499250304,0.36796638516962155,-0.5335699016974473,-0.13057139029616444,0.00012128798871745924,0.012882825870022712,0.7744140543440516,1.8718021769015913,5.417040725956832,1.2258729688868197,1.324445901523095,1.5293010687303397,1.6668660603373326,1.8233709595705634,1.7598939151096584,2.7762329384720337,0.9229204035497537,Relax
101.85027829121981,589.15,16.983875299884303,,,,,,,12.92050285164606,12.985585780164463,0.028827760841694482,0.021930752527617857,588.0,14.825999999999999,0.025214285714285713,20.25,1.31449027138449,576.0,602.2,0.0,11.0,544.0,630.0,4.761904761904762,78.125,,,0.04538728724534741,0.033770699486324406,0.004587984626928399,0.08374597135860022,1.3439842211064414,0.5419638283374738,0.4032516303586507,-3.3881617315529704,9.182195762833894,22.30691447315651,0.4116300250258045,643.4812880396995,2.4293660306662797,3.5155060324232386,216.7666410802577,0.48,0.4845360824742268,0.7446808510638298,0.11538461538461539,50.632911392405056,50.635871128801114,50.62938694076252,45.36082474226804,0.4383130634718946,0.5616869365281053,6.07940652312949,6.8820233142557115,0.5202771694407462,0.4797228305592537,16.090031211967595,15.450220998763339,0.5084003957480665,0.4915996042519336,12.162407000169843,11.95975697513513,1.3141073042625901,0.7284059206783935,1.424564111103594,1.678310264601787,-0.6462253973844412,-1.6632303133513098,-0.15164183006383455,0.00032847031792473,0.04146241968852199,0.7061706468219362,1.8352445811677938,5.539819909835642,1.2028257529902349,1.4941631004048983,1.386446070933507,1.597131167598593,1.8108335119749084,1.7778391525967532,2.9995749767250444,0.8637013046707142,Relax
101.1438057245336,593.2222222222222,16.380398661737765,,,,,,,12.389923489740873,12.445445860208183,0.027612584370788517,0.020885804721421215,593.0,16.3086,0.02750185497470489,21.5,1.3220742384164916,579.6,606.4,0.0,10.1010101010101,552.0,630.0,4.714285714285714,70.3125,,,0.0554807911029445,0.05179763871672376,0.005750132379848123,0.11302856219951637,1.071106569285205,0.4908563819913998,0.45827034962447205,-2.9604107153749424,8.800259162643252,21.315351361421325,0.41286015010622107,589.3018855688325,2.4221276859554477,3.477307940656175,206.5140106734669,0.47474747474747475,0.4845360824742268,0.723404255319149,0.11538461538461539,52.2222222222222,52.21690523295164,52.226960067392106,43.29896907216495,0.45207391651156603,0.5479260834884339,5.9208699555832025,6.518411671691922,0.5280542004650705,0.47194579953492966,15.48929840890371,14.643286463795578,0.5169767403337234,0.4830232596662763,11.725507797767115,11.333920971632638,1.1990490125655835,0.942503778851989,1.2972846278081658,1.650368087442921,-1.1383517613935634,-2.1383517613935634,-0.12537714165472488,0.0006867171026305388,0.07166013074350706,0.7220284879799088,1.8123787564307905,5.470082317347202,1.2128935819278963,1.2296959146855149,1.3872268891782884,1.598248209212947,1.7697052950068155,1.7698437174463204,2.705640892669848,1.0714111709219571,Relax
101.0658898541847,593.69,16.753528197687405,,,,,,,12.676630849597604,12.741139337686638,0.028219320180039083,0.021352272818470252,593.0,15.5673,0.026251770657672847,21.0,1.3216073258313124,580.8,609.2,0.0,12.0,552.0,630.0,4.761904761904762,70.3125,,,0.034462514884398304,0.04052028324662219,0.008856383358319642,0.08383918148934014,0.8505003450900391,0.4110550016376304,0.4833096235770647,-3.2059526093343247,9.009346025720898,21.74478330328977,0.4143221801781706,615.4577207210599,2.4135806573762744,3.496168334104494,209.931153518635,0.46,0.4693877551020408,0.6956521739130435,0.11538461538461539,49.95034756703078,49.95064046144883,49.94993637955922,43.87755102040816,0.4090137657929474,0.5909862342070527,5.7618555684637505,6.925993629444228,0.5342006741143758,0.4657993258856245,15.893051838769386,14.840704301252634,0.51585925863014,0.4841407413698597,11.95382943540788,11.580498519328096,1.2781709929824219,0.9079925761191667,1.3083138768856908,1.5321627945717031,-0.6406902912530086,-1.0802669702232803,-0.2534683393087192,0.00019269098113040245,0.03526159857451203,0.7262773147772221,1.8621402659898545,5.563723505091276,1.2124699413455047,1.273813963630364,1.4213178681770213,1.6380150215935412,1.8598986306056233,1.7170416168123706,2.565296278553621,1.063016990363956,Relax
100.72093039996571,595.7373737373738,17.677719089747917,,,,,,,13.018432771909785,13.083239471169291,0.029673678149225877,0.021852637329496907,595.0,17.7912,0.029901176470588237,24.5,1.3578991726171217,581.0,614.0,0.0,13.131313131313133,552.0,630.0,5.823529411764706,70.3125,,,0.05743087052082507,0.03191170100272448,0.007895715637469342,0.09723828716101889,1.7996806411517166,0.5906199316913523,0.32818041056072117,-3.4447825338537195,9.251247349951305,23.129454154487437,0.3999768990724943,672.2263766855583,2.5001443891357185,3.5344856591905285,231.3079001124544,0.43434343434343436,0.44329896907216493,0.627906976744186,0.08,51.12634671890303,51.09338115671142,51.15964762716071,42.2680412371134,0.4321753266301404,0.5678246733698598,6.082762530298219,6.972331178440656,0.5286201116697757,0.4713798883302242,16.816562463555968,15.88001499979948,0.5153149794597868,0.48468502054021323,12.6450933782768,12.263528824439403,1.3859777396967865,0.5930897576048091,1.4039257160772751,1.5520729353488938,-0.14630548905333818,-0.7719036757134754,-0.25021113183624905,7.819204022232552e-05,0.01429336157205043,0.67456662905265,1.9694406464655076,5.558254599702763,1.1855986810820132,1.516526349616465,1.336250090957503,1.5898279889736786,1.8343762155834686,1.6919357493391478,2.851927224964955,1.0044479727393347,Relax
100.74199418678934,595.6161616161617,17.766459497481613,,,,,,,13.227599470618319,13.28829135536097,0.029828706207826197,0.02220826149969836,594.0,17.7912,0.029951515151515153,26.0,1.3431355807941716,581.0,614.4,0.0,14.14141414141414,552.0,630.0,5.823529411764706,70.3125,,,0.06480375481500765,0.03832457266803066,0.005222338264244615,0.10835066574728293,1.6909191754423716,0.5980928162098783,0.35370869577690356,-3.2616640045008873,9.39624092775832,23.207546319797945,0.4048786889522463,685.0673071367424,2.469875612835591,3.5427033525229312,229.27901075608526,0.42424242424242425,0.4387755102040816,0.6046511627906976,0.07407407407407407,47.90652385589094,47.93388140666107,47.879516193446364,43.87755102040816,0.3912054586808189,0.6087945413191812,5.880248259013293,7.335480785232517,0.4989352203199376,0.5010647796800622,16.392730803174818,16.427677346484817,0.483748267524647,0.5162517324753527,12.314603988212236,12.721593087163374,1.370681920964844,0.6312563669501889,1.3675653736086621,1.5363379010167466,-0.24669853090588134,-0.7932124367191431,-0.23264027700270004,0.0001553985091291131,0.017788244235192614,0.6457167321211985,1.9965538818740682,5.537043837378421,1.1817994963967864,1.29414581294464,1.3117917143905122,1.683390366970054,1.8538020555658052,1.6684844888888635,2.362131530139974,1.0044479727393347,Relax
100.73527085408455,595.67,17.532685205211735,,,,,,,13.407370202898694,13.475586237658357,0.029433554157858775,0.02250805009971745,595.0,17.049899999999997,0.028655294117647053,25.25,1.307690094319999,581.8,614.0,0.0,15.0,552.0,630.0,5.2631578947368425,70.3125,,,0.059808347248108615,0.03812741288596771,0.005425550661475147,0.10336131079555147,1.5686442567447394,0.5786337923520479,0.3688750906166784,-3.266821757244946,9.528678409112338,23.025847467970056,0.41382530751005536,689.2839498326996,2.4164786006368195,3.5453682759066574,222.56587067150852,0.42,0.4343434343434343,0.6046511627906976,0.07142857142857142,50.09469696969697,50.09767128401733,50.09158153630507,43.43434343434344,0.41936390200044954,0.5806360979995505,6.170618333055845,7.2608117834786245,0.5034101930284786,0.49658980697152116,16.33716238711091,16.22611403742102,0.49112156580733973,0.5088784341926604,12.348672104219878,12.569927694909257,1.3856326859804022,0.5429115822220894,1.3790546032354907,1.3621459955632966,0.17636326053871265,0.003760200122936652,-0.5311443119393191,0.00015671328935907848,0.011046864991045336,0.6700344508756846,2.159484249353372,5.527368784857279,1.2257780221338004,1.1882162581548954,1.2828625673236194,1.5912013473134903,1.8546515897351132,1.6720093088021308,3.4127707164389287,1.063016990363956,Relax
100.7853334680732,595.3535353535353,18.408246339401934,,,,,,,13.833189901723422,13.89595327271427,0.030919857271815263,0.023235252804048503,594.0,19.273799999999998,0.032447474747474746,27.0,1.3307304005931795,579.6,615.0,0.0,17.17171717171717,552.0,630.0,5.823529411764706,70.3125,,,0.05926134779527984,0.026164871281621774,0.006259202789918211,0.09168542186681983,2.2649202878710533,0.64635518481184,0.28537657076637846,-3.6433375586571,9.825922790187658,24.006338361074913,0.40930535271134494,741.0527836224466,2.443163748960868,3.5768192529202594,234.60566251626756,0.40404040404040403,0.40625,0.5384615384615384,0.03571428571428571,52.18604651162789,52.17646477472637,52.195026705068116,44.79166666666667,0.4541673332266836,0.5458326667733163,6.625863102696138,7.263806618980033,0.5101552362850572,0.4898447637149428,17.14656370541912,16.801774745616033,0.5021131631527019,0.49788683684729806,12.998205813874204,12.943386751549204,1.2757948988556669,0.9367659638340955,1.4170590129183216,1.4564285909820431,0.029314124075519032,-0.23517866706811397,-0.4579728773421853,3.793710072043211e-05,0.03859213305165453,0.6259318970897536,1.7788560643921472,5.538052579500744,1.2208112100557564,1.064466696210494,1.1220308157331718,1.5833446512968985,1.8032634750003564,1.6692467859707532,2.876615667345821,0.9374847745567124,Relax
100.27852099611658,598.3367346938776,19.212830698641476,,,,,,,14.316380928384028,14.387613993505555,0.03211039801604558,0.023926963026444644,597.5,20.0151,0.03349807531380753,28.75,1.3420172873822895,584.0,616.0,0.0,19.387755102040817,552.0,644.0,5.157894736842105,85.9375,,,0.05383095752780322,0.026007094080805655,0.002699236980067672,0.08253728858867655,2.0698566845087383,0.6522016708844055,0.3150950864210194,-3.6493859289154895,10.173579419902241,25.186938536714493,0.40392282710629634,805.0058470364588,2.4757204418576717,3.6127691447724515,249.4232744126273,0.3877551020408163,0.3894736842105263,0.5135135135135135,0.037037037037037035,48.68061874431301,48.70994914136657,48.651592161379156,47.368421052631575,0.40334993209597103,0.5966500679040289,6.462632977355282,7.860104961131244,0.503825792775841,0.49617420722415895,17.877862008987524,17.741587382188612,0.4897269229098587,0.5102730770901411,13.442164539470557,13.721245804223356,1.3165336983479161,1.0386643528138233,1.4552676063668903,1.6767903573966754,-0.4223605821738019,-1.0368108421910769,-0.28672344879299794,0.00014352529054720658,0.057511287481273765,0.5664178471615151,1.6545583477145698,5.565791604120603,1.222718831665049,1.280573607885384,1.2169549091770133,1.6317138168511043,1.8071158009700112,1.6524571941947683,2.4377394957673673,0.8774615099336501,Relax
100.35158197320455,597.939393939394,18.71745784556148,,,,,,,14.098776904543232,14.17120528115218,0.031303269253168904,0.023578939684265488,597.0,19.273799999999998,0.03228442211055276,27.0,1.3275944411553822,584.0,615.0,0.0,18.181818181818183,552.0,644.0,5.2105263157894735,78.125,,,0.04967071455226345,0.024702311828589455,0.003957163207951293,0.0783301895888042,2.0107719025219564,0.634119677394001,0.3153613180086083,-3.700858443428898,10.020555351889321,24.625437270038166,0.4069188799372654,775.2211537860225,2.4574922651762185,3.596395724942574,242.06728647080388,0.42424242424242425,0.42708333333333337,0.5853658536585366,0.03225806451612903,49.81617647058824,49.81673196932604,49.81564118170427,44.79166666666667,0.41201232032854207,0.5879876796714579,6.432039647003006,7.683829586436835,0.5231570563899333,0.47684294361006657,17.811479471736856,17.004804020290305,0.5073676971024305,0.49263230289756943,13.390667178910878,13.194783000903868,1.3181271238042833,0.8396135175929826,1.4482932269344901,1.6172344666426786,0.00402092142585353,-0.7041627123894214,-0.2987868987715778,0.00017999519954282593,0.0436204337923888,0.5918445445638949,1.58412010444981,5.570831493620303,1.2304332641838083,1.184263503718676,1.342549579925163,1.4734464340768547,1.838112224412957,1.6203436817959558,3.007134157795343,0.8705215763740901,Relax
100.17805054867875,598.969696969697,20.282421536311276,,,,,,,14.185361814064468,14.249792834782195,0.033862183076913493,0.02368293736032214,598.0,22.238999999999997,0.037188963210702336,29.0,1.4298134797098874,582.0,616.8,0.0,18.181818181818183,552.0,655.0,5.5,78.125,,,0.05212682107492023,0.028830509531789044,0.0031998919051781293,0.0841572225118874,1.8080436982025672,0.6193980685087034,0.3425791473538313,-3.5463210938220637,10.076125143977965,26.788497646256467,0.3761362535903929,847.9920556001401,2.6586110497314253,3.6353618935567327,284.8807833921669,0.4444444444444444,0.4479166666666667,0.6046511627906976,0.03225806451612903,52.16606498194947,52.16795739885413,52.16290837629642,42.70833333333333,0.43914807302231246,0.5608519269776878,6.681255515075887,7.550517153039951,0.5533676312941984,0.4466323687058013,19.927610872666673,17.90290286660421,0.5391960939223978,0.4608039060776022,14.861844608765006,13.739072754909914,1.2891562454880365,1.2176953049858739,1.4768760653389044,1.6735352664833716,-0.33138944670590575,-0.755758580142933,-0.33849884257642876,0.00034596519040300803,0.0870786302271238,0.6739442616145714,1.4039939382192914,5.634110912877784,1.1788454696425619,1.1495092302599732,1.3370393269521768,1.3885097538647688,1.8124398107548962,1.6158338607130436,2.373952522027802,0.8705215763740901,Relax
99.75857720708505,601.5408163265306,18.643795224086453,,,,,,,14.077839571834497,14.150000303571206,0.030993400145213356,0.023402966498274513,600.0,20.7564,0.034594,26.75,1.3243363890427515,586.0,618.6,0.0,17.346938775510203,560.0,655.0,4.666666666666667,39.0625,,,0.052367184933560934,0.025450980774660736,0.0016338365490570672,0.07945200225727873,2.057570409455429,0.6591046599931782,0.32033152156752764,-3.6710009994133848,10.005561168446906,24.410691773324114,0.40988437613148415,767.3109768292697,2.4397124121638063,3.591941521041817,238.22027083553502,0.47959183673469385,0.4787234042553191,0.6444444444444445,0.06896551724137931,49.253731343283576,49.23536646321096,49.272051774945965,43.61702127659575,0.40751144402829786,0.5924885559717019,6.387650846229256,7.702137149302566,0.5692847892207457,0.4307152107792544,18.418102138579506,16.02046773552778,0.5460126681840435,0.4539873318159567,13.78456690869322,12.569373555029568,1.3532491627369458,1.360443898946032,1.5500277900513062,1.9383603040610364,-0.7594585064596835,-1.565583268565688,-0.21455455509001098,0.0007877221853517398,0.1364204870270537,0.5644447109879991,1.5488132906176655,5.49686418062914,1.2135991293140083,1.0378034667596705,1.4331797525277932,1.6720373283380983,1.7945663500757916,1.5948288369527028,2.677926361271527,1.0124555883849808,Relax
99.91043791510339,600.4747474747475,18.86760718005562,,,,,,,13.88031935173404,13.94893530448689,0.03142115011397559,0.023115575484409137,599.0,22.238999999999997,0.03712687813021703,28.0,1.359306418097544,584.6,618.0,0.0,17.17171717171717,560.0,655.0,4.95,39.0625,,,0.0536953460399676,0.021645744874902843,0.0014550934422446254,0.07679618435711506,2.480642100804979,0.699192889457571,0.2818596399821965,-3.832946385425391,9.863386744135118,24.862526502127828,0.39671699267131894,770.4087273783314,2.520688597850162,3.593691303900157,250.68274827064437,0.48484848484848486,0.4787234042553191,0.6444444444444445,0.06896551724137931,48.746518105849574,48.75164396482173,48.742286357460614,43.61702127659575,0.39568878767014465,0.6043112123298554,6.205667512713722,7.669056851379492,0.5741242204898438,0.425875779510156,18.83858128729814,16.22507562851,0.5498518074917523,0.4501481925082478,14.025021465161652,12.689907646247075,1.3518656705598713,1.4717689918322403,1.57927286609621,1.98177881499931,-0.870230831812723,-1.6581914229312442,-0.22651553937006735,0.0008564399399782131,0.1580980364474274,0.5815226864454996,1.717651497074333,5.538052579500743,1.2267058610631694,1.114577466108389,0.9462918999043849,1.192712188491328,1.83604774409014,1.5785344082946682,2.8156541041097913,0.9374847745567124,Relax
100.34947455585919,598.0204081632653,19.86188371162094,,,,,,,13.34629953733267,13.415055078125505,0.03321271889804546,0.022317465014821035,597.0,22.238999999999997,0.03725125628140703,32.5,1.4881940612873765,580.8,617.6,0.0,15.306122448979592,560.0,655.0,5.764705882352941,39.0625,,,0.055616559098703014,0.022829063392140192,0.0015325840737114732,0.07997820656455468,2.4362172964945734,0.6953964271981008,0.285441051665914,-3.779720844593418,9.485876415733573,26.539677632398156,0.3574224429973386,790.902554591022,2.797809761508026,3.605093088263036,297.0118765887991,0.4489795918367347,0.4408602150537635,0.5853658536585366,0.037037037037037035,49.405940594059395,49.396873785464166,49.415295133467545,45.16129032258064,0.4111008218543813,0.5888991781456185,6.082334392868142,7.279752170690061,0.5641949435534174,0.4358050564465827,19.934724504440712,17.520309579561253,0.5468512297834756,0.4531487702165245,14.737503735955688,13.415588683138964,1.369806422574648,1.6737962000415214,1.6647714279352757,1.9680933190727044,-0.7433240536650523,-1.186594783727843,-0.31878206490736194,0.001036479259374872,0.19305610448528726,0.5931182118917473,1.7047480922384253,5.528958538054922,1.1435514349651292,1.1988075205243744,1.0171170974127817,1.2547138382298815,1.8072000770432977,1.5570136860978498,2.5876829669811605,0.6749703922566539,Relax
100.80817719776816,595.2222222222222,19.73888504365026,,,,,,,13.606346058410557,13.675652045444973,0.03316221119896441,0.022859270958688636,592.0,17.7912,0.030052702702702702,25.0,1.4507116722530342,579.0,614.0,0.0,15.151515151515152,560.0,655.0,5.823529411764706,39.0625,,,0.05095015779690133,0.023601710720236417,0.0016322933703306459,0.07618416188746839,2.1587485077179593,0.66877624606752,0.309798127793261,-3.7464360814321003,9.67014629848182,26.198224966090148,0.36911456066197,795.8931820180819,2.709185999616488,3.6078248943162423,283.9034571717383,0.48484848484848486,0.4787234042553191,0.6666666666666666,0.07692307692307693,49.38505203405865,49.3667319511452,49.40322867270958,46.808510638297875,0.4156975141928018,0.5843024858071985,6.235085296914054,7.3921803209139325,0.5541867052607098,0.44581329473928993,19.502932543981313,17.492358719131722,0.5375792777343367,0.4624207222656633,14.47827107210801,13.42808518471064,1.3898236459824647,1.340100814723244,1.5717068786815522,2.000092223974684,-0.7703873779391905,-1.654568816122035,-0.18033349387851727,0.000958466602479,0.14296204714156086,0.6628675080931861,1.8971199848858813,5.5860817461892625,1.1923133741150804,1.2966863977227328,0.991644707122347,1.272274399362812,1.8264484165188706,1.604755569847984,2.433043884169078,0.7365951800088454,Relax
100.90018598026192,594.67,20.196536856850013,,,,,,,13.200474432857527,13.26677885359812,0.03396259582095955,0.022197982801986864,592.0,18.5325,0.031304898648648646,27.0,1.5299856804069456,578.0,614.0,0.0,13.0,555.0,655.0,5.882352941176471,39.0625,,,0.0553252539899374,0.021161708056907154,0.0025360407316553433,0.07902300277849988,2.6144039905077183,0.7001158149483782,0.2677917481346926,-3.855561954223947,9.381029291881523,27.101301066194576,0.3461468240572097,798.7125445524973,2.888947494242282,3.6093606154624283,313.1769432235541,0.5,0.49473684210526314,0.7021276595744681,0.07692307692307693,49.28503336510964,49.29147916737631,49.27929674400147,45.26315789473684,0.3991072981276447,0.6008927018723551,5.926850008259713,7.272396792120244,0.5875834580060553,0.41241654199394445,20.77422931120304,17.404364855003237,0.5674146177614006,0.43258538223859966,15.275734916770055,13.337909714571332,1.3490409316850103,1.4171680998337837,1.5568570848301482,1.997628292111534,-0.7958290282451284,-1.6758356492643922,-0.18897747039812504,0.0011295729016454039,0.1641420539837924,0.7398038072292055,1.4586150226995165,5.603465189601645,1.1439133498947391,0.9858804181218792,1.32289550104826,1.626409673464661,1.841438980189948,1.6198395073773606,2.8886118522122395,0.7308241808752197,Relax
101.5021399883719,591.29,19.995603052024748,,,,,,,13.038792160706489,13.100864592126143,0.03381691395427751,0.02205143357862722,588.5,17.049899999999997,0.028971792693288017,22.25,1.5335471879276672,575.6,604.0,0.0,13.0,553.0,655.0,5.555555555555555,46.875,,,0.05121282555887336,0.017462142897111513,0.0032262853189619894,0.07190125377494687,2.9327915743573882,0.7122660992695771,0.24286284286180262,-4.047720004308283,9.26371019249913,26.581791335266143,0.34849834142701047,773.6046601619174,2.8694541153488964,3.5954891872162986,305.1009221613003,0.5,0.49473684210526314,0.7021276595744681,0.07407407407407407,48.42105263157894,48.35610740043236,48.48461236154682,46.31578947368421,0.39914443586239684,0.600855564137603,5.854529033498906,7.18310091642253,0.5751995770176458,0.4248004229823542,20.160139063025195,17.325138485770207,0.5561220105812856,0.44387798941871426,14.844303911679322,13.26192599750553,1.355407504024894,1.0144263133304718,1.5272651447725054,1.808239581631088,-0.0843179828165006,-0.9755558246984171,-0.22302134401845986,0.0007162864696686398,0.09113563291076292,0.6077812155765989,1.6776461624606338,5.539819909835643,1.1408626113587204,1.4994753616657475,1.1601958384944655,1.6611171556367856,1.8251042661696235,1.6437460280922138,2.4475270149306363,1.063016990363956,Relax
101.34251035199799,592.17,22.307336746623804,,,,,,,14.528967929309676,14.601763687408837,0.03767049453134033,0.02453512999528797,590.0,20.0151,0.03392389830508474,27.0,1.5353696735487052,573.8,611.6,0.0,17.0,536.0,655.0,6.25,85.9375,,,0.033470987159513174,0.013297217503624162,0.002951814381487591,0.049720019044624926,2.5171421878592755,0.6731893471213708,0.2674419229745183,-4.32020047589577,10.325006120650277,29.78742628678692,0.3466229684042973,966.2136555567515,2.884979043955364,3.692043281066169,343.74440244298165,0.49,0.48421052631578954,0.6956521739130435,0.07407407407407407,50.77452667814114,50.75162210601676,50.79682343176628,46.31578947368421,0.46061824097999815,0.539381759020002,7.008012906520591,7.583548251421141,0.5681248310740458,0.43187516892595434,22.451991356231947,19.57546548438761,0.5565920173852231,0.4434079826147768,16.63135834437875,14.844343249401156,1.247956241666689,1.3430514472331159,1.234630019628658,1.8636424766226065,-0.6209415174597481,-1.5092625401384674,-0.03165423536841641,0.0011607833930648483,0.15341379482804693,0.7239192857765651,1.6094379124341005,5.659819909835644,1.1256364779854249,1.2622837761039194,1.4717923636967976,1.90054859717725,1.835503173646397,1.650478394034193,2.594165940772843,0.9301398665684615,Relax
101.34192373076502,592.09,22.228880568151226,,,,,,,14.365010802416244,14.43794075235173,0.0375430771810894,0.024261532541364053,590.0,19.273799999999998,0.03266745762711864,26.25,1.5474322208245226,573.8,611.6,0.0,16.0,536.0,655.0,5.882352941176471,85.9375,,,0.03657330955967911,0.014548203894073011,0.0023876401035365837,0.053509153557288705,2.513939853054933,0.6834963203169059,0.27188252713616956,-4.23028773669076,10.209165812357513,29.883169404309683,0.3416359782401518,958.4440970558273,2.9270921790826536,3.6885368969221415,349.88316579822765,0.48,0.4791666666666667,0.6956521739130435,0.07407407407407407,50.308370044052865,50.3078720080328,50.30822381488379,44.79166666666667,0.44461305007587254,0.5553869499241275,6.8074838769323485,7.608400298488561,0.5830804799757722,0.41691952002422783,22.818700495017147,19.295354916802513,0.5686080368929495,0.4313919631070507,16.837976853173153,14.666261903897253,1.4002186751082804,1.1649834951501965,1.5652990096409454,1.9827104226833785,-0.7382676176361187,-1.7324447093493576,-0.14170186549413893,0.0011621304635874889,0.12306509853399329,0.7386898123634369,1.591893602783191,5.6732696895151085,1.1058853274899463,1.3984370469437524,1.3118483161487409,1.7464916477181078,1.8107874427158686,1.628091104857248,2.7763791576307866,0.7972627427729669,Relax
100.7920369738767,595.3131313131313,24.415889132604654,,,,,,,14.17780674440277,14.250519976043993,0.04101352355314003,0.02381571310736857,592.0,22.238999999999997,0.037565878378378374,35.5,1.7221203231764857,575.2,617.0,0.0,14.14141414141414,536.0,660.0,6.6,62.5,,,0.042749450106796566,0.017414960613030526,0.002681293569320309,0.0628457042891474,2.454754337762316,0.6802286741844791,0.2771066186625241,-4.050425636835951,10.076639310495064,32.975350056370985,0.30558096557789877,1043.8906332413003,3.2724551351189435,3.7256251106703404,431.64141449726395,0.47474747474747475,0.47368421052631576,0.7111111111111111,0.07142857142857142,50.31731640979147,50.30631665458319,50.328029327616385,44.21052631578947,0.44200213208792316,0.5579978679120767,6.699361409788925,7.527270010729851,0.5684095466055994,0.43159045339440066,24.86108602321577,21.663335686972854,0.557613513409847,0.4423864865901531,18.20652412670666,16.21665666684882,1.3896692547324043,0.8278217261321674,1.5349742314316188,1.803182781077281,0.07271571842277069,-0.9264896081348151,-0.1760068730029432,0.0007879219815446893,0.07223602289750979,0.7104365499495815,1.549333988364395,5.717197402667506,1.0286051459824077,1.5074793220414422,1.328166730493521,1.7156588086197233,1.7950525425039576,1.6265092717321248,2.2947566186465513,0.8035583781914678,Relax
100.75961822201128,595.5050505050505,24.23834613193955,,,,,,,14.03276050344118,14.104177928952343,0.040702167196370376,0.023564469338320362,592.0,23.7216,0.04007027027027027,36.5,1.7272685674351607,575.2,617.4,0.0,14.14141414141414,536.0,660.0,7.071428571428571,117.1875,,,0.027105622905442592,0.013900871284026022,0.002180014325582927,0.04318650851505154,1.9499225877007158,0.6276409887591544,0.3218799519109361,-4.275803758505914,9.973159856623836,32.906388785322605,0.30307670409194865,1031.0099997043326,3.2994947698012975,3.7202329874619435,434.29783076088,0.5151515151515151,0.5157894736842106,0.7551020408163265,0.15384615384615385,50.64102564102565,50.630043571331115,50.65089126976417,43.15789473684211,0.4467302311120322,0.5532697688879675,6.666194141329586,7.418630768155725,0.5643679269744034,0.4356320730255966,24.720735446820765,21.719016134694158,0.5544703774367714,0.4455296225632285,18.10459755644402,16.22885923799532,1.3862883029666222,1.783741893355482,1.4445623834971686,2.2688866964806356,-1.370138113277907,-2.3515930069504516,-0.03786794151434592,0.0030715193040411,0.3074919074068423,0.7293301204900549,1.5918936027831911,5.813255736044546,1.0198457110366137,1.3760504371889333,1.3005903482927357,1.7056766655109419,1.7368485423449544,1.6346933682267015,2.577480871245927,0.7365951800088454,Relax
100.8934074622478,595.11,25.71321831198102,,,,,,,17.923800552969404,18.002170097546166,0.043207505019208246,0.030118466422962818,592.0,28.9107,0.04883564189189189,41.0,1.4345851615561052,571.8,618.2,1.0,17.0,536.0,660.0,7.142857142857143,117.1875,,,0.014156603684776128,0.009341607523846903,0.0017859065682961737,0.025284117776919208,1.5154355017204142,0.5599010339090845,0.36946543305436025,-4.673276929790005,12.729456552048587,33.768695242727496,0.3769602722447511,1350.436029698028,2.6527994423527064,3.8374441263955466,358.3263036355439,0.52,0.5208333333333334,0.74,0.2,52.72579332790885,52.61436496797094,52.837131029574515,44.79166666666667,0.6285175286904576,0.3714824713095425,10.098999748409113,7.76405900575839,0.5436476811385058,0.4563523188614942,24.898492354355078,22.812055077882142,0.5542203171693395,0.4457796828306605,18.999009414154276,17.039226348652488,1.3580946665505702,1.5913968171047324,1.6435160854911208,2.1537930751029366,-0.9046694802346362,-1.8944221672867112,-0.179352764736469,0.003548188032019079,0.28041797298294063,0.7926784229632386,1.5040773967762744,5.795916314580012,1.0206400900015091,1.1020488365352323,1.2500090372628798,1.6273371932305682,1.7355802103607,1.67387629204622,2.5360821531687265,0.7308241808752197,Relax
100.50534959976116,596.7373737373738,29.014277223951023,,,,,,,18.467014167019475,18.549984787584293,0.048621518444930366,0.030946635789476918,591.0,28.1694,0.047663959390862945,41.0,1.5711406815167808,571.6,618.4,2.0202020202020203,19.19191919191919,536.0,682.0,7.615384615384615,109.375,,,0.01768214919902218,0.012487309534604243,0.0013382872315536205,0.03150774596518004,1.4160095215083954,0.5612000686613109,0.39632506712489896,-4.38304238760793,13.11682003420815,38.0654265564829,0.34458618281197834,1568.588885669928,2.9020316248305433,3.9024792434273197,441.868286718311,0.5454545454545454,0.5483870967741935,0.7647058823529411,0.19230769230769232,52.54502740798747,52.33865773250813,52.76278222145846,45.16129032258064,0.5895395110858443,0.41046048891415576,10.077790217607385,8.409003520405111,0.5047003085651844,0.4952996914348154,27.04254032172673,26.789507495935368,0.5137152794223472,0.48628472057765276,20.406626898171083,19.854332676785727,1.1987735895008582,2.289949769551371,1.4971747910032844,2.0371601253297995,-1.4422346808434447,-1.6731196671666257,-0.2641933716160487,0.0028895591308276056,0.3873402354834188,0.7696724549992462,1.5885312276147867,5.8122469939222245,0.9549120625006791,1.2616627373790583,1.2728379059428065,1.7072416815981641,1.657700735380084,1.643932214164086,2.5093577736878854,0.8705215763740901,Relax
100.15708902823636,599.0918367346939,30.08924414282405,,,,,,,18.634022757411007,18.72955930481487,0.05022476070918153,0.03110378345158963,595.5,31.875899999999998,0.053527959697732996,43.75,1.6147476331087525,572.4,622.0,2.0408163265306123,19.387755102040817,536.0,680.0,8.166666666666666,125.0,,,0.016422605227518088,0.009932950484015145,0.0015276870619036487,0.02788324277343688,1.6533461285190725,0.5889775934943683,0.35623369077709366,-4.611897716759315,13.243798393070195,40.64266797936744,0.32585947359050127,1691.0040317266212,3.0688075107390396,3.9351147530146107,498.89809900622345,0.5306122448979592,0.5376344086021505,0.76,0.16,50.81332300542215,50.80353096994041,50.82073613421545,46.236559139784944,0.573735934206229,0.4262640657937711,10.032239696764293,8.64731413021793,0.5170710952365517,0.4829289047634484,29.225189769472472,28.243844345616637,0.5225111069227665,0.4774888930772335,21.84899940952688,20.886488276946984,1.3624946334244568,1.4255933242301495,1.4944082842351287,1.9133706074458399,-0.787105709445699,-1.3280280760295664,-0.2061137169417094,0.0012457523758011763,0.14995506200136807,0.7957718864968837,1.368275855617212,5.910428721577922,0.9382781182806221,1.0935387844179036,1.2647949621902501,1.606113876573051,1.6682176444417058,1.5967898310245723,2.3934471174402194,0.7424674314823193,Relax
100.2863996773717,598.3838383838383,30.276517158334443,,,,,,,18.60326940763535,18.695270781396367,0.05059715055157174,0.031089190941186694,593.0,32.6172,0.05500370994940978,44.5,1.6274836693978123,571.6,622.0,2.0202020202020203,18.181818181818183,536.0,680.0,7.071428571428571,54.6875,,,0.03343345410661964,0.01031408832464085,0.0024956247239067996,0.046243167155167283,3.2415326545871745,0.7229923070458147,0.22304026646860708,-4.574244519821988,13.219552745644098,40.87452898461173,0.3234178612950119,1697.5375736631743,3.0919751803312763,3.9367895057885494,505.53211651260335,0.5353535353535354,0.5425531914893618,0.7450980392156863,0.16,51.36363636363637,51.35990527433499,51.363954885879984,45.744680851063826,0.5817313362424814,0.41826866375751853,10.084692902009216,8.551240339284481,0.5237668740522893,0.47623312594771083,29.581607814432864,28.207367811033855,0.5292577098135902,0.4707422901864098,22.09946324930484,20.842016579102356,1.4350689055602517,0.9225638837874932,1.5299252409295852,1.7740436735404561,-0.22094021420342358,-0.8651584788109563,-0.23539129712224666,0.00029605793480897536,0.053217977916237474,0.7813897043379763,1.3475083360847342,5.7870932060871425,0.951203195166432,1.1089960462483026,1.165668138532206,1.3852520101873143,1.610799737992254,1.5689589411680478,2.28705125037803,0.6026687836436009,Relax
99.8132138732193,601.2551020408164,29.63012928304037,,,,,,,18.783355211188727,18.88045112564591,0.04928046212409341,0.031240242531719278,601.5,30.3933,0.05052917705735661,41.0,1.5774673347704418,573.0,622.6,2.0408163265306123,19.387755102040817,536.0,680.0,8.166666666666666,109.375,,,0.03250568372840144,0.011909189926967585,0.001640719326198749,0.04605559298156777,2.7294621991706114,0.7057923180233672,0.2585829245914572,-4.430444914135727,13.350495022805404,39.88824729587362,0.33469745922344635,1672.985571942031,2.9877729048800252,3.9304623055249146,476.70809797506047,0.5102040816326531,0.5212765957446809,0.7346938775510204,0.10714285714285714,50.486891385767784,50.488547617348026,50.48407066984014,43.61702127659575,0.5682727989948281,0.431727201005172,10.064376119097828,8.772293029761375,0.5319232617522951,0.4680767382477047,29.09172309755836,27.289996693875924,0.5355851920104676,0.4644148079895323,21.767177348609962,20.2693986658677,1.375144179017659,2.0921379278873724,1.6639910257969321,2.0159809859413413,-0.8918472648111848,-0.8767767476655575,-0.3317558534489901,0.0019707355914001935,0.297674733138912,0.7685124902642313,1.5869650565820417,5.899006114651763,0.9767125416725877,1.2426076547620828,1.2785056446863725,1.4919630849694736,1.5958504030070133,1.560889014838437,2.318487845179478,0.6749703922566539,Relax
99.48914216138931,603.1836734693877,29.394700040827374,,,,,,,18.98588732521536,19.0827574606608,0.04873258566790301,0.03147612934549846,603.0,28.9107,0.04794477611940298,39.25,1.5482394653100022,573.0,624.2,2.0408163265306123,19.387755102040817,536.0,680.0,7.538461538461538,109.375,,,0.043855600603031404,0.013951167267600994,0.0023498615383962273,0.06015662940902862,3.1435076192425795,0.72902356787379,0.23191404512944885,-4.272192099118483,13.493547204171435,39.36880644574075,0.3427471752990185,1668.8920803445128,2.9176024547177755,3.929398363701413,459.45010530160874,0.4897959183673469,0.5,0.6808510638297872,0.1111111111111111,50.92936802973978,50.95862905150296,50.8993114792599,41.48936170212766,0.5570427570427571,0.44295724295724304,10.071877100785798,8.981462390204987,0.545036790541492,0.45496320945850777,29.06465402670606,26.554638149861468,0.5462991366927945,0.4537008633072055,21.750825524855994,19.821900437858435,1.3293897600111042,2.1824258718645373,1.6201872516321072,2.00850107460793,-1.0385885787767783,-1.022901720156348,-0.3220723883537588,0.0021752187397717044,0.32309854906022883,0.7452015693227869,1.5730702682632254,5.833798364390915,0.9975957860510197,1.1770013324033186,1.1224197440971992,1.5153714632443307,1.6052908131310315,1.5726931105387725,2.189841247782242,0.6074733530309886,Relax
99.30605494898312,604.295918367347,28.439195104996756,,,,,,,18.873152261576756,18.968112824519768,0.04706170311696327,0.03123163947982172,603.0,27.428099999999997,0.04548606965174129,36.5,1.5068598351158964,579.2,624.2,2.0408163265306123,18.367346938775512,536.0,680.0,6.533333333333333,93.75,,,0.04498203695448826,0.010569638929024796,0.003158581114344008,0.05871025699785706,4.255778012526537,0.7661699889361772,0.18003053417753886,-4.5497696396621885,13.412481204529445,38.002533432007645,0.35293650168156365,1601.2957419959025,2.8333708619978566,3.911441658780216,430.70108363339943,0.5,0.5106382978723405,0.7083333333333334,0.16,51.24153498871331,51.2661499692671,51.214980000280505,41.48936170212766,0.5658012792683279,0.43419872073167204,10.090476120249892,8.839424000842287,0.537934949181488,0.4620650508185119,27.872596658970878,25.832361540075738,0.5410225005428502,0.4589774994571499,20.960669751310522,19.306039461834875,1.4125975325280893,1.0364154624142667,1.6013928733141982,1.7511244496522123,0.1455450062680228,-0.39670956094871457,-0.3555293878101515,0.0004838746147105356,0.07837548458898787,0.7531737724077394,1.4932664806720584,5.777576170469209,1.0133001885260204,1.0145539595333988,1.194275868811718,1.349287240693974,1.5814196804203904,1.5662210425075196,2.2257492492678703,0.6749703922566539,Relax
98.68738352818717,608.1134020618557,25.620985981816006,,,,,,,18.734993995195193,18.82663287109933,0.04213192127479194,0.030808388586195834,607.0,23.7216,0.03908006589785832,30.0,1.367547061311405,586.2,624.6,2.0618556701030926,18.556701030927837,550.0,680.0,5.705882352941177,78.125,,,0.03166465717511649,0.011020345392498049,0.0017200961556842179,0.04440509872329876,2.8732908132508967,0.713086066364322,0.2481774775723181,-4.508012133416583,13.312439770063897,33.59479583235391,0.3962649404537585,1405.0103861605392,2.5235641559783493,3.8546496446196428,339.11449035975664,0.4948453608247423,0.5053763440860215,0.723404255319149,0.16666666666666666,51.86915887850466,51.929466564901574,51.80864185118641,39.784946236559136,0.5658238366571698,0.43417616334282993,10.017353364090368,8.774964387392123,0.5447647440501047,0.4552352559498953,24.795707391295018,22.66678631793271,0.5476245416725232,0.452375458327477,18.9099771741768,17.186960202182664,1.3289869331373316,2.080856966903667,1.6495412591134377,2.13919682186956,-1.0924008666964191,-1.629016109929407,-0.2646856220566019,0.002374560159773081,0.3415938827901563,0.780929337024876,1.39285176166605,5.6666208317440265,1.0280054995753936,0.8975190847505673,1.2410043875446557,1.4047058358451385,1.6154004901365755,1.5840452193358954,2.1129256862901524,1.020605078688731,Relax
98.83401161482159,607.1752577319587,24.977494165280717,,,,,,,17.924901208467883,18.01677763407734,0.04113720683972137,0.029521791245948534,605.0,20.7564,0.034308099173553715,28.0,1.3934522636856221,587.2,623.8,2.0618556701030926,16.49484536082474,550.0,680.0,5.388888888888889,78.125,,,0.03757104364663863,0.01093023434092886,0.0021181511116548017,0.05061942909922229,3.4373502410604138,0.7422257483977801,0.21592962495692766,-4.516222536865351,12.73978564018621,33.082783425983465,0.385088082708914,1324.0794192121982,2.5968084833097644,3.8288841451343445,343.6386106083741,0.5051546391752577,0.5161290322580645,0.75,0.16666666666666666,48.888888888888886,48.87882759179004,48.900087016550934,40.86021505376344,0.5369427784081698,0.46305722159183,9.336403003974901,8.670275901638096,0.5387525925589473,0.4612474074410528,24.282686244608765,22.46823775814237,0.5385188194218065,0.46148118057819343,18.395886392163103,17.029318720473533,1.3488082215176773,2.3775423979621744,1.6295734172764103,2.0603991322490507,-1.542985966503636,-1.3878456446114278,-0.31879367731069386,0.0018698660545036674,0.3395838794360882,0.646100346966668,1.405342556090585,5.614872893510482,1.015852683775574,1.2196721365979173,1.0181818345436904,1.5492558231983498,1.6372540613890436,1.5745328101430973,2.5846945973849538,1.020605078688731,Relax
98.96853004553763,606.2577319587629,24.823241105243937,,,,,,,17.770234944985955,17.855533198128633,0.04094503013601548,0.02931135391473188,605.0,22.238999999999997,0.03675867768595041,30.0,1.3968999949687249,586.2,622.0,2.0618556701030926,15.463917525773196,550.0,680.0,4.85,78.125,,,0.04425604331647604,0.010087791851852879,0.002717335998315898,0.05706117116664482,4.387089262586965,0.7755894667361116,0.1767890782050704,-4.596429313774568,12.625768606098278,32.48307167087864,0.3886876442604839,1288.4417491670877,2.5727599391603952,3.8170348987104474,334.28458198284994,0.5051546391752577,0.5161290322580645,0.7291666666666666,0.17391304347826086,47.869674185463666,47.94484722269091,47.79279749081183,40.86021505376344,0.5249216559459013,0.47507834405409866,9.151646386249164,8.706319543871567,0.5128350915942336,0.4871649084057664,23.26194142327111,22.67227439838672,0.5144226762309678,0.48557732376903207,17.675838740476273,17.173118912936896,1.3357584936693654,1.4718202065303183,1.493981207121118,1.897948652529743,-0.7547374598964662,-1.3061442927147544,-0.2255320700067426,0.001269459330502125,0.16017880040576085,0.670955294607646,1.3049487216659381,5.6070905481273545,1.0136694869095495,1.3841837612821895,0.9963393033371735,1.6901460061487443,1.6351669115560854,1.5908778227149671,2.0963775498762653,0.9525647401094823,Relax
99.33873554811618,604.0408163265306,23.4691806538672,,,,,,,17.265960791738628,17.355577354040868,0.038853633760372076,0.028584096182012055,603.0,19.273799999999998,0.03196318407960198,24.75,1.3592745250004663,586.4,616.6,2.0408163265306123,13.26530612244898,550.0,680.0,4.260869565217392,70.3125,,,0.032940829110008285,0.012030591222338849,0.0018023879771783711,0.0467738083095255,2.7380889684658665,0.7042580089271857,0.2572078617744028,-4.4203026045390805,12.272246438449976,31.014864521803762,0.3956891841272582,1195.7594695847597,2.5272361239936965,3.7846139388301685,313.52754400109177,0.5204081632653061,0.5319148936170213,0.74,0.17391304347826086,50.21570319240723,50.202549269426,50.22799751758231,40.42553191489361,0.551716983089532,0.4482830169104679,9.115577326752266,8.216789214772398,0.5349865738502881,0.46501342614971186,22.685133005830963,21.149623207367085,0.5372514599832646,0.46274854001673543,17.28740884997288,16.04403606973009,1.3591438154174849,1.0332166507453078,1.5572848984894143,1.460599286976934,0.27504613802368283,0.2301661968048032,-0.5935772874379603,0.00018399439450624079,0.05612661124571494,0.6635461002878489,1.170932950247736,5.519972981715775,1.0164290886492289,1.0508214295665066,1.0972576843465134,1.4401040344905909,1.6467228009843273,1.5805878275397645,2.5088035269009783,0.9449585491593154,Relax
99.59702315088508,602.3571428571429,23.884278571616893,,,,,,,17.347271688987476,17.43708006428785,0.03965135776148897,0.028798980629174038,602.0,19.273799999999998,0.03201627906976744,24.75,1.3768319883281293,585.4,614.0,2.0408163265306123,14.285714285714285,550.0,680.0,4.666666666666667,62.5,,,0.041067974125005346,0.02672736229078458,0.001705500427077931,0.06950083684286786,1.5365517060082399,0.5908989875597408,0.38456173342504624,-3.622067433431691,12.3298775575507,31.10702171260017,0.39636959370354563,1204.9445698804766,2.522897860696964,3.7879371788239338,313.9193541254919,0.5102040816326531,0.5161290322580645,0.7291666666666666,0.125,49.563699825479915,49.51832867375939,49.606971358041086,40.86021505376344,0.5416238437821174,0.45837615621788286,9.074345706440768,8.347903928531998,0.526077830494721,0.4739221695052789,22.56230327645579,21.414697539059727,0.5281886871226259,0.47181131287737393,17.19594834748534,16.2523347659561,1.2757249430375364,1.4935685174403428,1.4721629826712894,1.6945170799167633,-0.45971917871911927,-0.5818950195486323,-0.3511256131546337,0.0007196792073057576,0.13338063396536562,0.6191714858225845,1.1480923459314796,5.463750787794072,1.0079931684870782,1.0929205476764554,1.152263551805864,1.4248777168548266,1.597980606832265,1.6186963055442964,2.0339488955593814,0.9449585491593154,Relax
99.39053620539826,603.6428571428571,22.736160399036635,,,,,,,12.940386711664482,13.003642431828299,0.037664920788843086,0.02143715701849518,602.0,17.7912,0.029553488372093022,25.5,1.7569923454097574,586.4,614.0,0.0,11.224489795918368,565.0,680.0,4.9,46.875,,,0.06259792622970396,0.05019087832781405,0.004014512675997019,0.11680331723351503,1.2471972660222277,0.5359259284096975,0.4297042200220363,-2.991921975412351,9.194963743670916,30.675049396835227,0.29975383656984655,886.1049539515606,3.336070728712715,3.6544552745379084,409.3365375783945,0.5306122448979592,0.5368421052631579,0.7647058823529411,0.125,48.44221105527639,48.50318139358834,48.381287532381826,38.94736842105263,0.38675121590839134,0.6132487840916087,5.7200305943237755,7.2027917041473115,0.5524692209688415,0.44753077903115845,22.80023454631606,20.520915187468063,0.5387990278796272,0.4612009721203728,16.621814662771094,15.378364159828424,1.2515773851926313,1.1570401239952233,1.3801450412928138,1.649698881468396,-0.3939138002834941,-0.9046056393876061,-0.26703155354299973,0.000501682961436963,0.08455547363506462,0.6332649668318151,1.0919233005173128,5.488142211524309,1.0338791581015683,1.0817485939260563,1.1085015172617323,1.3940420619958496,1.6113328966834635,1.654509697316029,2.227226090929059,0.8099644707079847,Relax
100.25288770296329,598.4489795918367,14.838041419770905,,,,,,,12.087311230522078,12.148335057675167,0.02479416278709502,0.0201977305379751,599.5,16.3086,0.02720366972477064,21.75,1.2275717185392616,586.0,610.6,0.0,9.183673469387756,565.0,632.0,4.260869565217392,46.875,,,0.04870363434283466,0.05549126084615387,0.0032698177276985693,0.1074647129166871,0.8776811627665573,0.4532058293459784,0.5163672738713211,-2.8915297328596887,8.590170099408377,19.09369982094182,0.44989552470007654,515.2781500296544,2.222738269438558,3.4190118368926083,169.76118918871805,0.5510204081632653,0.5531914893617021,0.8076923076923077,0.11538461538461539,48.924731182795696,48.95369973982226,48.89553885623727,38.297872340425535,0.35513688964154677,0.6448631103584535,5.119916177699267,6.899199832830858,0.6352432470957773,0.36475675290422277,15.218088979971304,11.531658191687336,0.5880803697279909,0.41191963027200906,11.35349668315869,9.502055014133601,1.2059998103099858,1.4839384901395851,1.4231414049995754,1.7289789854801598,-0.6291717749274977,-1.0868660056284378,-0.2939014436832782,0.0007534061657228425,0.14554186128235952,0.48175834626182734,1.359626114037729,5.337582134971621,1.2773162141782863,1.1738676468960685,0.8928011546343636,1.0889293861753944,1.7046716167319638,1.7146779799978795,2.5415493014084207,0.9449585491593154,Relax
100.51930365092493,596.939393939394,15.001236807389965,,,,,,,12.568993270613788,12.630351269694613,0.02513025100989232,0.02105572759684527,598.0,16.3086,0.027271906354515048,20.5,1.193511404168124,585.0,609.0,0.0,11.11111111111111,561.0,632.0,4.125,54.6875,,,0.05037166225358676,0.06603938716131821,0.0034034207321189005,0.11981447014702387,0.762751812498517,0.42041384643921464,0.5511803964936918,-2.7175039397837124,8.93100703156918,19.180710162326086,0.46562441932473775,538.1644264461052,2.147653685024143,3.4378850967586043,164.77409144599864,0.5252525252525253,0.5212765957446809,0.7755102040816326,0.16666666666666666,51.440329218106996,51.47318727338344,51.407444417703395,36.17021276595745,0.3844464539465188,0.6155535460534816,5.538990194172041,7.008830953889969,0.6849258163749068,0.3150741836250932,15.874002736162844,10.76641442001253,0.6313647475817901,0.3686352524182099,11.888321480319235,9.084035193779798,1.1360890975030233,1.4195075211388781,1.3331438484760956,1.6983421135078776,-0.6826198742840965,-1.3217405372541542,-0.2427288974567873,0.0009134514944209013,0.14589349728493853,0.6569080409379477,1.2794312155775294,5.322051791770903,1.308417632914399,1.21885930611225,1.1515786445811524,1.8014910537828557,1.6913487496443782,1.7829027358464486,2.5240869700239394,0.8705215763740901,Relax
100.23833767229844,598.5656565656566,14.748338969885566,,,,,,,12.435137838448936,12.49664798312822,0.0246394673802469,0.020774893617848133,599.0,14.825999999999999,0.02475125208681135,20.5,1.1860213502647559,587.0,610.0,0.0,11.11111111111111,561.0,632.0,4.125,54.6875,,,0.05366571687804346,0.06891165332126863,0.006407739792583227,0.1289851099918953,0.778761128075856,0.4160613336021151,0.534260530735669,-2.6749299814285,8.836464530971156,18.800731214880457,0.4700064284721674,521.9190535624443,2.127630473588762,3.4245732617817737,160.0040346341245,0.5252525252525253,0.5161290322580645,0.7708333333333334,0.16666666666666666,51.25523012552302,51.22632428909627,51.28440520559832,36.55913978494624,0.3814174475386036,0.6185825524613962,5.458371042077452,6.951229217114479,0.6734292888837486,0.32657071111625147,15.42839470820526,10.743934611770701,0.6205769996220222,0.37942300037797766,11.572147115059629,9.048528017607904,1.12234914799009,1.1803173962267586,1.313757552798981,1.5612302968669223,-0.13991990601203952,-0.7831311505494529,-0.29033373153775194,0.0007310623257776238,0.1072540006409103,0.48304312075332145,1.4403615823901665,5.241243710962822,1.3121840216286738,1.1231131581563671,0.9811544563669367,1.224514150173843,1.7317752204873185,1.7870658501622145,3.1933598922357502,1.0714111709219571,Relax
100.20072689504558,598.7551020408164,14.820618978190378,,,,,,,12.405934728783855,12.465105935345333,0.024752388627128682,0.02071954741846719,599.5,15.5673,0.025967139282735613,19.75,1.1946394449266327,587.0,610.6,0.0,11.224489795918368,561.0,632.0,4.260869565217392,54.6875,,,0.05155238085919691,0.05324143600985591,0.00564807131777303,0.11044188818682585,0.9682755523283345,0.46678286387126783,0.4820764737360481,-2.9329183134325,8.814160935091365,18.93355741058534,0.4655311595148812,524.2797328460392,2.1480839242685192,3.4265331794183043,162.68348121157385,0.5306122448979592,0.5217391304347826,0.7708333333333334,0.21739130434782608,51.86368477103302,51.84320179014835,51.883890015791266,38.04347826086957,0.39138589322794554,0.6086141067720542,5.5165470782607,6.879165404805052,0.6688835941430501,0.3311164058569499,15.484867475911344,10.894882994938232,0.6194219479803346,0.3805780520196655,11.623541035613966,9.111020583339194,1.1299801879637572,0.7284022759773912,1.2829643671124602,1.4036311915347248,0.35424590809046563,-0.449484735027605,-0.334340407214749,0.0002908699241448705,0.042721265506952204,0.5337706984635866,1.6226831391841208,5.295746773031723,1.3136695530569653,0.7816901339900987,0.9619587668492446,1.305002471439256,1.7605543031422035,1.7847695669805268,3.068019872446681,1.0799526276106464,Relax
100.00102153834851,599.9183673469388,15.198123506923684,,,,,,,11.72406108169958,11.776538356839122,0.025333652600328632,0.019542760681836965,602.0,16.3086,0.0270906976744186,21.0,1.2963190315211568,587.0,613.0,0.0,10.204081632653061,561.0,636.0,4.260869565217392,62.5,,,0.058746625152496,0.09473029060690062,0.006225767642058689,0.1597026834014553,0.6201461515226958,0.367849956564729,0.5931665554345806,-2.356721471360556,8.327270131024425,19.68889258970485,0.422942534379952,515.0789664149188,2.3643874018630773,3.4188439255064256,186.20867838293378,0.5510204081632653,0.5384615384615384,0.7959183673469388,0.16,52.423900789177004,52.417742002808076,52.42966451661877,38.46153846153847,0.4181354533863347,0.5818645466136652,5.388548815157318,6.356591067545559,0.6344195247020055,0.3655804752979944,15.682292860076444,11.904544596906259,0.6015612674068325,0.3984387325931676,11.72541614789296,9.542652463013887,1.1972479129194198,0.7286275242839342,1.2261754188678438,1.561561675061387,-0.11206795662293167,-1.1037281163078492,-0.03970136315788065,0.0003733291766782805,0.044897610245869635,0.7027287662099448,1.3862943611198904,5.30947103801077,1.2631967629705032,1.7516738067092603,1.379468484326787,1.7236603522997156,1.732879017866615,1.7770085607039159,2.524371664342294,0.9449585491593154,Relax
99.55293310505787,602.6632653061224,15.49322690563543,,,,,,,11.449575691053125,11.508979760181825,0.025707933098868496,0.018998296976400778,604.5,15.5673,0.025752357320099256,20.75,1.3531703989469301,589.0,615.6,0.0,10.204081632653061,561.0,635.0,4.666666666666667,70.3125,,,0.020932805704159067,0.04573260693932667,0.004543893333125304,0.07120930597661103,0.45772168054907886,0.29396165876177094,0.6422279547893321,-3.0849437357354765,8.138077632963293,20.42805979890812,0.3983774138647408,522.2744996312857,2.5101824681745772,3.424868931625362,205.11263026416415,0.5714285714285714,0.5604395604395604,0.8235294117647058,0.14814814814814814,49.767441860465105,49.77352063164721,49.76144456151849,42.857142857142854,0.39760931110412084,0.6023906888958791,5.131601439446884,6.316314853879066,0.5775458481606285,0.42245415183937174,15.524597655760989,13.277518396692457,0.552900161739329,0.44709983826067135,11.561714096676862,10.396834328482877,1.0424225393370217,0.6751389412941105,1.1799739311849948,1.315617390592657,0.29824463153997804,-0.5752554016449327,-0.29908808230249617,0.0002314069119188409,0.03572428640389171,0.6532039954769862,1.428494715610267,5.395086951536925,1.228864961503762,1.3170310623514185,1.344558432027254,1.7404812420016729,1.777785011905333,1.78631739732049,2.586010904574889,0.9449585491593154,Relax
99.50981483141678,602.9591836734694,15.652751391715922,,,,,,,11.212566587741456,11.270580640433241,0.025959885537115594,0.01859589652392389,605.0,16.3086,0.026956363636363632,21.75,1.3960007523013382,589.0,616.0,0.0,9.183673469387756,561.0,635.0,4.666666666666667,70.3125,,,0.02107128641398378,0.02725413944352932,0.002628524993869446,0.050953950851382546,0.7731407721620991,0.4135358703673917,0.5348778453514136,-3.602549863224898,7.9695039987601675,20.732694207616362,0.38439307110565935,519.0831217138751,2.6015037084919954,3.4222070177354604,215.7447234725779,0.5816326530612245,0.5714285714285714,0.8461538461538461,0.14285714285714285,49.57678355501815,49.57409396750264,49.579672261055656,43.956043956043956,0.4,0.5999999999999999,5.040461288413988,6.173279112432873,0.5801743833224499,0.4198256166775504,15.791922967544515,13.433531854790427,0.5569785767401868,0.4430214232598132,11.721584385501389,10.45392636987819,1.1502471600456252,1.4990428354590888,1.4263023494240987,1.7683460857552196,-0.6660444595381758,-1.402993476710658,-0.27182524192087654,0.0010686520773303262,0.17261442268300542,0.6760291302476626,1.5173226235262949,5.424217083907061,1.1756051249518837,1.2998948660663052,1.1449644680967785,1.371709546690794,1.810510040460518,1.7562335766202817,3.11666137578589,1.0124555883849808,Relax
99.71140104444643,601.8265306122449,16.06496188014131,,,,,,,10.867998990699975,10.923350567882823,0.026693675109002328,0.018058358078105723,604.0,17.7912,0.029455629139072848,23.5,1.4781894895176664,587.4,616.0,0.0,9.183673469387756,561.0,635.0,5.157894736842105,70.3125,,,0.01553479666699676,0.019729356238774965,0.0015048027489509557,0.036768955654722685,0.7873950107133018,0.4224976312320537,0.536576464777587,-3.925647588026567,7.723975259827869,21.316194656626095,0.36235244537077294,517.249910567934,2.759744035884073,3.420670534210426,235.30896428547126,0.5918367346938775,0.5824175824175823,0.8301886792452831,0.14814814814814814,49.075215782983975,49.052170149703564,49.09816504746769,46.15384615384615,0.413197172034564,0.5868028279654359,4.965506016510301,5.917400189272312,0.5716884402303176,0.42831155976968244,16.117192121374014,13.950493638645717,0.5532905532479302,0.44670944675207,11.92518620142429,10.715220430814632,1.2220052515855175,1.4277478776990329,1.2559047067519602,1.9016096079212592,-0.8265560914797323,-1.7580169264521825,-0.04774585117232264,0.001407801298489974,0.17516100077917468,0.6537398297688899,1.5705980791178364,5.534979869338421,1.1539216893813482,1.5102809454421189,1.2244193853350038,1.5363949297419623,1.9286417870620416,1.7278874324861044,2.7934726106585623,0.8774615099336501,Relax
99.7983551883031,601.2525252525253,16.51921789566806,,,,,,,11.27847869318611,11.336447553385245,0.027474675285114204,0.01875830573592878,603.0,17.7912,0.029504477611940298,24.0,1.4646672077900136,587.0,616.0,0.0,10.1010101010101,561.0,635.0,5.5,70.3125,,,0.017315209478516745,0.04354941549864302,0.0026835273091978615,0.06354815228635763,0.397599124586558,0.2724738462967701,0.6852979029571581,-3.1338589971596167,8.016078939564352,22.03857337941913,0.3637294847338086,555.0030067957138,2.74929595199531,3.4512654459335654,242.36224231915446,0.5858585858585859,0.5714285714285714,0.8461538461538461,0.17857142857142858,49.88262910798123,49.883073576647604,49.88226098515411,47.25274725274725,0.4319749719236324,0.5680250280763678,5.268560710361311,6.041522986797285,0.5546048780097106,0.4453951219902894,16.412521971636146,14.708087541573946,0.5402766168245616,0.45972338317543854,12.188695775762929,11.243394485888208,1.13023309449482,1.5184235049363561,1.378543041047334,1.7543890400858695,-0.6965496545555858,-1.3888357022372428,-0.25247617162361513,0.0011805242904049744,0.17871874122455908,0.6240701732766483,1.7047480922384255,5.552907882399926,1.1905275744927015,1.025660841259199,1.2599949710935263,1.3217984280477133,1.950146356430728,1.7453924268296948,2.9562258971391753,0.8705215763740901,Relax
99.88021874965644,600.734693877551,16.94597298536696,,,,,,,11.483740186010557,11.540251535312468,0.02820874698610481,0.019116159434519546,602.0,20.0151,0.03324767441860465,26.75,1.4756492841949238,586.0,616.0,0.0,10.204081632653061,561.0,635.0,5.444444444444445,70.3125,,,0.011242265220814474,0.02886215943426482,0.003379056051149516,0.04348348070622881,0.3895157341369193,0.2585410606102669,0.6637499796590673,-3.5452239039635227,8.160190117217912,22.58688360523787,0.36128003578703416,579.037197317182,2.76793595256804,3.4696765736386186,250.07618874963012,0.5408163265306123,0.5326086956521738,0.7755102040816326,0.14285714285714285,48.48837209302325,48.496003545061264,48.4815508798878,48.91304347826087,0.4120544090056285,0.5879455909943713,5.239572978783672,6.258743883560022,0.5517779647756235,0.44822203522437654,16.77793433521351,15.121780002361731,0.535638564638524,0.4643614353614761,12.428841570249746,11.57238319102481,1.070643864784571,1.4863267580657973,1.2874018540839507,1.721583797047584,-0.8595815595948153,-1.6790895651752042,-0.2078825765549376,0.0010810589038372515,0.171317490245017,0.6682572284201647,1.8658674413817768,5.578496833690363,1.2077050777691263,1.5256283367479648,1.182829343039394,1.421712743622031,1.9797027814067063,1.79164658598957,2.5584623040978225,0.8099644707079847,Relax
99.78713784424721,601.3775510204082,16.05564762769764,,,,,,,11.130898760499749,11.183806792155396,0.02669811601789036,0.018509002774734457,602.0,17.7912,0.029553488372093022,23.5,1.4424394627210482,587.0,616.0,0.0,9.183673469387756,561.0,635.0,5.764705882352941,70.3125,,,0.009036330200501291,0.019235177039264757,0.00266360608157554,0.03093511332134159,0.46978149366940763,0.2921059349818928,0.621791064395253,-3.9510145388033515,7.90814562221325,21.07773566400455,0.375189524542637,523.6588942173855,2.6653196173827576,3.42601859427914,224.71560942111805,0.5204081632653061,0.5054945054945055,0.7391304347826086,0.13793103448275862,51.89125295508275,51.95211026097554,51.8314732964913,47.25274725274725,0.4540688966550176,0.5459311033449824,5.331217028034031,5.84567147554496,0.5755952668281838,0.4244047331718164,15.991255443794461,13.731376116506437,0.5605877285792746,0.43941227142072536,11.91935664515258,10.552785533994411,1.1026333677799465,1.7272139254108978,1.2162666581088102,1.9151328783702808,-1.5064884298440777,-2.4042735256138488,-0.095379466330314,0.001414938543723764,0.22634054857570182,0.6777611803218861,1.6326947745983678,5.524975277589991,1.212564108163988,1.3002903937367,0.9865400784459343,1.6336096589915097,1.9231934321721278,1.8062091994760625,2.1965428717518845,0.8774615099336501,Relax
99.71453892151668,601.7755102040817,15.75359923675431,,,,,,,10.914380941684517,10.970487197343564,0.026178531644486084,0.018136964294181886,603.5,17.049899999999997,0.02825169842584921,21.5,1.443380006701774,587.0,616.0,0.0,8.16326530612245,561.0,635.0,5.157894736842105,70.3125,,,0.006342844862046672,0.021147790612230766,0.00229705581114233,0.029787691285419766,0.2999294336864819,0.21293509460907148,0.7099506440293347,-3.8562198417251534,7.757305890161836,20.94991009092567,0.3702787198844289,510.5554932493151,2.7006682974169274,3.4150130632449613,226.31503206519173,0.4897959183673469,0.48387096774193544,0.6666666666666666,0.14285714285714285,50.66344993968639,50.67323037024947,50.65337940459303,46.236559139784944,0.4183470359151883,0.5816529640848117,5.017677085398515,5.916519951232593,0.556196383866797,0.443803616133203,15.624144395038675,13.956534123515441,0.5395736527720776,0.46042634722792236,11.603684143631964,10.718909764387986,1.1142091071839526,1.6097826556597443,1.3564472053074623,1.7755769414570635,-1.0982569508833375,-1.8094748503439178,-0.2396358230870444,0.0007742765290766688,0.17461173361907106,0.6597635182895676,1.5260563034950492,5.509569410198901,1.1824263437168783,1.4095880181824167,1.1930039528583407,1.4910476205712186,1.953296087574849,1.7858279762751403,2.650943168206345,0.9449585491593154,Relax
99.75649076857285,601.530612244898,15.873341511959996,,,,,,,10.787067476486278,10.831208488418438,0.026388252216659535,0.017932699112733763,602.0,16.3086,0.0270906976744186,21.5,1.4715159190911535,586.4,616.0,0.0,7.142857142857142,560.0,635.0,5.157894736842105,70.3125,,,0.0073559277382543,0.018379606604350736,0.003286420074814134,0.02902195441741917,0.40022226245653364,0.25346079841677455,0.6333000989526457,-3.996513565746617,7.658820970605972,20.77928470088449,0.3685796253746871,499.96820183409716,2.7131179564888583,3.4059124938835494,225.50660177985569,0.47959183673469385,0.4787234042553191,0.6666666666666666,0.10344827586206896,52.95536791314836,53.035964858851,52.87676771147834,43.61702127659575,0.44077257021352,0.55922742978648,5.090329884529424,5.733672470589857,0.5819399233759905,0.41806007662400946,15.851474622098287,13.43537959960143,0.5650232527851491,0.4349767472148509,11.77244040181048,10.32919224783299,1.0186856585023905,1.713340862497713,1.270638067005733,1.6262511821659213,-1.0934612671966235,-1.5160513638104698,-0.29244461919750475,0.00063011076539234,0.17638518806193357,0.6368992793773969,1.418382675671391,5.481458313238048,1.155489855945078,1.4660235973165439,1.163390339152313,1.4309822314442546,1.9124370521913034,1.7718923320353326,2.1062409495662355,0.8774615099336501,Relax
100.05349755330374,599.6969696969697,16.816206071582542,,,,,,,10.668951711027887,10.718462612438774,0.028041172327550472,0.017790571322077828,599.0,19.273799999999998,0.032176627712854754,24.5,1.5761816649896905,584.6,615.4,0.0,7.07070707070707,551.0,635.0,5.5,78.125,,,0.007414949475152401,0.011210171153538503,0.0025166146233358243,0.021141735252026728,0.6614483734097015,0.3507256801185028,0.5302389335550804,-4.490933774080768,7.579097597149935,22.509390938281093,0.33670824847865494,535.9584423184725,2.9699302126344946,3.4361012262003214,267.4052808624085,0.48484848484848486,0.48421052631578954,0.6521739130434783,0.1,48.00000000000001,48.03956371309396,47.960742774980005,47.368421052631575,0.3890632003585836,0.6109367996414165,4.729813317734491,5.926960939586277,0.529940352092696,0.47005964790730403,16.386161803591527,15.432640142207978,0.515582272543735,0.4844177274562653,12.059797524712023,11.689637456702208,1.0307821429724768,2.3219759568992266,1.3484990836759128,1.9557423990787584,-1.7273850042606895,-2.189622452966046,-0.2384799297346041,0.0026017462125732375,0.39873215764157394,0.5828919957732275,1.3545456628053103,5.52446694346088,1.1211767899334697,1.5410307536859813,1.1914163603433359,1.433659107769103,1.865402335472034,1.7619630946099345,2.109341060724755,0.8035583781914678,Relax
99.97065502603465,600.1632653061224,17.178081141445425,,,,,,,10.29062229490981,10.342398473544085,0.02862234684204386,0.01714637147886904,599.0,19.273799999999998,0.032176627712854754,27.75,1.669294688810263,583.4,616.0,0.0,4.081632653061225,551.0,635.0,5.444444444444445,78.125,,,0.010813674414093817,0.019154599634436838,0.00236378413325302,0.032332058181783675,0.5645471385709675,0.33445672877659205,0.592433662179564,-3.955212402408607,7.31318009437642,23.187598704414732,0.3153918690590436,532.7358421522679,3.170658783891455,3.433482026805379,294.07985403801075,0.4897959183673469,0.4893617021276595,0.6956521739130435,0.10344827586206896,51.12781954887217,51.09994162695828,51.15567328802584,44.680851063829785,0.4279595015576324,0.5720404984423677,4.7849590733185305,5.53210327693425,0.553409253983745,0.4465907460162548,17.24959823177178,15.495679866318602,0.542056138054363,0.45794386194563724,12.657892251296767,11.634437270149734,1.2958777102188785,1.3774682431318863,1.6138172424464967,1.9846118317848216,-1.3037128644917253,-2.304802462518154,-0.23081441899867952,0.0014672851234678217,0.16529076552130126,0.6423988974931882,1.462834438242225,5.532678211285536,1.0811906970644447,1.279573756110736,0.9023463594706086,1.0289111959164432,1.8139414986616973,1.6580784612465935,2.4557007833188282,0.8099644707079847,Relax
100.12048173161028,599.3061224489796,17.05020371330689,,,,,,,10.409650558124804,10.461463811814799,0.02844990744234957,0.01736950477927247,597.5,20.7564,0.03473874476987448,28.0,1.6379227734978181,583.4,616.0,0.0,4.081632653061225,551.0,635.0,4.666666666666667,78.125,,,0.034385941401933476,0.029578659128368018,0.004744506980237492,0.06870910751053899,1.1625253617042748,0.5004568193038916,0.4304910979062139,-3.5207021530728433,7.397372002471913,23.01881560795705,0.3213619731118929,534.9464452701503,3.1117558506270955,3.435280415930969,286.5157365702666,0.47959183673469385,0.48958333333333337,0.7021276595744681,0.1,48.69888475836432,48.71794438963865,48.68048518670554,46.875,0.4011987441727714,0.5988012558272287,4.686527676933816,5.725491245299393,0.5266348646931494,0.47336513530685065,16.704665270594862,15.837298702446356,0.5148886296135937,0.4851113703864064,12.268035365723494,11.908007393987228,1.3498359612945932,1.386141841020274,1.4707908692787086,2.04290688180473,-1.4857119014517544,-2.480044243882942,-0.08726012331832234,0.001127042288625747,0.15269477783885807,0.6653233243568306,1.6302719993369423,5.466715012849719,1.101660710144753,0.8555078671412493,1.1234587714004858,1.137204808371192,1.8087443153343379,1.6465804812632512,2.2422081861644285,0.7424674314823193,Relax
100.42369081687954,597.7070707070707,16.892367872861765,,,,,,,13.398522611215958,13.46365626324264,0.02826195087984917,0.022416536908900678,597.0,17.7912,0.02980100502512563,23.0,1.2607634709457516,583.0,612.0,1.0101010101010102,5.05050505050505,551.0,663.0,4.125,70.3125,,,0.056109875051644664,0.02903595590544275,0.0051278953260206536,0.09027372628310806,1.9324273405831611,0.6215526639022089,0.32164348477632226,-3.5392203581774906,9.520242643303604,20.719715148481406,0.45947748678395145,619.7002489573358,2.1763851957129834,3.4991517805842394,180.3763252341799,0.47474747474747475,0.4791666666666667,0.6739130434782609,0.1,51.716500553709864,51.57191347283673,51.872118904190536,47.91666666666667,0.6259876087080088,0.37401239129199104,7.534456930470397,5.823875494307538,0.4889920102465771,0.5110079897534228,14.488874880717452,14.811451668392426,0.5128837617230437,0.4871162382769563,11.547630418103068,11.253813271472046,1.258540116678359,1.5337527578377752,1.3592130887631297,1.991055583090135,-1.3391165793488167,-2.270394754334594,-0.08804149423812456,0.0011849758195991967,0.181524110189791,0.7009005003120432,1.6007042324653458,5.47275567599862,1.1363646672870307,1.0488345594738875,1.360511468282065,1.5195646213801455,1.7225828884850154,1.6789073677219908,2.109297495453733,1.0044479727393347,Relax
100.44162880256017,597.5050505050505,16.48646552966064,,,,,,,13.756260170466064,13.823330747849576,0.027592177699126058,0.02302283496823729,597.0,16.3086,0.02731758793969849,21.0,1.1984700293075423,583.6,612.0,1.0101010101010102,10.1010101010101,551.0,653.0,3.8076923076923075,70.3125,,,0.054246591662030316,0.032596382008955,0.004102771545741337,0.09094574521672665,1.6641905732706008,0.596472012327338,0.35841568982998345,-3.4235539780887563,9.774570910388944,20.896709550044843,0.46775646122563674,641.6903092126346,2.1378646430233257,3.514295590600562,178.69734601027497,0.494949494949495,0.5051546391752577,0.6938775510204082,0.14285714285714285,51.53010858835143,51.47879505101297,51.582210094186934,45.36082474226804,0.44809921811809106,0.5519007818819089,6.544849237865739,7.263451793655885,0.5712440643850126,0.4287559356149875,15.793877186386474,13.683052051361791,0.5491277256778934,0.4508722743221065,12.088871083046813,10.954077902750168,1.2256530590092498,1.2907908006932947,1.4278262093656044,1.8710484593558971,-1.2500333312018093,-2.2632785432339873,-0.15662735607332012,0.0014134715892087813,0.148552038784778,0.6440048864423282,1.6189166563886443,5.5168418171764,1.22047430216579,1.305587459135139,1.2292512430620846,1.6173267319667715,1.7381126156591005,1.7165135774783093,2.7428137707400366,1.0714111709219571,Relax
100.40715772980163,597.5959595959596,16.455827819433473,,,,,,,13.298764711699462,13.364053956203932,0.0275367119793772,0.022253772801092708,597.0,16.3086,0.02731758793969849,21.0,1.2373952149823821,583.6,612.0,1.0101010101010102,9.090909090909092,551.0,654.0,3.6666666666666665,70.3125,,,0.06021652238815042,0.031552808634880455,0.004801653498484023,0.0965709845215149,1.9084362056309403,0.623546738044644,0.32673176929091835,-3.456092672249332,9.449813176574708,21.301113327528576,0.44363001272624586,632.3760276863214,2.254130629834275,3.5079455081592186,192.06196800461305,0.5050505050505051,0.5104166666666666,0.7142857142857143,0.15384615384615385,48.57142857142858,48.565861624653294,48.5777596334314,48.95833333333333,0.42510962381721673,0.5748903761827835,6.162741390266102,7.166646687417209,0.5269601953311431,0.4730398046688569,15.462909306168374,14.650456128784077,0.5102050382969316,0.4897949617030685,11.770321695987912,11.532490830772312,1.2180604484319915,1.9568972403862928,1.403607534272124,2.0665831251155127,-1.7313650960525422,-2.3871255298074034,-0.1612108305122261,0.0022569512819928202,0.294399098542073,0.6544638362841808,1.5902065505062128,5.493543771858654,1.2217966825444575,0.9102345935690171,1.331177088058777,1.6276124897537503,1.7359331873578714,1.6949824818600085,2.5831496131800846,1.0714111709219571,Relax
100.31768828369488,598.204081632653,16.161529467068295,,,,,,,13.223300272741778,13.290825712120583,0.027016748904419574,0.022104998408991102,597.0,14.0847,0.023592462311557788,18.75,1.2222008979394743,585.0,612.0,1.0204081632653061,8.16326530612245,551.0,654.0,3.3793103448275863,54.6875,,,0.05108359329584933,0.021553725689480087,0.003570053253080786,0.07620737223841019,2.370058616862798,0.6703235106445787,0.2828299291314041,-3.83720659155267,9.398032988608989,20.75149044454646,0.452884722363584,612.6834265148973,2.208067418969329,3.4942062425044886,183.28275978262556,0.5,0.5052631578947369,0.7083333333333334,0.1111111111111111,50.88082901554406,50.91549530245708,50.84635701299391,45.26315789473684,0.440363186132893,0.5596368138671068,6.237069958455385,7.031180555212616,0.5562971925380353,0.44370280746196455,15.477568287614782,13.822779589226052,0.5365627546659607,0.4634372453340391,11.799494941827922,10.96600965648682,1.203195652833673,1.5845728434193251,1.2355558622128973,1.9607621311508598,-0.8472053369803874,-1.777765450195436,-0.042333271739624645,0.0028337753320708155,0.2557171039627006,0.6735611623423936,1.6519975268528964,5.435875278448569,1.2025809766494484,1.140865022941802,1.3872389657437278,1.6211066429830214,1.649665396383229,1.6757203013206157,2.156434587876496,0.9449585491593154,Relax
100.22038581078625,598.6767676767677,17.36042196117263,,,,,,,13.875907765855558,13.946612310900361,0.028997988394541672,0.023177628588633186,597.0,14.825999999999999,0.024834170854271354,21.5,1.2511197288217362,585.6,613.4,1.0101010101010102,11.11111111111111,551.0,654.0,3.96,70.3125,,,0.05362947756057581,0.02016548961193646,0.0036165651907644307,0.0774115323632767,2.659468160338203,0.6927840842744656,0.26049722820759946,-3.9037825706670906,9.861744139617432,22.537456257697794,0.4375713047140845,698.246070318106,2.285341815669139,3.550978610161594,206.02316481812352,0.48484848484848486,0.49484536082474223,0.7083333333333334,0.1111111111111111,50.629235237173276,50.622031755248074,50.635783888376615,48.45360824742268,0.4610207218188562,0.5389792781811437,6.696283012654632,7.240350848706928,0.5094829479946628,0.4905170520053371,16.086802255852284,15.784540783587824,0.501694485665406,0.498305514334594,12.32122991029023,12.279544131626354,1.1798701289990714,1.4404752761594135,1.3727128631657752,1.900107767078778,-0.6120925054758679,-1.5788816299935728,-0.13387437976780828,0.0027405843320282026,0.2296917466445826,0.6177747654011991,1.6843392206072183,5.538052579500743,1.148134947437917,1.0384907808046715,1.2518899144865183,1.466436454029878,1.7212437151387423,1.6858805403776633,2.8389242456830233,1.0044479727393347,Relax
100.08657407797966,599.5714285714286,18.07202086498159,,,,,,,14.319980994055232,14.394277750507765,0.030141564463872082,0.023883694772072105,597.5,16.3086,0.0272947280334728,22.5,1.262014305220375,586.0,615.2,1.0204081632653061,12.244897959183673,551.0,654.0,3.92,70.3125,,,0.06020933113077122,0.018350928144414077,0.0045729413386142274,0.08313320061379953,3.280996506386442,0.724251330229392,0.22074126833711671,-3.9980751256836253,10.178291407666682,23.556306839663947,0.43208349581049543,753.2375396096664,2.314367500022688,3.583902066074164,218.0718038811216,0.47959183673469385,0.48958333333333337,0.723404255319149,0.07407407407407407,49.7648165569144,49.763346445674806,49.76626159384988,47.91666666666667,0.44366799054848916,0.5563320094515108,6.779641706363741,7.591799303634591,0.5322152660955379,0.4677847339044623,17.185052632225165,16.11128666345582,0.5182844753499264,0.4817155246500734,13.063107892821979,12.593827349513653,1.341387367593622,1.1705865653027816,1.387532964316207,1.7707655408780592,-0.9459606590853902,-1.4758268768661038,-0.172614919800719,0.0006515813077312154,0.08342313294468659,0.6287730170427688,1.91238745701667,5.593902701081455,1.156491152122941,1.1410682664079799,1.25710575810322,1.4276557270449932,1.749820190284193,1.6485452662935576,2.690681736367655,1.0124555883849808,Relax
99.57080469962239,602.6938775510204,22.61438651816801,,,,,,,15.860864109791697,15.920597380820837,0.037522177278553184,0.026316617275490763,598.0,20.7564,0.03470969899665552,27.75,1.4257978860185196,585.4,620.2,2.0408163265306123,14.285714285714285,551.0,692.0,4.454545454545454,46.875,,,0.051922055066625006,0.022585343833648363,0.002778450405219373,0.07728584930549275,2.298926925755714,0.6718183928003347,0.29223129507671997,-3.790454086008794,11.257562368519201,28.674821399660114,0.39259398381650035,1014.1330958424413,2.5471607849890106,3.7130650659420694,292.1575223431118,0.4897959183673469,0.49473684210526314,0.723404255319149,0.12,53.4923339011925,53.26421863888936,53.735460906442825,47.368421052631575,0.5235636423243996,0.47643635767560055,8.157307562343512,7.781521916266338,0.596449564723543,0.403550435276457,22.145606796161918,18.215857979579017,0.5866918871089587,0.41330811289104147,16.687863359892415,14.006597825052411,1.3852617061533894,1.274823142246838,1.3852617061533894,1.8486797192075688,-1.2014637983991374,-1.6488588078936912,-0.13648446776905937,0.0010686884556693145,0.10570185820097697,0.6483823701046147,1.5173226235262944,5.740743104403528,1.083551467179357,1.105148411457013,1.2229204886501976,1.512159499677928,1.7233676198859174,1.6491507645751105,2.391057787087653,0.8099644707079847,Relax
98.9390394387578,606.530612244898,24.52989091037504,,,,,,,16.129949092664823,16.211989644933244,0.04044295607699788,0.026593792245645235,601.0,22.238999999999997,0.037003327787021624,29.75,1.5207667903632835,589.0,623.6,2.0408163265306123,15.306122448979592,551.0,690.0,4.666666666666667,46.875,,,0.0434548640298438,0.012217592913182857,0.0025568825085661544,0.05822933945159281,3.556745124725488,0.7462709424339027,0.20981850435276844,-4.404878323922927,11.463607814458385,32.890255401009625,0.3485411613467279,1184.509200624841,2.869101589425194,3.7805085483975946,377.4619361905491,0.5,0.5052631578947369,0.7291666666666666,0.12,50.968828980623414,50.979207456379974,50.95690864184552,49.473684210526315,0.48369457542497124,0.5163054245750288,7.973589216908531,8.237996317875684,0.4359187705623571,0.5640812294376428,21.715509873599412,24.70233857903435,0.4410949336810029,0.5589050663189971,16.3575898907876,18.412904640585392,1.4619763525255725,0.8696735022245008,1.4619763525255725,1.8262820290909616,-0.41800108488564547,-1.1835437255574508,-0.08110063646466498,0.0005984255023192596,0.057997450401586124,0.5712248091735943,1.5040773967762742,5.706610676159177,1.0320368381290939,1.2380007710039826,1.0465135244205384,1.4364524385366402,1.6845754557618977,1.619799547778737,2.2322158780374357,0.8099644707079847,Relax
98.60837111041049,608.5567010309278,24.648347253655157,,,,,,,16.246473976425367,16.3223255513272,0.040502959234364734,0.02669673006459869,607.0,22.238999999999997,0.03663756177924217,30.0,1.5171505699896128,589.2,625.0,2.0618556701030926,16.49484536082474,551.0,690.0,5.705882352941177,93.75,,,0.03947535883955998,0.011258741181802185,0.0016628767495645521,0.052396976770926716,3.5061964923187943,0.753390009735514,0.2148738701285009,-4.486610458097255,11.541627082077914,32.8591683579399,0.35124525844212556,1191.4435707962289,2.847013521080084,3.783043588056641,374.20198642600707,0.4948453608247423,0.49462365591397844,0.717391304347826,0.18181818181818182,52.24766751484309,52.267349678157,52.22550547553564,47.31182795698925,0.489364221161056,0.510635778838944,8.078561622884164,8.252272414311102,0.4477402617332067,0.5522597382667936,21.987185575983183,24.419021594296435,0.4523162712244639,0.5476837287755364,16.563506383725937,18.22619839163828,1.3781869350119529,0.7186744673458225,1.4259467202021618,1.6767213604356384,-0.005707082103111105,-0.81399565645218,-0.15105948293999288,0.0004445990776130654,0.041882922226522276,0.572793957624453,1.5553706911638245,5.793060651398568,1.039790797749082,1.0290861385013148,1.0189357371247905,1.4131492377781505,1.7397646907238908,1.6163008413892215,2.099460641479232,0.6804033857924874,Relax
98.11715203653941,611.5520833333334,22.589177563215003,,,,,,,16.09838174279769,16.182400958568373,0.03693745500806759,0.026323811465168514,608.5,20.0151,0.032892522596548894,27.0,1.403195546243103,595.0,628.0,2.083333333333333,17.708333333333336,559.0,690.0,5.333333333333333,85.9375,,,0.03369299996650935,0.02371782799430383,0.0028867128348914013,0.06029754079570458,1.420576959011643,0.5587790069360431,0.3933465226162825,-3.741528277582205,11.442685453683382,29.96761596655505,0.3818350270656776,1077.2835472162326,2.618932075678837,3.739300137107475,313.9326027457451,0.5416666666666666,0.5434782608695652,0.78,0.16666666666666666,49.116607773851584,49.11687002518703,49.117699265714144,48.91304347826087,0.4609260763606822,0.5390739236393177,7.769279382778017,8.402127390182267,0.41998905032713646,0.5800109496728636,19.42098167911608,22.822871803047978,0.4251988927944282,0.5748011072055719,14.790811869336686,17.1970814677842,1.415328694183502,1.5017502162602692,1.5873075339412166,2.1464672111758922,-1.1713959350627103,-2.131922752787222,-0.12766133063917762,0.0015511760067199738,0.19292717674597754,0.6751225669966581,1.5466370111950698,5.653878355041425,1.0485909577090866,1.3648397790331481,1.0500316737959288,1.4318894146971168,1.6873888699290687,1.6364408156538022,2.6603005592684044,0.8231203125901446,Relax
98.16265599176937,611.2916666666666,22.602709044279425,,,,,,,16.194865983098666,16.280106919151123,0.03697532663504235,0.026492862353920524,607.5,20.0151,0.032946666666666666,27.25,1.3956712619831577,595.0,628.0,2.083333333333333,17.708333333333336,559.0,690.0,5.333333333333333,85.9375,,,0.04980061335243687,0.017363579789003897,0.0018394458132967744,0.06900363895473755,2.868107496126742,0.7217099577183638,0.25163281316791736,-4.053380381964092,11.511774000973787,29.97013818004173,0.384108138968806,1083.8791771217225,2.6034335088151086,3.7419509829078392,312.1010480069588,0.53125,0.5274725274725275,0.7708333333333334,0.16666666666666666,50.61082024432812,50.62410075837843,50.59694934647799,48.35164835164835,0.47599935784235037,0.5240006421576495,7.942613322010503,8.333475176097801,0.41856640777108794,0.581433592228912,19.38969290522468,22.852767700475027,0.4259510932851844,0.5740489067148156,14.81629672593491,17.20022965082898,1.3953025376431376,1.1365893698414413,1.5171918733935823,1.9151557486502424,-0.2964589146921597,-1.1367099258809015,-0.14986134322884118,0.0015461094259818344,0.13005379358272223,0.6519736725705565,1.7206635475443248,5.711271844669831,1.0832009646372833,1.254675834136591,1.093810447219884,1.5706898286647333,1.7800990680976274,1.654222520132731,2.2414864556531153,0.8917136719726565,Relax
98.3966617482204,609.8556701030927,23.924355481880127,,,,,,,16.29033455764491,16.375795146088837,0.03922953684735906,0.02671178666731281,607.0,20.7564,0.03419505766062603,29.0,1.4686227220945955,591.2,628.0,2.0618556701030926,17.525773195876287,559.0,690.0,6.466666666666667,93.75,,,0.04237899653046095,0.013150571727961136,0.0016169677918557684,0.05714653605027785,3.2225972685547557,0.7415846954078837,0.23012018989902008,-4.331290043891985,11.579435795121164,31.719480427593563,0.36505754946250396,1153.8871489962094,2.7392941235494503,3.7691334465416593,347.5559453493954,0.5257731958762887,0.5164835164835164,0.7659574468085106,0.17391304347826086,49.83022071307301,49.82252538722358,49.83773653319288,49.45054945054945,0.4717773590830586,0.5282226409169415,7.953483182659162,8.415837200746797,0.42738798675161993,0.5726120132483801,20.73658423225351,24.002489724508706,0.43260800392074195,0.5673919960792578,15.704518782156093,17.985352773362823,1.377725232413029,1.5113463544441084,1.5523880639458048,2.079412541070615,-0.848612222576806,-1.7177444997271394,-0.1512880878859457,0.0021368387945570624,0.21494951521268874,0.5922504479669137,1.6341305250244722,5.839351630735402,1.0594595365328283,1.466861400322782,1.160798894307444,1.8590661816776388,1.8212062034164607,1.629745960215001,2.1168345803885824,0.9525647401094823,Relax
98.87172341609792,606.9183673469388,26.28694688792153,,,,,,,16.087069790144806,16.170609661929507,0.043312162396454315,0.02650615083617793,606.0,25.2042,0.04159108910891089,33.75,1.6340419498910441,585.0,628.0,2.0408163265306123,16.3265306122449,558.0,690.0,7.538461538461538,101.5625,,,0.028676987908187065,0.010329934272866015,0.0005946329668396276,0.03960155514789271,2.77610555408023,0.7241379233995318,0.2608466822650952,-4.572709358613715,11.43434774787106,35.52212870883265,0.32189365230884615,1276.0281412274592,3.1066160914553653,3.812830362281913,441.4144665984325,0.5,0.48913043478260876,0.7333333333333333,0.17391304347826086,49.87012987012987,49.86709946339013,49.87323105248078,52.17391304347826,0.4871927658048839,0.5128072341951161,7.981097460040609,8.18821561758116,0.36994513167075654,0.6300548683292433,21.605665190361787,28.19604333393006,0.38095323676485304,0.6190467632351468,16.286538689738187,20.761306975824784,1.4521544993467148,1.2578628706107002,1.530046555038783,1.956834234006863,-0.7656235997327272,-1.3936838463642909,-0.16070412845489912,0.001218771407883171,0.12203128139596937,0.6922130977817482,1.6189166563886443,5.971653211373841,0.9581158515454888,1.3658546695879614,1.284776812204165,1.7564405852318217,1.8161473931541958,1.6316391881205943,2.2028410185211986,0.8099644707079847,Relax
99.45954556934683,603.3673469387755,26.664153223297863,,,,,,,13.751850859497265,13.817073207719911,0.04419223771153713,0.022791838055652495,601.5,27.428099999999997,0.045599501246882786,37.75,1.938950145382295,578.0,624.0,1.0204081632653061,11.224489795918368,559.0,690.0,7.0,101.5625,,,0.025044944942195592,0.008817571528094105,0.0008039641431696825,0.03466648061345938,2.840344970539637,0.7224542122245835,0.2543543899483887,-4.731008783826397,9.770146161329711,36.50551316457467,0.26763481223462876,1120.4936283578204,3.736434702385895,3.7563795012417,545.6018648660878,0.5,0.49462365591397844,0.717391304347826,0.21739130434782608,48.023715415019765,47.99022348045746,48.060306349468384,51.61290322580645,0.4711077191452247,0.5288922808547754,6.708980300065478,7.108533604056465,0.4127393465060997,0.5872606534939001,23.452891472563664,27.975245718046608,0.4166440058068192,0.5833559941931807,17.24889177730726,20.410115420853028,1.4848837236992538,0.3435321599588752,1.553745326550983,1.6017615974683967,0.7259991738187175,-0.1440551397936467,-0.3602277267922695,6.21255085363588e-05,0.009222319687321543,0.7514548774584844,1.4748477584613355,5.923133951147684,0.9038933073426193,1.0079157921239779,1.106531922818269,1.5149210183709279,1.7471660536773825,1.6070412157024399,2.4032872157989242,0.6749703922566539,Relax
99.83570078966495,601.0510204081633,27.53156480848306,,,,,,,13.856406460551018,13.927632673575015,0.04580570346555082,0.02305362771223876,599.5,30.3933,0.0506977481234362,39.75,1.9869195441736656,575.0,624.0,1.0204081632653061,11.224489795918368,559.0,690.0,6.533333333333333,93.75,,,0.015130211860130782,0.004044410284632463,0.0005496397112754692,0.019724261856038715,3.74101804597348,0.7670863412056439,0.20504748487681626,-5.510419527818688,9.848323509360219,37.8468013102271,0.26021547841346815,1170.9581111859763,3.8429689351955254,3.7755114692474985,581.7763269268802,0.5,0.49462365591397844,0.717391304347826,0.20833333333333334,49.31906614785991,49.30190327606493,49.33750225932356,49.46236559139785,0.4792203608247424,0.5207796391752577,6.817945071647322,7.107434487914749,0.4300459624594601,0.56995403754054,24.81913363865584,28.57255632319848,0.4331648181325288,0.5668351818674712,18.199914417016608,20.81954129949012,1.4347719819785982,0.22603060321223634,1.4327537039394018,1.4262966168389615,0.6819317419591719,0.02407434774088113,-0.5285673134906309,2.834927601370252e-05,0.0019373263313324203,0.7640438913456786,1.37147927533475,5.808387905251393,0.889152023532982,0.6888671681209468,1.0071424203739878,1.4684017051843945,1.6556194696657003,1.6270772892508987,2.1385646377125633,0.7424674314823193,Relax
99.91689703112579,600.6632653061224,27.617021449894597,,,,,,,13.722958413872206,13.793589140414849,0.04597754356730945,0.022846342046368408,596.5,30.3933,0.05095272422464375,39.75,2.0124684938181567,575.0,624.0,1.0204081632653061,11.224489795918368,559.0,690.0,6.125,23.4375,,,0.010121708886586636,0.0030306169775427944,0.00044152108232868706,0.013593846946458118,3.339817918790007,0.744580171194575,0.222940348635632,-5.798989057237781,9.75354041808846,37.78051297498383,0.25816326063509826,1157.657290307514,3.8735178566459676,3.7705501210312686,585.3739665673781,0.5306122448979592,0.5268817204301075,0.7346938775510204,0.20833333333333334,50.6429277942631,50.6847524477239,50.60246592913291,46.236559139784944,0.48491815842776603,0.5150818415722341,6.792305695908177,7.000372013924212,0.43816811315355203,0.5618318868464479,25.008534054610905,28.318551959665726,0.44108949626113303,0.5589105037388669,18.324330713934685,20.626991945332467,1.4510263587867958,0.6971721364543333,1.4510263587867958,1.5306414896979352,0.030961313178810457,-0.1822727473157144,-0.38580276412645403,0.0003383666768288132,0.022469814380284073,0.7594067684392019,1.3862943611198908,5.827777033107414,0.8684069895605264,0.8665625169642912,1.0792809969233146,1.5200982087927417,1.6823002420382824,1.6422875612035843,1.8414268253962198,0.5399763138053232,Relax
99.85353210277323,600.9191919191919,28.11154050464727,,,,,,,20.82752299928425,20.931166179933914,0.04678089979929871,0.03465944053603302,596.0,26.686799999999998,0.04477651006711409,38.0,1.3497303786731307,576.6,623.4,3.0303030303030303,11.11111111111111,553.0,690.0,7.071428571428571,101.5625,,,0.0071685865821412105,0.0035569518656102025,0.0004506233728044966,0.011176161820555908,2.0153735144547493,0.6414175722613724,0.31826238047735045,-5.638851318407015,14.800569543973793,36.913952091809385,0.4009478450631083,1716.401339675272,2.494089972830761,3.94158895479548,368.26687107894753,0.5555555555555556,0.5483870967741935,0.7647058823529411,0.25,48.39270199826238,48.38518817324607,48.40404196526018,49.46236559139785,0.5829785232057585,0.41702147679424145,11.30254054097628,9.55936416813216,0.4101047321224743,0.5898952678775258,23.639480839678527,28.35162790153098,0.43405364273028696,0.5659463572697132,18.52798527970514,21.156514929990703,1.0911703676965339,1.3558306168551724,1.3282201443871702,1.0004166067089901,0.2465013500098454,1.000035705499097,-0.7417732227042602,0.0008875481441199584,0.10935380487046686,0.7659398274443707,1.3537181906852782,5.8122469939222245,0.8243825939993902,0.9177662165931053,1.128396026513141,1.449263141100489,1.630699981924392,1.7223824525242482,2.302929405449501,0.5357055854609786,Relax
99.76728214378623,602.1428571428571,33.82581214117866,,,,,,,32.91335078344067,33.054738912972994,0.05617572597586017,0.054660369035370034,595.0,29.651999999999997,0.049835294117647054,39.75,1.027723137754697,575.0,626.8000000000001,7.142857142857142,15.306122448979592,553.0,765.0,7.0,31.25,,,0.004082048703806026,0.005980466763577285,0.001170012047243446,0.011232527514626757,0.6825635632099561,0.3634131942690966,0.5324239585248867,-5.119256659955746,23.373230035714048,38.452696371612525,0.6078437207584017,2823.5494931132125,1.6451597110393905,4.1577655147131285,253.04330740562992,0.5714285714285714,0.5652173913043479,0.7884615384615384,0.25,54.36328377504848,53.75316659672785,55.03984086925606,51.08695652173913,0.7459054616050779,0.25409453839492185,20.204552910998384,11.792476415070754,0.4272216451736589,0.5727783548263409,25.133526139609906,29.101816473151086,0.5133125945452771,0.48668740545472305,22.802610536337586,22.20335810228903,0.7478891350232226,2.2980536857793075,1.222261037256957,1.0427042307490937,-0.25259091402805467,0.6856401401735777,-0.5781342958256315,0.0011731611405144643,0.3161200670783357,0.6990634178740653,1.083797202882969,5.788243329220401,0.7348550624376933,0.9428550061100898,1.1216841147524894,1.2196053595808205,1.5048819538763663,1.866440165819583,2.1418059532590323,0.5399763138053232,Relax
99.82210479630298,601.1414141414141,28.580359354580217,,,,,,,24.33754972322835,24.45751629035098,0.0475434875758816,0.04048556487825528,595.0,29.651999999999997,0.049835294117647054,40.0,1.1743318320702774,575.6,622.2,4.040404040404041,13.131313131313133,553.0,687.0,7.071428571428571,31.25,,,0.004796677556242426,0.00241633970477574,0.0007165380045938985,0.007929555265612065,1.9851006655902321,0.6049112964814152,0.30472575369448895,-6.025501402512356,17.294075619887632,36.07708292054034,0.47936457772868657,1960.101860652021,2.086094898246707,3.999248750894609,301.0408744966504,0.5555555555555556,0.5531914893617021,0.7884615384615384,0.23076923076923078,48.08743169398906,48.13667073321232,48.036934491084246,52.12765957446809,0.6188433510775749,0.3811566489224248,13.607532783484604,10.679250523916803,0.4205184918177624,0.5794815081822375,23.39504924453226,27.46320416305159,0.4575888696953012,0.5424111303046989,19.13757139252128,20.83595419766073,0.9092928314470358,1.6400635832379562,1.321956717722426,1.0513709353455964,0.1331158329758182,0.5826733045537447,-0.6649849342076212,0.0014485589332143072,0.1868772691961217,0.7382534844398698,1.2878542883066382,5.803613125515423,0.7917945388020379,0.9237463522138277,1.0889726250569862,1.4073078550855536,1.6179587180541362,1.7665381758408418,2.1085125360991444,0.6026687836436009,Relax
100.42154222551926,597.6262626262626,27.23952180443712,,,,,,,24.05032988021035,24.171891718545805,0.04557952604815812,0.040243094027564014,592.0,23.7216,0.04007027027027027,31.0,1.1326049139496825,575.0,618.0,4.040404040404041,11.11111111111111,553.0,687.0,7.071428571428571,93.75,,,0.014786312739763424,0.012285752268403395,0.0025988390380839283,0.029670904046250748,1.2035333626082458,0.4983438562139747,0.41406733846911004,-4.399315040174492,17.09210854829069,34.66471988267752,0.4930692821444628,1861.3721431470453,2.0281125517509184,3.976803320039302,281.2158139879516,0.5757575757575758,0.5698924731182795,0.8113207547169812,0.24,48.77470355731226,48.7148347110433,48.837296655322895,52.68817204301075,0.63792890535415,0.36207109464584986,13.652725267011522,10.285612010618994,0.44612643301256233,0.5538735669874376,23.153501207088496,25.79841441635221,0.48364259651066716,0.5163574034893329,19.006334803995525,19.638635401051154,0.9543441561889467,2.1304789084864773,1.4392792091041986,1.2191076266487464,-0.3132511873488255,0.4215421739515488,-0.603343704356062,0.0016059296516167533,0.281680914144287,0.7190071382690597,1.16550652349814,5.763209085111381,0.8391946509471881,0.9731974662535621,1.0674135494869395,1.522971784481798,1.6331193669363246,1.6893094004048208,2.735258360920588,0.5357055854609786,Relax
100.29816200373351,598.2020202020202,31.763790126873676,,,,,,,29.38953721920751,29.519479032177365,0.05309876773091915,0.04912978596976704,590.0,22.238999999999997,0.03769322033898305,31.5,1.080785651368286,574.0,618.2,7.07070707070707,16.161616161616163,553.0,742.0,6.6,78.125,,,0.015217685818901826,0.007984035730637353,0.0021398286973974474,0.02534155024693663,1.9060142429606866,0.600503350056155,0.31505711579750295,-4.830311264702758,20.873423800746718,37.081259816534235,0.5629103192292142,2431.633087164648,1.7764819116645207,4.09286815414749,263.49674930322203,0.5656565656565656,0.5638297872340425,0.8113207547169812,0.25,53.4428300694883,53.017478990723546,53.90714035416894,55.319148936170215,0.686734320176734,0.313265679823266,17.310088828707148,11.691260283233339,0.5005119079511344,0.49948809204886574,26.233829273942995,26.206984397425973,0.5453699914332346,0.4546300085667654,22.22445695210707,20.291520374496802,0.9236290325995514,1.928998073306217,1.320457611788836,1.4008454043008496,-0.7269032806793234,-0.6907481212358384,-0.45832666002914535,0.0007777886457269282,0.21594991118678694,0.7310098552307829,1.0864909281357649,5.6747758780188216,0.7806136154876553,0.7978875850532265,1.2805849026841571,1.365356886934115,1.5242609657414457,1.726753259092256,2.4014642259293626,0.7365951800088454,Relax
100.08741595355484,599.6530612244898,33.466740541783544,,,,,,,31.41491536223669,31.577619418030324,0.0558101720909163,0.05238848493174958,590.0,23.7216,0.04020610169491525,32.5,1.0653137261675807,574.0,620.0,8.16326530612245,19.387755102040817,553.0,728.0,6.533333333333333,78.125,,,0.017634008387916504,0.012308836720513392,0.002008330731455059,0.03195117583988495,1.4326299705095937,0.5519048336838923,0.38523892773761886,-4.397437841990835,22.328748824217243,41.99033138179865,0.5317592905183878,2945.53076472299,1.880550124521841,4.17613367306492,315.85969163501926,0.5612244897959183,0.5638297872340425,0.7924528301886793,0.21739130434782608,49.49374627754615,49.413236583709306,49.57622903736322,57.446808510638306,0.6646157381775639,0.3353842618224363,18.203565355903955,12.931308905134081,0.37674612506291844,0.6232538749370816,25.773517808341612,33.1498674105397,0.4402044253942346,0.5597955746057657,22.311925195773323,25.160807412882857,0.9916053050260979,2.087295141193376,1.3443438683961224,1.6009106120799752,-1.0703646337996329,-1.1798690625989718,-0.37708171277725244,0.0011211801045937673,0.2591819693318538,0.7273631882099867,1.0853670619180893,5.686202512893871,0.789269489105441,0.9784382917019462,1.2245036734086245,1.317963954732172,1.5564182671820697,1.7065892326337884,2.3426677895358594,0.6074733530309886,Relax
98.4608000929362,609.4536082474227,23.85940617212838,,,,,,,17.499702378421564,17.59019052289028,0.039148847179262355,0.02871375629187698,609.0,22.238999999999997,0.03651724137931034,29.0,1.3634178259825038,589.4,625.8,2.0618556701030926,14.432989690721648,556.0,683.0,5.105263157894737,78.125,,,0.03381103714774652,0.01386598743429744,0.0012430440722178493,0.04892006865426181,2.4384153893083096,0.6911486037908693,0.2834417002211109,-4.27831638468629,12.438143001099057,31.507468308490388,0.3947680873409725,1231.172556787388,2.533132824225154,3.7972890363363545,319.25040872188316,0.4845360824742268,0.49462365591397844,0.782608695652174,0.02857142857142857,50.84067253803043,50.84800552572793,50.83224017278728,50.53763440860215,0.5801217728494166,0.4198782271505834,9.474342082421176,8.060299067195434,0.4755360583522388,0.5244639416477611,21.727273684754007,22.817671604226454,0.48963922849880936,0.5103607715011905,16.760632143015084,17.11161240928151,1.2549241701499974,1.90107664051133,1.5754284252368778,1.7147576716471797,-0.4424131432516525,-0.25274552940838024,-0.42671034747298414,0.0009588257823118206,0.22286239418099638,0.6157123839903083,1.6784307839210517,5.754148924482926,1.1172931890757,1.1294983731039256,0.9148462264193266,1.3887550267783484,1.8550491093369443,1.5829454883500655,2.359983517321073,0.9525647401094823,Stress
98.3967253587122,609.8144329896908,23.72205807932567,,,,,,,17.573654524125974,17.66579358981347,0.03890045363968403,0.02881803639505375,610.0,20.7564,0.03402688524590164,28.0,1.349864824459754,589.4,625.0,2.0618556701030926,15.463917525773196,556.0,683.0,5.105263157894737,78.125,,,0.044636255560108494,0.02015906560206667,0.0013426179345516587,0.06613793909672683,2.2142026044864136,0.6748963782319843,0.30480335307370265,-3.9041011859569577,12.491602442398948,31.321840230717548,0.39881444865261606,1229.1794660142891,2.507431722643132,3.796585406525652,314.1495032242442,0.4948453608247423,0.5,0.782608695652174,0.02857142857142857,50.23961661341851,50.23297152195262,50.24582910292265,51.08695652173913,0.5689759848893685,0.4310240151106315,9.422537371977665,8.201091069902962,0.48521226298759057,0.5147877370124095,21.8179104137153,22.47301627769824,0.4967070040226864,0.5032929959773135,16.80484194134569,16.91588536486536,1.304586312863776,1.2973851246036237,1.5107071039386444,1.566710215319671,-0.09633924546945494,-0.14611288088813357,-0.4568338573342771,0.00020622467180590875,0.08756691924731504,0.6718708661514072,2.0541237336955462,5.626679563899416,1.1098512976137818,0.8337643947894027,1.024969995740029,1.2832151551884292,1.8318320819355214,1.602132075563329,2.609184860703768,0.8845244015302336,Stress
98.2105736096719,610.90625,22.48277849704899,,,,,,,16.028264508607748,16.1129481990123,0.03680233832449576,0.026236864508437666,610.5,17.7912,0.029142014742014742,22.75,1.402695749435314,595.0,625.0,1.0416666666666665,13.541666666666666,556.0,683.0,4.571428571428571,78.125,,,0.05133663393698301,0.025971623482324395,0.0012183378264307868,0.0785265952457382,1.9766432380294354,0.6537483737367202,0.3307366555375254,-3.6507507415022618,11.393574936429165,29.723995381774753,0.38331236397025975,1063.9398381638164,2.608838362640417,3.7338871808792966,310.18039777168224,0.4583333333333333,0.4673913043478261,0.7441860465116279,0.027777777777777776,49.58123953098826,49.58973605653738,49.57338737347308,50.0,0.49455052036384484,0.5054494796361549,8.012623019933889,8.100433400540723,0.4941698753466026,0.5058301246533974,20.895141609693333,21.140221346207078,0.49421864007862887,0.5057813599213711,15.824175658604023,16.008216325425284,1.3503608865155197,0.36016549176446055,1.3444733681057939,1.3693351324836183,0.4037900375305812,-0.12535299136564682,-0.4309712758542582,7.224593277972747e-05,0.004998869466633287,0.7505793884130063,2.0600234558227344,5.591378355041425,1.1411996416340173,1.7081187633778228,1.1217534499067086,1.3613115834919332,1.8106909497628285,1.6518445132854112,2.4772751278610263,0.9603070313551686,Stress
98.39604314009446,609.7319587628866,20.62286123452034,,,,,,,15.393450988434443,15.474129513821651,0.03382283139030963,0.02524625906056643,610.0,16.3086,0.026735409836065573,21.0,1.339716561933702,595.2,623.8,1.0309278350515463,12.371134020618557,556.0,674.0,4.409090909090909,78.125,,,0.05377813265687828,0.03225150449323524,0.0016040278857513727,0.0876336650358649,1.6674612084579887,0.6136697881444201,0.36802642546144804,-3.434190585875447,10.941861912182183,27.06554746627385,0.40427269855955233,930.3747568260779,2.4735778685106844,3.6756280284493115,267.7949568468017,0.4536082474226804,0.45161290322580644,0.7142857142857143,0.0,50.25423728813559,50.246496161601804,50.26203754499026,48.38709677419355,0.5069896254615791,0.4930103745384209,7.791020472312982,7.682858568883959,0.5169351724344391,0.4830648275655609,19.459642504514537,18.811330980172933,0.5155380289793617,0.4844619710206383,14.82190416922719,14.368237349012015,1.2341451304052053,0.8419602447805392,1.307706425031186,1.2821268271640296,0.22180682198454704,0.2471662874075271,-0.5303810043594445,5.4505996591257293e-05,0.026073236985009865,0.8108900321038921,2.0149030205422642,5.559770027861551,1.2091479703216514,1.2734804735022907,1.1960277992726027,1.4433301104013903,1.80303333298067,1.6748820607745554,2.64571524101583,1.020605078688731,Stress
98.59978209711859,608.659793814433,20.758977273869846,,,,,,,15.452548333527385,15.522984514764358,0.034106043285321394,0.025387825005964707,610.0,16.3086,0.026735409836065573,22.0,1.3434015429564523,594.0,622.6,1.0309278350515463,14.432989690721648,556.0,674.0,4.217391304347826,62.5,,,0.05307583124227547,0.0328554990026445,0.0024236475620735246,0.0883549778069935,1.6154322062800952,0.6007112735426933,0.3718579283038868,-3.415636150720113,10.976407614643646,26.887997672932975,0.408227036767901,927.1896199582482,2.449617271598191,3.674138670945708,263.4612139932343,0.4639175257731959,0.46808510638297873,0.7272727272727273,0.0,52.33248515691263,52.44197563485952,52.22714980428525,45.744680851063826,0.5189111372856957,0.4810888627143044,7.912348776304969,7.618536950304691,0.5521354945890247,0.4478645054109752,19.979347261042818,17.99416855212571,0.5473839828906779,0.4526160171093219,15.195058080429208,13.817239361490916,1.3166482073229562,0.3644732408615079,1.3166482073229562,1.3970046492112407,0.390667000013722,-0.27504915128847074,-0.27952718367377144,4.197654381826686e-05,0.005522372560061368,0.8242253436793727,1.9374712804094485,5.560799568790518,1.1923689188138618,1.4846372349451813,1.2220379210153425,1.4655838584211427,1.8026515413444826,1.697183648043067,2.032649605549844,0.816484062950985,Stress
98.20653434291145,610.9278350515464,18.367343882713197,,,,,,,14.330183762487719,14.395113693389645,0.030064670209638544,0.023456426340892823,610.0,14.825999999999999,0.024304918032786883,20.0,1.2817242393495047,597.2,623.8,0.0,14.432989690721648,572.0,676.0,4.409090909090909,62.5,,,0.04954756196018007,0.03300822685863738,0.002134450543370145,0.0846902393621876,1.501067057384659,0.5850445379931469,0.38975243318741704,-3.4109984498388384,10.178882508547144,23.051182562807046,0.4415774540335607,737.1284687476098,2.2646083736059546,3.574513294436854,208.8076042130096,0.4639175257731959,0.46808510638297873,0.75,0.0,47.723292469352,47.85362762726881,47.586215270061686,47.87234042553192,0.4026072841635387,0.5973927158364615,6.463256471046644,7.87300517758726,0.5085266965141112,0.49147330348588886,16.43804212189425,16.160067720857178,0.49122278028611105,0.5087772197138889,12.489653978627588,12.710861482783256,1.1425142383966402,0.8009851781284789,1.2618455738110905,1.3621941930304362,0.126466969964671,-0.4161088299807849,-0.3747185067096839,7.733450248448039e-05,0.03317926421133565,0.7095940587245293,2.423537703411708,5.439053471732203,1.2744142596784531,1.4638548895655026,1.4021071756345742,1.7326085583994786,1.866573188920685,1.7341213085784257,2.105129834327753,1.020605078688731,Stress
98.36440826687074,610.0412371134021,17.119018131509225,,,,,,,13.683932183404009,13.75447295667084,0.02806206710305869,0.02243115932318567,610.0,14.825999999999999,0.024304918032786883,19.0,1.251030617666413,597.2,622.6,0.0,14.432989690721648,572.0,664.0,4.409090909090909,62.5,,,0.06100816471178011,0.04178182709248307,0.002420093296481961,0.10521008510074514,1.4601602887480245,0.5798699302767508,0.3971275857487844,-3.175293792539364,9.725881099308932,22.114514563651742,0.4397962736787703,675.7036100689143,2.273780065563734,3.5367263491898893,201.13416949780083,0.4845360824742268,0.48387096774193544,0.7777777777777778,0.02631578947368421,49.18330308529945,49.15746019243706,49.20884683348507,48.38709677419355,0.45226969292389835,0.5477303070761014,6.541366346888892,7.198684090275038,0.5306444993354487,0.4693555006645513,16.10939549937437,15.150548868958566,0.5179400948713132,0.4820599051286868,12.294350268303601,11.860863873729448,1.1861055515335022,0.43368776163231426,1.2883855389350947,1.4029494323496592,0.2847212313036298,-0.7050464550160009,-0.23583784568102872,0.00010405443533939708,0.014706350972147068,0.6879558140426956,2.538973871058276,5.381222126634915,1.3384166155973016,1.440771336465031,1.5270394951570745,1.9421435024770644,1.9359464233467383,1.7494264708810416,2.6808091761330655,1.0886454172679798,Stress
98.18337740230258,611.1145833333334,17.13283691853725,,,,,,,14.211189068365886,14.286580520849746,0.028035392029242608,0.023254540892889104,610.0,16.3086,0.026735409836065573,19.25,1.2055878530724042,598.0,624.0,0.0,16.666666666666664,576.0,664.0,4.571428571428571,62.5,,,0.05059433929597452,0.03961235165618368,0.002130934101261461,0.09233762505341965,1.277236447235177,0.5479276650953976,0.4289946988918865,-3.2286142988459834,10.102137966260495,22.159689702348437,0.4558790353995747,703.2776937797967,2.193564350077005,3.554096952852268,194.4348213593602,0.4791666666666667,0.48387096774193544,0.7777777777777778,0.02631578947368421,50.0,50.00115926438043,49.998781341571394,47.31182795698925,0.46153445220473266,0.5384655477952673,6.863021479624498,7.41297023193635,0.5672492728864525,0.4327507271135474,16.68978141138617,14.5774841500348,0.5490593501487178,0.45094064985128235,12.760287367250758,11.564064419659948,1.1878805043595126,0.36597701929530757,1.1903792475120498,1.3526255902006463,0.3120938229034058,-0.6240341515638201,-0.056676145947624074,8.334085635780461e-05,0.009800805202695747,0.6565123334910896,2.6390573296152584,5.455758042451282,1.36588556691142,1.7558277848659574,1.5091633682537022,1.821455438511962,1.9760435231417708,1.7515263855746104,2.9326839838269523,1.1660871095027048,Stress
98.0857239138776,611.7708333333334,17.78200105172387,,,,,,,14.633055586222369,14.709451829497254,0.02906644135817285,0.023919178210068913,611.5,16.3086,0.026669828291087487,21.0,1.215193979613278,598.0,624.0,0.0,18.75,576.0,664.0,4.8,62.5,,,0.04747031336133513,0.03356182423768478,0.0015533535250581798,0.08258549112407809,1.4144139789646253,0.5748020955643987,0.4063888678370977,-3.3943660413609007,10.401153136174376,22.993735453396518,0.45234725594087716,751.3475829819764,2.210690983235902,3.5828110036227,203.32817455094147,0.4791666666666667,0.48387096774193544,0.7555555555555555,0.02702702702702703,49.22145328719723,49.21411999354602,49.22919217889989,46.236559139784944,0.44385999410087507,0.5561400058991249,6.930122347021072,7.757288953938328,0.5796881293263079,0.42031187067369197,17.506798534607558,14.907175291430853,0.5566129680343527,0.4433870319656472,13.31380093504515,11.882748147721136,1.105633203836914,0.8814866476053114,1.2382549100388962,1.3346185854122932,0.1867015852821119,-0.2556690557670427,-0.3906805047641015,0.00016778994246240182,0.0439903449444915,0.58788475019696,2.5014359517392104,5.476591375784615,1.3595710997638677,1.4992613224852864,1.4725417787274833,1.7408246237187452,2.0406177364883527,1.7380083522251237,3.318289175828768,0.9603070313551686,Stress
98.22360819292628,610.8865979381443,17.69997427532252,,,,,,,14.127027878031056,14.200718878516913,0.028974238975062183,0.023125450657638255,610.0,16.3086,0.026735409836065573,23.0,1.2529156470943017,597.0,623.8,0.0,16.49484536082474,576.0,664.0,5.105263157894737,62.5,,,0.03746051188328675,0.027700809412213565,0.0024500913265785434,0.06761141262207886,1.3523255340968496,0.5540560451336263,0.40970611821187897,-3.58629364555823,10.041424616723132,23.04974478490213,0.4356414663341691,727.1287658299824,2.2954656002211835,3.5685814360031416,211.63958499048186,0.5051546391752577,0.5053763440860215,0.8085106382978723,0.05555555555555555,49.504057709648336,49.4996062011011,49.50875154590469,45.16129032258064,0.4414113471475549,0.5585886528524454,6.6716209661363015,7.505085994808699,0.5996194947977674,0.40038050520223284,17.84859327513072,14.584870679854557,0.5743821683607825,0.4256178316392176,13.47373014827058,11.598378518947266,1.200519722001583,0.5945967425714649,1.2834170048565245,1.2958578179846496,0.5703789183377674,0.1414604885388986,-0.47907688986938946,6.820187754223731e-05,0.017960369882272807,0.5996977408482738,2.4849066497880004,5.465755435296975,1.289250961382013,1.4708776589192922,1.3402614443561138,1.6557036098027176,2.033734687813672,1.7069347530937087,3.0340435887807145,0.9525647401094823,Stress
98.564361927126,608.8247422680413,16.73071670441225,,,,,,,13.759087905817013,13.829031248180687,0.027480349504334665,0.02259942303685062,607.0,16.3086,0.02686754530477759,24.0,1.215975711394278,594.4,622.6,0.0,16.49484536082474,576.0,651.0,5.105263157894737,62.5,,,0.04291879237240056,0.024269758804640513,0.002557659953251077,0.06974621113029215,1.7684062177080329,0.6153566147446263,0.34797243335989153,-3.7185241972971084,9.77860177282923,21.416868044653626,0.4565841164282795,657.9343995271872,2.190176933491905,3.5251527036614245,187.62692151616096,0.5051546391752577,0.5053763440860215,0.8085106382978723,0.05555555555555555,48.882681564245814,48.84144024826808,48.92296094103145,46.236559139784944,0.4516892263673379,0.5483107736326619,6.573071059854346,7.242055538384984,0.5409928748617681,0.4590071251382321,15.7525814378862,14.509941932511943,0.5255831839425865,0.47441681605741354,12.069570935106425,11.467034998331544,1.1422381655424967,0.613155117131992,1.260347288740423,1.2826697524533337,0.6501597315914935,0.08920229470967911,-0.4635941002705431,0.00015594508300405832,0.025756735911862623,0.5765285776237219,2.382627800667582,5.3518855223318536,1.3408763616683321,1.57198044032057,1.194898421981115,1.4908396307943097,2.1736000877196626,1.701109575352334,3.0485367137496757,1.020605078688731,Stress
98.38249172635476,609.7938144329897,17.61920007662681,,,,,,,14.115963185934804,14.189410277918096,0.02889370088643788,0.023148747743629346,608.0,19.273799999999998,0.03170032894736842,24.0,1.2481755473960603,594.4,623.0,0.0,17.525773195876287,575.0,651.0,5.105263157894737,70.3125,,,0.045893341998702146,0.022394438140052656,0.0027662134111768226,0.07105399354993162,2.049318751008157,0.645893913991641,0.3151749398056769,-3.7989426482711037,10.03342822855398,22.518168833890094,0.4455703437774016,709.7939480988781,2.244314537458491,3.5581024020732985,202.15141468337703,0.5051546391752577,0.5053763440860215,0.8085106382978723,0.05555555555555555,50.58611361587017,50.561063438444585,50.61191634779575,45.16129032258064,0.4772335197867113,0.5227664802132885,6.931620908636928,7.254762501100116,0.5329656278614832,0.46703437213851684,16.439275422553926,15.388897010929451,0.5237330835138202,0.47626691648617997,12.615410116988631,12.030164798546233,1.1957816130642849,0.48039027978838167,1.294349349857825,1.1542955034039752,0.9815003994497324,0.736794440414271,-0.7915417991295437,0.00011370825662015895,0.01617741949514873,0.5706564183025971,2.1400661634962708,5.42006261565234,1.3172304321516126,1.490872475617218,1.0404298225630362,1.3964665197481763,2.0271253438803916,1.6959053616970596,2.828713835314413,0.8845244015302336,Stress
98.39880928567271,609.8556701030927,17.61804809156511,,,,,,,14.318548576351352,14.393712077446216,0.028888881345625395,0.023478585636386527,607.0,19.273799999999998,0.031752553542009884,23.0,1.2304353334152347,596.2,624.0,0.0,18.556701030927837,575.0,651.0,4.619047619047619,62.5,,,0.055475883648413514,0.02796841361114215,0.0025677483432418476,0.0860120456027975,1.9835191376858374,0.644978075566304,0.3251685669737459,-3.576679490890456,10.177891416408928,22.830453461619154,0.44580329661516516,729.9989299910404,2.2431417793288304,3.570292333507826,204.84777600312177,0.5154639175257731,0.5161290322580645,0.8333333333333334,0.05555555555555555,50.0,50.000845504799344,49.999127038994786,45.16129032258064,0.4693628696270705,0.5306371303729296,6.972879794717456,7.414069129205067,0.5294245270545737,0.47057547294542623,16.611795124347324,15.661349495170217,0.5194668357945722,0.48053316420542774,12.739167749206942,12.252475036956818,1.1851681849071984,0.6777860804442166,1.5111866214633496,1.2100728002209409,0.8575104998357688,0.6661714983701499,-0.9442608515138888,0.00015689105749949278,0.030759728402981315,0.5275817666698632,2.063693184711697,5.378825502250278,1.3355572680550394,1.312405298385928,1.1952010743362935,1.6860692419023462,2.1512364134123327,1.6780101823264957,3.0613836746755694,0.9525647401094823,Stress
98.59739681497702,608.5979381443299,18.57847084767206,,,,,,,14.498563147199565,14.57429544503947,0.030526673988281162,0.023822892321007517,607.0,20.7564,0.03419505766062603,27.0,1.2814008297960575,592.2,624.0,0.0,18.556701030927837,575.0,651.0,5.705882352941177,70.3125,,,0.04749390061150954,0.026626480331147014,0.002435494148080968,0.07655587509073752,1.783709300697634,0.6203821790975232,0.34780453230517044,-3.6258490572062247,10.30558314020362,24.28944160914801,0.4242824230394115,786.3936082326521,2.356920639880267,3.602610084876702,228.99314503907004,0.4948453608247423,0.49462365591397844,0.782608695652174,0.058823529411764705,50.43630017452006,50.43427205598731,50.4379615969136,45.16129032258064,0.4764122893954411,0.5235877106045589,7.113367697511496,7.457246563966453,0.5128558101899605,0.4871441898100395,17.394629022552817,16.952989555001018,0.5072959782131061,0.4927040217868939,13.288587562872074,13.0960753885995,1.1952400608556517,0.656651432600861,1.3111849323285032,1.42038681923596,0.4143666807704314,-0.33147295615640004,-0.33369885225875356,0.00019769663507396417,0.031690816119879194,0.4682741624315163,1.7540191412452084,5.341612713854023,1.3225668566163995,0.6117915804512885,1.136369506869103,1.4551912174072745,2.064331491816827,1.6501403869456674,3.699161152074683,0.8845244015302336,Stress
98.60206777031361,608.5257731958762,18.717801677984447,,,,,,,14.42942595300774,14.501769402023799,0.030759258691183552,0.023712103231432243,606.0,22.238999999999997,0.036698019801980196,28.0,1.2971965578494005,593.0,626.8,0.0,18.556701030927837,575.0,651.0,5.105263157894737,62.5,,,0.04597995767383124,0.020370768514129774,0.002546275939334262,0.06889700212729528,2.2571538055590867,0.6673724001644932,0.2956698823628406,-3.8936543217118573,10.254299483374613,24.41806474651323,0.4199472640369205,786.6238517348605,2.3812513752014417,3.60273722076141,232.58220102956992,0.5051546391752577,0.5053763440860215,0.7872340425531915,0.05714285714285714,48.67256637168141,48.6886122470737,48.65717423531804,46.236559139784944,0.4498699219531719,0.550130078046828,6.879412459612643,7.60747554780995,0.5149390706550249,0.48506092934497513,17.522221395826822,17.006282466210568,0.5051802088299738,0.49481979117002645,13.310795589179577,13.173597221925895,1.221103253873719,0.3152587268605269,1.1969839750723166,1.2597239487589398,0.9776433722795921,0.2615557570169105,-0.30098893911228697,0.0002910407215484135,0.014731423375323034,0.4997611141583369,1.8908503718722858,5.331533270259307,1.2975051447952026,0.7017852759366102,1.2110214632594085,1.3522377733239423,1.975549758154562,1.641580824975593,2.8619863587009142,0.6804033857924874,Stress
99.2164529021929,604.8556701030927,19.007120206825153,,,,,,,14.329456840136451,14.404662378744392,0.03142422423449472,0.023690704325701556,603.0,19.273799999999998,0.03196318407960198,30.0,1.3264368928197392,587.6,621.8,0.0,18.556701030927837,565.0,650.0,5.105263157894737,70.3125,,,0.05285291115644896,0.0232843730777011,0.0023338297712582876,0.07847111400540835,2.2698876615692503,0.6735333354998153,0.2967254049190165,-3.759972826779647,10.185634448712904,24.986241828289312,0.4076497185415365,799.5376095957865,2.4530864477908563,3.6098090073820686,245.17364484080613,0.4948453608247423,0.5,0.7872340425531915,0.05714285714285714,50.08896797153024,50.091930584548926,50.08592111161051,45.744680851063826,0.4621043019480519,0.537895698051948,6.924023776905875,7.470292039665835,0.5196724067839794,0.48032759321602064,18.012158823891042,17.316882375435778,0.5114690413194728,0.4885309586805272,13.645145121255284,13.335660432887698,1.2211404029615764,1.5807124706830793,1.4528726930851146,1.7633463493865302,-0.654914029062045,-1.0343139536087502,-0.30358625489476304,0.0008690680135361191,0.16583213461001753,0.5262001887865329,1.9810014688665833,5.309885172629308,1.2849706003931642,0.9431902345236596,1.0429445979804397,1.2098526880161835,1.9411744587683555,1.6433074394140341,2.9164216526038094,0.9525647401094823,Stress
99.32643494768364,604.1938775510204,19.916660467835396,,,,,,,14.295122086359303,14.368172216821236,0.03296402232436319,0.023659826121214162,603.0,20.0151,0.033192537313432836,29.25,1.3932487143177517,587.0,621.6,0.0,19.387755102040817,555.0,650.0,5.157894736842105,78.125,,,0.05127485437944664,0.021395019016573525,0.0031772167486859597,0.07584709014470613,2.396579051401024,0.6760292884225494,0.2820809470179368,-3.8445971402811496,10.159832007770445,26.119765708231782,0.38897102375495357,833.6920818247326,2.570885590259254,3.627975786670345,268.60371712096355,0.4897959183673469,0.49473684210526314,0.7659574468085106,0.058823529411764705,49.20774647887323,49.16979199470065,49.244542767150854,46.31578947368421,0.4539905155887398,0.5460094844112603,6.846151595361197,7.507981863767831,0.5141493124818877,0.4858506875181126,18.728970549548546,18.20625779250267,0.5062423570718687,0.49375764292813146,14.100427821745752,13.925473321825201,1.19853085231999,0.6458031806010784,1.372320216377522,1.4250816901355436,0.726670392057783,-0.0790772277869376,-0.41830100045510143,0.0005570394182284394,0.04598706590693271,0.5113379342918272,2.2335922215070942,5.408027768722034,1.2464041625424525,1.1578718735763662,1.1117239593117036,1.227248489405028,1.9123472582599468,1.6530817255427537,2.7188715234743954,0.9449585491593154,Stress
