PPG_Rate_Mean,HRV_MeanNN,HRV_SDNN,HRV_SDANN1,HRV_SDNNI1,HRV_SDANN2,HRV_SDNNI2,HRV_SDANN5,HRV_SDNNI5,HRV_RMSSD,HRV_SDSD,HRV_CVNN,HRV_CVSD,HRV_MedianNN,HRV_MadNN,HRV_MCVNN,HRV_IQRNN,HRV_SDRMSSD,HRV_Prc20NN,HRV_Prc80NN,HRV_pNN50,HRV_pNN20,HRV_MinNN,HRV_MaxNN,HRV_HTI,HRV_TINN,HRV_ULF,HRV_VLF,HRV_LF,HRV_HF,HRV_VHF,HRV_TP,HRV_LFHF,HRV_LFn,HRV_HFn,HRV_LnHF,HRV_SD1,HRV_SD2,HRV_SD1SD2,HRV_S,HRV_CSI,HRV_CVI,HRV_CSI_Modified,HRV_PIP,HRV_IALS,HRV_PSS,HRV_PAS,HRV_GI,HRV_SI,HRV_AI,HRV_PI,HRV_C1d,HRV_C1a,HRV_SD1d,HRV_SD1a,HRV_C2d,HRV_C2a,HRV_SD2d,HRV_SD2a,HRV_Cd,HRV_Ca,HRV_SDNNd,HRV_SDNNa,HRV_DFA_alpha1,HRV_MFDFA_alpha1_Width,HRV_MFDFA_alpha1_Peak,HRV_MFDFA_alpha1_Mean,HRV_MFDFA_alpha1_Max,HRV_MFDFA_alpha1_Delta,HRV_MFDFA_alpha1_Asymmetry,HRV_MFDFA_alpha1_Fluctuation,HRV_MFDFA_alpha1_Increment,HRV_ApEn,HRV_SampEn,HRV_ShanEn,HRV_FuzzyEn,HRV_MSEn,HRV_CMSEn,HRV_RCMSEn,HRV_CD,HRV_HFD,HRV_KFD,HRV_LZC,Labels
87.81654619444845,686.3837209302326,118.91283694663784,,,,,,,150.55032381233858,151.44250649374914,0.17324542135917692,0.21933842429756759,678.5,48.1845,0.07101621223286662,64.0,0.7898544083828278,634.0,718.0,25.581395348837212,63.95348837209303,354.0,1514.0,10.75,328.125,,,0.025982684712691013,0.1010271160005345,0.018260118214325226,0.14526991892755073,0.25718525620936805,0.17885798315650706,0.695444154897057,-2.2923663229210924,107.08602330161774,130.88791097001754,0.8181506031229111,44033.39793204676,1.2222688539041138,5.350752309984079,639.9208677249081,0.5581395348837209,0.5662650602409639,0.7872340425531915,0.23809523809523808,50.444258172673926,51.327187524629515,49.37721013227713,49.39759036144578,0.37311652536984335,0.6268834746301566,65.41220033281981,84.78712840317887,0.6385016533730188,0.3614983466269813,104.58768478900282,78.69600643343617,0.5320886151851175,0.46791138481488254,87.22768987513301,81.79828412451134,0.9485340525702766,1.0587484060872603,1.317286683099888,0.8900876782999494,0.8112777009058751,1.0214997791020273,-0.9034943546018709,0.004819181535139686,0.1969321761187782,0.7440671755972357,0.9890500861565833,6.115161411653685,0.7070405146734039,1.093115098575731,1.09141173926934,1.031756242213311,1.211610962224775,1.8847861913864086,1.7837047194768019,1.0461361228584811,Relax
87.99895774289921,686.3720930232558,121.07421608366333,,,,,,,151.39698497269862,152.26878233186582,0.17639734673705776,0.22057567099769737,677.5,51.891,0.07659188191881919,67.25,0.7997135220724284,633.0,717.0,25.581395348837212,62.7906976744186,414.0,1514.0,10.75,273.4375,,,0.05161932759146228,0.11171205275132012,0.009354884255694439,0.17268626459847686,0.46207482827632745,0.2989197068538454,0.6469075754870747,-2.1918306758514436,107.67028854988067,131.02917758328203,0.8217275765273389,44321.430062965956,1.2169483276027429,5.353583874733499,637.8229541085516,0.5348837209302325,0.5476190476190477,0.782608695652174,0.18181818181818182,47.92634658406472,47.953675215094215,47.56529122908624,47.61904761904761,0.3425020620657408,0.6574979379342591,63.0236633563707,87.32110964982172,0.6378352206124969,0.3621647793875029,104.64591111166663,78.85352665391969,0.5187705776983264,0.48122942230167365,86.37924766761974,83.1951166122045,0.5684500012289759,1.8606954139618554,1.2791874417154472,0.8518892142473723,0.38782794729900694,0.6654552250889725,-0.7296443707346261,0.007480203298645437,0.4130354099449353,0.7711545814678451,0.9829821063728273,6.161673039560662,0.6886321691296373,0.8583604728775427,0.970948978358856,0.9134601399186191,1.2548428305247887,1.8964234162477271,1.7553557212098716,1.1208601316340867,Relax
89.10186592949705,677.264367816092,130.95947001019633,,,,,,,152.61743476860315,153.5100530535668,0.19336536252820813,0.22534396023333345,672.0,48.925799999999995,0.07280624999999999,65.0,0.8580898388755885,628.4,704.8,27.586206896551722,65.51724137931035,336.0,1514.0,9.666666666666666,367.1875,,,0.03414409669270467,0.08807927517177631,0.008971404808665765,0.13119477667314675,0.3876518809460598,0.2602550006832198,0.6713626670611543,-2.4295180158048386,108.54799949448375,151.03041453598374,0.7187161594436441,51503.42503417498,1.3913698570157333,5.418806221022052,840.5566651118345,0.5057471264367817,0.5176470588235293,0.7272727272727273,0.13043478260869565,50.573306833817455,50.93537999337012,49.895961268060084,48.23529411764706,0.4204752688182778,0.5795247311817221,70.38808388456938,82.6351655666962,0.5842938414018958,0.4157061585981042,115.44631335895303,97.37728095781634,0.5284944145147206,0.47150558548527927,95.60944937900949,90.30754518580602,0.9862301899629158,0.7905606992544116,1.1130058575014377,0.8327923670147753,1.0,1.2593442884170063,-0.8544490521106544,0.0024014473364986186,0.09432820911873152,0.7460837502576667,0.9459825216815586,6.066450536053747,0.721494940111397,1.0341640982379314,1.0330727239789705,0.9556546770898965,1.1004258940304767,1.9319053838284843,1.8761931985208662,1.1108523268704704,Relax
89.2130194316558,677.5,135.6431087124461,,,,,,,161.67687455138994,162.60310928287745,0.20021123057187615,0.2386374532123837,670.0,52.632299999999994,0.07855567164179103,69.25,0.838976564142642,626.0,713.0,34.883720930232556,69.76744186046511,336.0,1514.0,9.555555555555555,359.375,,,0.05272490245392755,0.11166904853626895,0.0057750996775118805,0.17016905066770838,0.4721532344461863,0.3098383768790263,0.6562241964570088,-2.1922157058771226,114.97776121593989,153.09416236101103,0.7510264234949147,55299.64606042772,1.3315110743327545,5.4496924616192,815.3862903975316,0.5232558139534884,0.5357142857142857,0.7555555555555555,0.14285714285714285,48.09849521203829,48.18690401793437,47.850271934328795,50.0,0.39908184620924025,0.6009181537907601,72.6496812826883,89.14775055250372,0.584170347895806,0.41582965210419387,117.01145650055362,98.72254857244445,0.5174043304524666,0.48259566954753347,97.3900845642336,94.05706519238755,0.85403946913623,0.9994611470882653,1.0381986619668178,0.7465083416135272,1.109430257938472,1.4742923544908888,-0.7918475832733202,0.0042411921811977005,0.1739116003462213,0.7575574578548978,1.0572709485116687,6.161673039560661,0.7895475002331386,1.0771922187982792,1.1482490747162257,1.103649396558412,1.20213032094331,1.9051219088668017,2.0315439955492174,1.1955841404096927,Relax
88.87684707898927,678.6206896551724,134.81626095587836,,,,,,,162.57323930934908,163.5256682788562,0.19866217315652807,0.2395642245920286,672.0,57.8214,0.08604375,73.5,0.8292647764700442,626.4,716.2,35.63218390804598,71.26436781609196,336.0,1514.0,8.7,343.75,,,0.04979455644214721,0.12849703955214578,0.008719152142472203,0.18701074813676521,0.38751520358521513,0.2662657464250735,0.6871104513103866,-2.051849413416955,115.63010893804112,152.94026734708223,0.7560475141293592,55557.494573527954,1.3226681938787523,5.451712762480471,809.156908733195,0.5287356321839081,0.5411764705882353,0.782608695652174,0.13636363636363635,50.33815143880121,50.780366360963804,49.6501902799178,45.88235294117647,0.41442948369654886,0.5855705163034511,74.43876283069666,88.48373064148738,0.5897156889052578,0.4102843110947422,117.44734023900968,97.96350160635994,0.5259619869337079,0.4740380130662922,98.32346398744912,93.34403632588045,0.7931090201905713,1.5680074170475309,1.2253351824782701,1.0211745639143979,0.008125864332651389,0.2908297546281102,-0.6302038602268191,0.0020643077947766516,0.18069518683687574,0.7642304627640768,1.0726368022648491,6.070937427152173,0.8098941902994505,1.0828657020747485,1.099649488916329,1.2315996466166548,1.2090726835840477,1.9193940879962037,1.9411200717100499,1.1108523268704704,Relax
88.75506740645585,679.080459770115,131.74413348139223,,,,,,,155.03161718043646,155.94016399543133,0.19400371721193505,0.2282963895514213,672.0,57.8214,0.08604375,75.5,0.8497888100338871,624.4,718.6,34.48275862068966,68.96551724137932,336.0,1514.0,9.666666666666666,343.75,,,0.0365832618202801,0.10611159445773558,0.009415939120001833,0.1521107953980175,0.3447621535349869,0.24050404657049673,0.6975941068487671,-2.243263960748922,110.2663474205118,151.33835877664757,0.7286080562248477,52425.41551876456,1.3724800205769356,5.426511991288804,830.8354950714116,0.5172413793103449,0.5294117647058824,0.7555555555555555,0.14285714285714285,49.6997216932767,50.11561563389388,49.05545863871652,47.05882352941176,0.40195927126990755,0.5980407287300924,69.90947928655775,85.27278029256188,0.5951080876415845,0.40489191235841576,116.74732704304346,96.29828900616018,0.5281281953968782,0.4718718046031219,96.22181058838218,90.95275566011587,0.8655583358882196,0.8089191195315331,0.854974016765895,0.7346449644810804,1.0,1.2220536896723622,-0.6487528844101255,0.003299820016872516,0.12006235019504066,0.7882044138071151,1.0879169995513618,6.148579812234512,0.7973364855021615,1.073801933860897,1.236532747019848,1.3126538520427804,1.2193910732199973,1.8823367035436542,1.8695014935005458,1.0367955050791056,Relax
88.02773872242975,684.3604651162791,159.88752758557553,,,,,,,167.895590805014,168.80310493380776,0.23363057297357054,0.2453321010828511,672.0,65.2344,0.097075,84.5,0.9523033143333784,617.0,725.0,40.69767441860465,70.93023255813954,336.0,1514.0,9.555555555555555,343.75,,,0.05400023573724766,0.11412971089520245,0.006601899764704702,0.17473184639715483,0.47314792365357344,0.3090463292793714,0.6531706340227904,-2.170419662538189,119.36182018403983,185.51110901675796,0.6434214145809316,69564.10905759565,1.5541913547458044,5.549355337236304,1153.2790473726066,0.5,0.5176470588235293,0.7272727272727273,0.09523809523809523,52.9660474055093,52.45154769856789,53.12897972839522,44.70588235294118,0.45295211845785105,0.547047881542149,80.37486577045742,88.32970567573462,0.6245866508576572,0.37541334914234264,146.61090368529892,113.66448209184541,0.5742977184476056,0.42570228155239453,118.22621563561748,101.7883868473446,0.6434865742469013,1.6773508750589907,1.1887429179031435,0.9004699936481535,0.4535295117006104,0.7691230734545675,-0.671862028715281,0.003218004598661459,0.2688218706967142,0.7230719664691692,1.0451236037171237,6.0819666096505065,0.8350811726003524,0.8379416941304985,1.0642593436786651,1.0511907322508522,1.2161456271314306,1.9031065745607065,2.0654869661212865,1.0461361228584811,Relax
86.98883446583766,694.0588235294117,158.79249359591583,,,,,,,175.04710250454903,176.09839662946277,0.22878823553950076,0.25220787715716025,679.0,68.19959999999999,0.10044123711340204,88.0,0.9071415140492783,628.0,739.0,40.0,70.58823529411765,336.0,1514.0,9.444444444444445,343.75,,,0.037435601793474535,0.13960583514999367,0.009577916806767955,0.18661935375023614,0.26815212812024236,0.20059871091171413,0.7480780119774529,-1.9689322904586992,124.52037041277137,188.48090731949918,0.6606524352182445,73732.27604249766,1.513655209141329,5.57462775031329,1141.1804287513758,0.5294117647058824,0.5476190476190477,0.7391304347826086,0.08695652173913043,50.06784260515603,50.330760767957926,49.49864676698602,45.23809523809524,0.42012949296491503,0.5798705070350851,80.71088518875139,94.82132849390688,0.5834964612739952,0.41650353872600493,143.9747977111496,121.64008405133231,0.5338582107821425,0.46614178921785754,116.71115920064854,109.0582284501371,0.8345083023359918,1.0748538819400961,1.1637578152675647,0.8586632862807417,0.2763904401801014,0.4551014534547657,-0.7838474457906145,0.0024411256087981787,0.10819979764559039,0.6969900415534607,1.002031460662329,6.028631783471814,0.8513249967768953,0.938472755151088,1.1603730744503251,1.183191143953219,1.1864229158031199,1.8755824120814637,2.0839795698242574,1.0556643894815037,Relax
87.47375808265956,694.297619047619,166.7775937510651,,,,,,,191.89373314227097,193.04316798998852,0.24021052236912036,0.27638541149758683,681.5,76.3539,0.11203800440205429,103.0,0.8691143322925264,625.2,746.0,45.23809523809524,75.0,336.0,1514.0,14.0,343.75,,,0.021760899628177562,0.0961708164639315,0.008457583716382201,0.12638929980849126,0.2262734208598396,0.1721735911279698,0.760909480546631,-2.3416293304951834,136.50213314745474,192.45919344154606,0.7092523391921692,82533.06475514513,1.4099354274093607,5.6235980823161995,1085.4201406554682,0.5238095238095238,0.5421686746987951,0.7333333333333333,0.09090909090909091,48.864610111396736,48.6646952674501,48.80249427032178,45.78313253012048,0.44217207195829256,0.5578279280417076,90.77652807185615,101.95958070510575,0.5667832225367881,0.43321677746321186,144.89291656921077,126.67511147908321,0.5250732945218626,0.47492670547813765,120.9014791487531,114.98334654592189,0.8932636839958881,1.2874417544413483,1.4262938634792361,1.0011097198654964,0.28071336549404435,0.5396008400442458,-0.8302550520417425,0.002522133254818019,0.14725726979116258,0.7177996817941739,1.078077686226402,5.993391529870105,0.9165680668778128,0.9483232559453786,1.1987940106738986,1.3191621692672335,1.2467345864872195,1.8982913994351418,2.205625705524872,0.9892872201919511,Relax
86.27116546903564,703.3452380952381,180.83904139514152,,,,,,,223.30216170401653,224.63059302018388,0.25711276852443066,0.3174858513420116,691.0,86.73209999999999,0.12551678726483356,114.5,0.8098400840151329,621.6,767.2,48.80952380952381,77.38095238095238,336.0,1513.0,16.8,359.375,,,0.05463864450082764,0.07667689706292974,0.014634969044047732,0.14595051060780512,0.7125828847245212,0.3743641887464948,0.5253623077001365,-2.568154827678112,158.83781558652754,198.91842134029721,0.7985073203190052,99261.03114299773,1.2523366718798496,5.703748892382515,996.451335027606,0.5119047619047619,0.5301204819277108,0.7272727272727273,0.09090909090909091,48.66127583108716,48.52956418586634,48.48130839248398,44.57831325301205,0.42280232923381733,0.5771976707661826,103.29486564342238,120.69029099916618,0.5740779433745943,0.4259220566254059,150.71637309016836,129.8195410216088,0.5151686564186628,0.4848313435813373,129.19995043680842,125.33806200138206,0.9360875422644571,0.4018463807900998,0.8037606556864536,0.9699085435675054,1.0,0.38675010113010977,-0.08653879735242057,0.0029098296888411816,0.0776388783663401,0.6599803069968666,0.994472029415513,6.136248672727247,0.9267672742416968,1.0345782945599575,1.0901747509458448,1.3711981859847748,1.2533311890708079,1.9550074808764393,2.3974500867568636,1.0653862371297935,Relax
86.63041125455221,699.1190476190476,159.8521458988888,,,,,,,182.62556334079346,183.73544588841713,0.22864796266571297,0.26122241120843664,695.0,91.9212,0.13226071942446044,116.0,0.8752999469225035,621.6,766.6,50.0,76.19047619047619,336.0,1183.0,14.0,359.375,,,0.05023001065232574,0.1042106154714286,0.026966493764722942,0.18140711988847727,0.4820047403529374,0.276891065153371,0.5744571411281632,-2.261341278926452,129.9205797320337,186.6585304609167,0.6960334435893193,76186.08639572532,1.4367125735268982,5.588845774827689,1072.6986306770102,0.5238095238095238,0.5421686746987951,0.7333333333333333,0.09523809523809523,49.85626283367558,49.66933412367754,50.05156031760835,44.57831325301205,0.5175925069647545,0.4824074930352456,93.47009434351378,90.23722124246166,0.46835839543923385,0.5316416045607663,127.74296643837201,136.0997484176732,0.48442625662985267,0.5155737433701473,111.92614531703575,115.46838878436581,0.8037461445596613,0.5107458236193346,1.024886873774669,1.0042179613726292,1.021024513036826,0.13082670303022503,-0.5404680987023492,0.0027469264203821998,0.07664185732605122,0.6884952602298022,1.1435636765303758,6.192854476324433,1.0269719230835037,0.7778110031836469,1.04755144138126,1.209185884635724,1.3309702275255115,1.9025400112725495,3.132348936319522,0.9131882032541088,Relax
87.6337359773188,691.6860465116279,163.06182599593083,,,,,,,185.8343981328854,186.93438160277015,0.2357454322207288,0.26866871042158774,687.5,86.73209999999999,0.1261557818181818,115.5,0.8774577130727407,616.0,765.0,53.48837209302325,76.74418604651163,336.0,1183.0,14.333333333333334,335.9375,,,0.055888421016573514,0.07344963114426675,0.024351544149663368,0.15368959631050363,0.7609081236473437,0.36364479026713353,0.4779089340300842,-2.611155398236443,132.18256886823252,190.45024310312448,0.6940530330363436,79087.08924112683,1.440812088415203,5.605075701816222,1097.6120500183833,0.5465116279069767,0.5595238095238095,0.7446808510638298,0.15,50.41872858774267,50.29705939636615,50.53698525300704,41.66666666666667,0.5120217644730273,0.4879782355269729,94.58562510334473,92.33814668561055,0.4831574107892,0.5168425892108002,132.38105991998864,136.91804144268053,0.4925415220656097,0.5074584779343901,115.04604622004639,116.77517588475925,0.911848559802845,1.0187898351720674,0.960228265351986,1.3715023681114267,0.4646455325803345,-0.4358722488647617,-0.09631114429996344,0.0034534874807992297,0.16537450898796263,0.7151765296360253,1.3678322982801552,6.263474057027677,1.0892895351046827,1.0399383513996407,1.140445116341947,1.2869607288280878,1.4024579087716593,1.8736658261971038,2.9235954115956004,0.9714121140828752,Relax
86.93492296007317,697.2823529411764,162.8546395207867,,,,,,,186.8485508436738,187.96901027527622,0.23355623275686901,0.26796684306656554,697.0,72.64739999999999,0.1042286944045911,95.0,0.8715863130083277,627.4,765.8,52.94117647058824,78.82352941176471,336.0,1183.0,10.625,335.9375,,,0.05887499859822842,0.05677821199009163,0.018049005382029283,0.13370221597034934,1.0369294230065347,0.440344224446399,0.42466171243327133,-2.8686026185688953,132.91416181857164,189.24791815678748,0.7023282639677725,79022.76840749898,1.4238356211816738,5.604722350227998,1077.8317084244325,0.5176470588235295,0.5301204819277108,0.7272727272727273,0.15789473684210525,50.32473734479465,50.22667389933259,50.4286581530128,42.168674698795186,0.5121852665175404,0.48781473348245946,95.12373045873223,92.833086384709,0.48267289418397047,0.5173271058160293,131.47935531990595,136.11742596501028,0.49242173524100913,0.5075782647589907,114.7504792402272,116.50308060101007,0.8771351454476521,1.8518380954233211,1.4586551658917912,1.6553939448432924,0.28206254185179347,-0.4226169615161657,-0.3937602701673941,0.008043402804476093,0.5001575241836682,0.7052915068769341,1.3105825393841941,6.18874520081813,1.1022183929776526,1.1004829445775104,1.081015258565841,1.2687705312038695,1.334893320660916,1.8833085869748734,2.8076521720343948,1.1310689887301828,Relax
85.47289822923118,707.9518072289156,154.87271749647476,,,,,,,180.61392594122535,181.71107501939284,0.2187616669878728,0.2551217810265777,700.0,80.0604,0.114372,106.5,0.8574793814452204,635.4000000000001,770.2,53.01204819277109,75.90361445783132,341.0,1183.0,11.857142857142858,367.1875,,,0.051902909903525765,0.049799190765727294,0.018496069556218964,0.12019817022547202,1.042244042633044,0.4318111482576185,0.4143090587178839,-2.9997565447677483,128.4891333629101,176.91048437580997,0.7262946219171575,71411.77766353023,1.3768517208076776,5.56073995412538,974.3180193670149,0.5301204819277109,0.5443037974683544,0.7441860465116279,0.15,49.03746636307182,48.98343440529141,49.05830737373107,45.56962025316456,0.5072266663277201,0.4927733336722799,91.51698216555963,90.20367899206607,0.44527205156091254,0.5547279484390878,118.05008112722636,131.76303665269324,0.46666949276360775,0.5333305072363923,105.62002574994025,112.91191596028004,1.0165093536566638,1.5918433300586257,1.1377300505592336,1.7809480753510045,0.10241569535599648,-0.834618417974059,-0.09592881243653427,0.00658551739436037,0.38216136585383254,0.6319803093961309,1.2039728043259361,6.091789130089976,1.054397002363167,1.180060753742201,1.2270541719811923,1.3536208800496599,1.3710194479805045,1.8685681788503878,2.688184287302208,1.2289232638741059,Relax
85.64844451605825,703.9761904761905,154.23022817106323,,,,,,,172.5998226974197,173.5547940263615,0.21908443816365056,0.2451784947168001,705.5,71.1648,0.10087143869596031,95.75,0.8935711854202786,638.6,764.4,50.0,72.61904761904762,305.0,1183.0,12.0,367.1875,,,0.0628240496972221,0.053895329820317174,0.021612191675722682,0.13833157119326195,1.1656677843270018,0.45415554204507025,0.3896097568719178,-2.9207114500842355,122.7217717634747,176.24703414181158,0.696305457626768,67950.60171474551,1.4361513169928617,5.539163416802734,1012.4696407953942,0.5,0.5125000000000001,0.7073170731707317,0.15789473684210525,47.37661182747888,46.42802387077335,48.14431332778564,48.75,0.4893295716136838,0.510670428386316,85.89308442022275,87.74609990638038,0.4304206287491251,0.5695793712508748,115.62942240982908,133.01448686874,0.44967008266081576,0.5503299173391842,101.85230797102783,112.6770423949233,0.877235032641299,1.5312710793879862,1.3910353968883076,1.5120758754778931,0.4069419120576736,-0.33146869422752867,-0.4209542449936671,0.005426382976031086,0.3369153807789152,0.6627280119563306,1.1323504282999597,6.032023821511015,0.9755527523214356,1.5006099705253275,1.2536694961139652,1.3716969092587035,1.3076844560109786,1.8225978316929672,3.0033900769243114,1.141485254067636,Relax
85.04959036996807,711.1325301204819,153.31481807405765,,,,,,,177.46641729716833,178.55615717381275,0.21559246916757227,0.24955463261834124,700.0,80.0604,0.114372,105.0,0.8639089040566548,629.0,764.6,49.39759036144578,69.87951807228916,341.0,1183.0,11.857142857142858,335.9375,,,0.0581758403026111,0.05024628225956625,0.014532776256616193,0.12295489881879354,1.1578138259479918,0.47314780347506563,0.40865620436658967,-2.9908187196642224,126.25826956021398,177.41404461014986,0.7116588195576865,70371.64486692216,1.405167718741299,5.554367812307632,997.1859533500453,0.5180722891566265,0.5316455696202532,0.6904761904761905,0.15789473684210525,49.584303292317934,49.4005208797119,49.71775393848669,45.56962025316456,0.49224463560029197,0.5077553643997079,88.58416518197626,89.9689932870565,0.4689198396558606,0.5310801603441394,121.48909607896616,129.29092295613012,0.47676157308768013,0.5232384269123197,106.3173428634104,111.37899827151973,1.1464715247757877,2.16054148759848,1.1789597242771546,2.142343997569261,-0.7371566226513924,-1.5683600806398585,-0.0541005443209782,0.006626194016395978,0.5326399546015274,0.6280192768646726,1.1039742318094952,6.01949997346347,0.9921696759874271,1.1340367164777765,1.1955323606341146,1.3923007773252731,1.3712269935673118,1.8347150008335529,2.8767175037660686,1.0753078558898426,Relax
85.46996247057882,707.3132530120482,155.19287195339393,,,,,,,177.68031034114847,178.773731218552,0.21941179709628658,0.2512045541130585,698.0,96.369,0.13806446991404012,131.0,0.8734387713271191,620.4,768.0,50.602409638554214,71.08433734939759,341.0,1183.0,11.857142857142858,359.375,,,0.04189792227966009,0.04339561081818809,0.016212379074949573,0.10150591217279775,0.965487557144828,0.4127633689783065,0.4275180616505759,-3.1373969762115594,126.41211764265928,180.77511103814084,0.6992783293934098,71792.19243672349,1.4300457456867735,5.563047326265108,1034.0667138645895,0.5060240963855421,0.5189873417721519,0.7073170731707317,0.15789473684210525,50.02199736031676,49.8898700281794,50.08844369586149,45.56962025316456,0.4933504946762239,0.5066495053237761,88.7905011046776,89.97928430999144,0.4737541321132805,0.5262458678867196,124.4271467613432,131.13933780404457,0.48018965431924043,0.5198103456807596,108.08762171865146,112.45843126378206,0.8997898501210615,1.8550851085459268,0.8806783158598774,1.6900892125298816,0.2375581283896917,-0.4879554878820216,-0.0636799126135806,0.00801842375225589,0.4938587113039003,0.6766134072312289,1.2276044088592128,6.052691389152187,0.9983648977913557,0.9744102936915009,1.1401329530165838,1.3177435507771924,1.4888645085232821,1.8579354041416385,3.2569361626680102,0.998500151897711,Relax
85.13118219361851,711.4939759036145,151.11789723823824,,,,,,,185.54297378761402,186.66077871730846,0.21239518865400775,0.2607794023160491,698.0,94.8864,0.1359404011461318,123.0,0.8144630548566004,620.4,767.4000000000001,51.80722891566265,73.49397590361446,407.0,1183.0,13.833333333333334,289.0625,,,0.06189125040386245,0.08193425921039499,0.03618372540438877,0.1800092350186462,0.7553769448862035,0.34382263997428497,0.45516697630489816,-2.5018380702111886,131.98910241257042,168.0722258747973,0.7853118010758873,69692.1559668069,1.273379565454113,5.550154009838331,856.0789517974196,0.5421686746987951,0.5569620253164557,0.75,0.23529411764705882,48.744855967078195,48.6497598411773,48.86515836492163,45.56962025316456,0.46027769551546827,0.5397223044845317,89.55789905949456,96.97931560039484,0.5355331192920834,0.46446688070791653,122.99547070313403,114.54425911857554,0.5068214937368166,0.49317850626318344,107.58369555243053,106.12580965850005,0.8028258099756251,2.305492784138014,0.7846965562447412,1.8214557569124246,-0.5869737671426449,-1.3187408768782294,-0.050309067197835344,0.007660040207406674,0.6164535812070124,0.6730318782845974,1.286210902562908,6.100884160236523,0.9920834329755913,1.1364239824574027,1.1885166801998779,1.4023359917558729,1.6073965233081668,1.8908253666472956,3.371636178209284,0.998500151897711,Relax
85.9757855686935,703.7380952380952,150.6561647495749,,,,,,,207.19803111126694,208.45582865617993,0.21407987683060348,0.2944249181809119,695.0,100.07549999999999,0.1439935251798561,133.25,0.7271119515062929,610.6,766.6,52.38095238095239,75.0,407.0,1263.0,14.0,289.0625,,,0.057673946996429096,0.06639686955072374,0.016748340691152143,0.140819157238305,0.8686244906827906,0.409560376070344,0.47150452291346884,-2.71210536893155,147.40053002064585,155.36200983291934,0.9487552985389704,71943.86221866352,1.054012558917925,5.563963858640692,655.0140381705085,0.5595238095238095,0.5750000000000001,0.782608695652174,0.2222222222222222,49.67150920699546,49.664446459753286,49.739729971819905,45.0,0.4910628565013928,0.5089371434986074,103.29309470934709,105.15618465279019,0.4472080621161325,0.5527919378838676,103.89619507647828,115.51162170082497,0.46798323164817923,0.5320167683518209,103.59508377814987,110.45532562689363,0.8028803459578084,1.8874386284066147,0.8436006875925828,1.6004878046374225,0.16591669909569262,-0.541859589856921,-0.0989871640574572,0.0073255949049156055,0.4830513805820179,0.6365272026901478,1.3378419777339439,6.169044952514907,1.0180684680452312,0.998197614259133,1.2295240101685878,1.4658162007996363,1.5898765000052741,1.9077497599936966,2.9927246574710407,0.9892872201919511,Relax
87.9257010013673,691.435294117647,163.53559733782322,,,,,,,219.26058100112837,220.57441407771157,0.23651612627977564,0.3171093273173605,674.0,114.16019999999999,0.16937715133531156,152.0,0.7458504241443272,590.6,769.2,57.647058823529406,74.11764705882354,330.0,1277.0,17.0,351.5625,,,0.05985133462807625,0.051356844741121115,0.013425240890907965,0.12463342026010532,1.1654013195275925,0.4802189854307836,0.4120631900652432,-2.96895705565579,155.9696639505993,172.4734929786717,0.9043109248670852,84510.83019374764,1.1058143526762978,5.633882477988284,762.8946559681193,0.5529411764705883,0.5679012345679012,0.8043478260869565,0.19047619047619047,49.60013191524445,49.62339696521407,49.603830904093776,46.913580246913575,0.48690333126398966,0.5130966687360107,108.83473710171766,111.7238150233579,0.44644093087316306,0.5535590691268368,115.24029501577766,128.32295268166345,0.4646443480774473,0.5353556519225527,112.08328509488707,120.30999756527703,0.7898068141403637,2.5848687776090635,1.4812337067827968,1.737936356423702,-0.23688278201917967,-0.48862955085463744,-0.40069025868371216,0.009601273013627244,0.7688357257637881,0.5934274364233398,1.2396908869280152,6.259333436112247,1.0950700746158786,1.1369690284020397,1.0485824050665373,1.1948909906097573,1.5557801847883965,1.9208074443792758,3.407431413603002,1.0556643894815037,Relax
86.5527325683161,700.5833333333334,171.25287497953144,,,,,,,227.38166523875003,228.75680765752537,0.2444432615385247,0.3245604832716784,672.5,116.38409999999999,0.17306185873605948,154.25,0.7531516439538626,592.8,780.8000000000002,57.14285714285714,72.61904761904762,407.0,1292.0,16.8,203.125,,,0.04372433410556062,0.045760372910483835,0.028158430150941067,0.11764313716698552,0.955506507586682,0.37166922914931483,0.3889761359009872,-3.0843367826762336,161.7554899372229,181.77775057033145,0.8898530729405095,92373.97385204928,1.1237810267885138,5.672519736976388,817.1135487329337,0.5357142857142857,0.55,0.7727272727272727,0.2,49.373053942607086,50.0331321553123,48.72587232893115,45.0,0.406266770846417,0.5937332291535831,103.10464137550129,124.64310024636096,0.5800907512991915,0.4199092487008083,138.4486405070275,117.79271855325138,0.50327283089703,0.4967271691029699,122.0626747441962,121.26629165433789,0.6528719964933998,2.484412036353927,1.2700517673972689,1.5285202551992594,-0.2877970030711392,-0.396326947416366,-0.3959639206299638,0.007939929117145035,0.6593637262269502,0.5926769009019655,1.1239300966523995,6.216664000133955,1.1115315171975593,0.9857164328764321,0.9655415623134808,1.0925488618887917,1.5435199681901832,1.9529919454687146,3.2876444613481426,0.8370891863162664,Relax
88.85590194645938,682.3908045977012,162.55749296514307,,,,,,,226.21210976570455,227.4966017996079,0.23821759008165083,0.33149935233823435,665.0,109.71239999999999,0.16498105263157892,147.0,0.7186065022491912,586.6,763.8,58.620689655172406,74.71264367816092,388.0,1292.0,12.428571428571429,289.0625,,,0.03474088871881632,0.056593399034005405,0.010552251079520984,0.10188653883234272,0.6138682127564292,0.34097623804832033,0.5554551139197249,-2.8718629254150994,160.86438982939848,162.74366073923466,0.9884525707403906,82245.82653491195,1.011682330140494,5.622083979394207,658.5795436490519,0.5632183908045977,0.5783132530120482,0.8125,0.23809523809523808,48.48165843388128,48.769979880374954,48.08278512619097,45.78313253012048,0.3973902383324792,0.6026097616675206,101.42597996452736,124.89892384032213,0.6331725434473279,0.36682745655267207,129.49861326076692,98.56778517520534,0.5166286868599039,0.483371313140096,116.3123386580856,112.5063319347316,0.7650759571236676,2.644948708241679,1.4566682483178042,1.6389247114025536,-0.2837080929859308,-0.23469125062138918,-0.431092628557659,0.008003761627354175,0.7202423920331155,0.6210705219737611,1.3464484525726907,6.172716196948419,1.0987246505102668,1.2210664586413542,1.0919135268490507,1.2197851410413878,1.5679045712551671,1.9334620911930531,3.415896459856698,1.0367955050791056,Relax
88.4912456418008,685.7674418604652,160.18340036041812,,,,,,,221.37421073031652,222.66193112930125,0.2335826850073921,0.32281236643392597,667.0,111.93629999999999,0.16782053973013492,144.25,0.7235865452979862,589.0,763.0,60.46511627906976,77.90697674418605,387.0,1292.0,14.333333333333334,289.0625,,,0.03894541628337784,0.03179724254988802,0.013007872023029568,0.08375053085629543,1.2248048308677946,0.4650169483725769,0.3796661612145215,-3.448375705223404,157.44576141362094,162.64719340895346,0.9680201552432924,80450.25404355534,1.033036341840083,5.612497529801936,672.0818467589669,0.5581395348837209,0.573170731707317,0.8297872340425532,0.17391304347826086,51.20927107826672,52.07639862079548,50.25836043155129,46.34146341463415,0.42085090201644154,0.5791490979835586,102.15178948622533,119.83316775933989,0.640765076917566,0.359234923082434,130.19550500616188,97.48456288048892,0.5343677304161896,0.46563226958381043,117.01678857977521,109.23192778496151,0.7387178245483997,2.4542207211038005,1.4013017250084978,1.4514809938096522,-0.16815098468341638,-0.032674405225382674,-0.4795538891960027,0.0049665747919439155,0.5582187549910511,0.6715347632563349,1.499234772300486,6.208184667467639,1.0747530761363868,1.1415223102720884,1.2469507461495586,1.7841114219269074,1.6942540459393909,1.9198743722821179,2.483726856682901,1.0461361228584811,Relax
87.74119726911725,690.6588235294117,156.2563181915852,,,,,,,219.59982544012493,220.91738363046935,0.2262424121262689,0.3179570258987262,666.0,108.2298,0.1625072072072072,138.0,0.7115502841517026,595.8,763.2,56.470588235294116,76.47058823529412,387.0,1292.0,10.625,289.0625,,,0.0482545070711536,0.12378430971888713,0.03336566904781921,0.20540448583785995,0.3898273309496097,0.2349243098285801,0.6026368373308005,-2.089214665706453,156.21218004709485,158.08514480867447,0.9881521773355338,77581.08112722907,1.0119898765961461,5.5967259373567675,639.9222647464575,0.5764705882352941,0.5925925925925926,0.8541666666666666,0.125,49.71493728620297,50.30526056001305,49.05638089316701,50.617283950617285,0.4158947453394039,0.5841052546605964,100.74170718359431,119.38867880375436,0.6345623681665804,0.3654376318334196,125.92971429233846,95.56474280522907,0.5265309187724622,0.4734690812275375,114.0332944977366,108.1348156098109,0.7504061726196988,2.1127990706824455,1.4094682418092026,1.288540442395126,0.45538758219305997,0.6120321046567998,-0.5572358257309419,0.005306115572946231,0.4780067420543715,0.707443819115384,1.499623046426894,6.212274612582836,1.0660993427008933,1.115835893739067,1.2153016113341577,1.621468783692429,1.623811931157102,1.8993628300985268,3.122313449255099,1.1310689887301828,Relax
87.70483673321053,690.7674418604652,156.69916283560335,,,,,,,221.9476355836585,223.26469198929692,0.22684792788374722,0.32130587247407044,665.0,111.195,0.16721052631578948,142.0,0.7060186175154765,591.0,764.0,58.139534883720934,77.90697674418605,387.0,1292.0,14.333333333333334,226.5625,,,0.03348278683179828,0.105622841046293,0.0491060803691859,0.18821170824727718,0.31700327789065286,0.1778995958519635,0.5611916603377465,-2.247880633312104,157.8719777051577,156.97087635102557,1.0057405639509653,77852.75848246686,0.9942922020283104,5.598244115080314,624.2996732054993,0.5813953488372093,0.5952380952380952,0.86,0.125,49.908302767589205,50.45578860251402,49.275906141912294,48.80952380952381,0.4199971627574176,0.5800028372425822,102.31245909328095,120.23209202363965,0.6351966955891489,0.36480330441085107,125.10457675571492,94.80875960153894,0.526980945569349,0.47301905443065095,114.27815716693381,108.26924043689269,0.577181461666163,2.097892540331063,1.1464446239127137,1.2273126526763896,-0.05959309257495704,-0.18216370214048583,-0.4614527306766083,0.0037302168905094563,0.41343964173583214,0.7313525277650124,1.8111775550851565,6.309985684934656,1.134620035213957,1.0559764556921325,1.4852313523334193,1.8473140637010759,1.7079189962602654,1.929030608835431,2.8716035431650564,1.0461361228584811,Relax
87.59827651757259,692.364705882353,168.3419031570673,,,,,,,236.72286388457343,238.14436458186415,0.24314050344685256,0.34190486873950726,664.0,94.8864,0.1429012048192771,135.0,0.7111349550043935,590.6,753.4000000000001,56.470588235294116,80.0,387.0,1292.0,14.166666666666666,226.5625,,,0.041051723245123434,0.14137843674816303,0.050059588395102605,0.23248974838838907,0.2903676415537734,0.17657433727591246,0.6081061110358349,-1.9563150353936616,168.39349509719761,170.28284323762648,0.9889046476761472,90083.67120371367,1.0112198404061767,5.6616161867477715,688.7735582506506,0.6,0.6190476190476191,0.8846153846153846,0.125,49.88164746725579,50.49928533621993,49.182603423739934,46.42857142857143,0.4133504476576999,0.5866495523423002,108.26423499158552,128.97786304876703,0.6508868626172153,0.34911313738278466,137.38004237496543,100.61297460140405,0.5334436052275713,0.4665563947724287,123.68189160354184,115.66818883074396,0.7890781136036658,1.8535116592282592,1.343231820043175,1.3032303220425348,0.2953688681939912,0.24000128407103238,-0.5215814655394698,0.0036249168226359044,0.3450267046776943,0.7007625166038745,1.4739999415389962,6.18874520081813,1.0681853760751465,1.4791268718540644,1.0044378727553533,1.0805630033034628,1.6821354085508062,1.9566447952302155,3.3161364463405487,1.0556643894815037,Relax
85.74273228482677,707.202380952381,181.79001389209824,,,,,,,243.95444469067857,245.4362760852027,0.2570551496832969,0.3449570466125242,666.0,114.16019999999999,0.17141171171171168,141.0,0.7451801672340852,600.0,777.8000000000001,53.57142857142857,80.95238095238095,387.0,1333.0,14.0,234.375,,,0.03742071714413233,0.09066568731475494,0.024852713297759222,0.1529391177566465,0.41273295612068317,0.2446772133449559,0.5928220892382828,-2.400576303088085,173.54965516902047,191.62038750158914,0.9056951477440321,104475.71256097654,1.1041242767954194,5.725985451828135,846.2908870778006,0.5833333333333334,0.6024096385542169,0.88,0.125,50.247855850184884,50.90859125348873,49.573207045277165,44.57831325301205,0.4270604171192128,0.5729395828807872,113.41500524460662,131.36518174771334,0.6122466168540951,0.38775338314590496,149.93565149171243,119.3217219034947,0.5287947741293474,0.47120522587065256,132.9354411037147,125.48801594898352,0.8300134850677238,1.7117985361182004,1.452682989535903,1.285027284961905,0.6411566915976081,0.5189810745258674,-0.5979412594628024,0.005674610433227065,0.37876929912249235,0.6788858776313478,1.452252328911688,6.169044952514907,1.0158290551772056,1.1324285070752185,1.4773081083615789,1.7125254103886294,1.6246574402119849,1.9329402909041113,2.9156480964701323,1.0653862371297935,Relax
87.07205636263168,696.1764705882352,161.99156183716045,,,,,,,225.71558167198782,227.06845232760875,0.23268749904788574,0.32422179031886716,667.0,96.369,0.14448125937031484,134.0,0.7176800141009682,605.2,770.2,50.588235294117645,81.17647058823529,387.0,1292.0,14.166666666666666,281.25,,,0.035878840162276944,0.12643950130380693,0.06532373106106687,0.22764207252715074,0.2837629047275962,0.15761076045377198,0.5554311639326978,-2.067991335775629,160.56164243438644,165.06184014745165,0.9727362925977008,83260.37395525473,1.0280278505179357,5.627408467105138,678.7526749172791,0.6,0.6190476190476191,0.8846153846153846,0.16666666666666666,50.40205303678358,51.03687918504569,49.657428802090365,45.23809523809524,0.42190236826314287,0.5780976317368574,104.29251032956957,122.08090345320929,0.6469340035387618,0.3530659964612382,132.7628820997288,98.07868376684297,0.5375262035559185,0.46247379644408154,119.37945923455564,110.73205316751829,0.8091919723492319,1.8055175144989595,1.9644156500849306,1.17249088340028,0.7607113358042215,0.9630556653471234,-0.9386137272694437,0.005013071017521891,0.37942984753297365,0.6051906823198139,1.1749852674526837,6.132805347851501,1.0026361831418094,1.1462013674392233,0.9507774735870642,1.5176941099394774,1.6465721833550275,1.9302330392636378,2.7903801005451148,1.0556643894815037,Relax
86.67841013295691,699.4761904761905,164.5191955102406,,,,,,,229.65036284888927,231.04412923981798,0.23520342472020236,0.32831762678376164,677.5,97.1103,0.14333623616236163,129.25,0.7163898783756539,604.4,764.2,48.80952380952381,77.38095238095238,387.0,1292.0,12.0,312.5,,,0.039961533086066196,0.17445862965511022,0.0462388152787996,0.260658978019976,0.2290602257112,0.15330963617529292,0.6692983720734925,-1.7460676447877472,163.37287053881636,165.31170168170303,0.9882716642369349,84846.39783321817,1.0118675220462996,5.635603518968294,669.0941677836878,0.6071428571428571,0.6219512195121951,0.8823529411764706,0.16666666666666666,50.3623497314349,51.0880588204338,49.56764370927939,45.1219512195122,0.423763313101204,0.5762366868987957,106.35206718781704,124.01799633373435,0.6555316153258607,0.34446838467413926,133.84446540154738,97.0238001434409,0.5410134099616625,0.4589865900383373,120.88238728977015,111.34199838539928,0.6356903204664355,1.926191202086451,1.2470388098833642,1.1846486554346352,0.19061351030141793,0.07447237246721494,-0.532390426444243,0.004253293657161309,0.3806431297339424,0.566392367096066,1.1265861407105158,6.055833345320539,0.9600372100388633,1.315039506444226,1.1589532508913236,1.7264797626872073,1.582652322272073,1.9501366791571608,2.5361461988127383,1.2175842710054783,Relax
84.97121215660344,712.1686746987951,157.5530742381141,,,,,,,218.9959070783588,220.33239411492977,0.22122999766136817,0.3075056722636404,696.0,80.0604,0.11502931034482759,108.0,0.7194338759113892,619.4,760.6,43.373493975903614,73.49397590361446,387.0,1292.0,11.857142857142858,312.5,,,0.04056832054206289,0.16275440236814598,0.024070982313391144,0.2273937052236,0.2492609720645127,0.1784056445281605,0.7157383807441234,-1.8155129483782186,155.79852999373378,159.92825406054226,0.9741776455256922,78277.76631703529,1.0265068230552277,5.600608534382266,656.6697759698261,0.6024096385542169,0.6172839506172839,0.9,0.17391304347826086,49.13372259978941,49.826492069663594,48.40446492596638,46.913580246913575,0.40658206733110336,0.5934179326688968,99.3480911234662,120.02335163738599,0.6568835801229911,0.343116419877009,129.61921863281333,93.67979829115933,0.534999868422996,0.46500013157700426,115.47983600797501,107.6603676989446,0.7484489238520147,1.8785926583008599,1.4054724592451202,1.2330907971262504,0.40663836780804097,0.40161020341241915,-0.5917610645166604,0.005364540574877663,0.4000785869689537,0.5657427008816169,1.0506989329722123,6.082694099943427,0.8761419084662591,1.0054164123301275,1.1708067219600757,1.2882849031839059,1.5537384753270038,1.970108334104812,3.195160003597975,1.2289232638741059,Relax
86.08548243316746,701.3571428571429,139.2744229502457,,,,,,,186.01331083346943,187.13584757639035,0.19857846229793663,0.26521910089302086,692.0,72.64739999999999,0.10498179190751444,96.75,0.7487336380724535,631.8,748.0,38.095238095238095,71.42857142857143,387.0,1292.0,12.0,296.875,,,0.048620481077488245,0.18090644098208283,0.03199808633724337,0.2615250083968145,0.268760364824731,0.18591140241439513,0.6917366797579515,-1.7097752820069831,132.32502682435776,146.41175799713605,0.9037868859340257,60865.026960507224,1.1064555323421652,5.491337928688013,647.9923985434937,0.6071428571428571,0.6219512195121951,0.8823529411764706,0.16666666666666666,49.164842760050675,50.004462736139786,48.20658927673295,45.1219512195122,0.3685127402651714,0.6314872597348287,80.33178151859461,105.15827211932474,0.7128489161820265,0.2871510838179736,123.61600446428933,78.45690740844125,0.5580309565608597,0.4419690434391404,104.24517178667418,92.77324106448657,0.780177252520954,2.078396932481375,1.3647368472798527,1.2698174066958343,-0.2700416776461232,-0.04932771456220397,-0.545669544205252,0.002909816793352981,0.3365681911926678,0.6049468186486151,0.9637930658591585,6.055833345320539,0.7967365252001808,0.802315912546886,0.9691692631703708,0.9867938119608333,1.4931914211397863,1.9638570794113026,2.920073661831249,1.141485254067636,Relax
86.81363035514745,693.7058823529412,109.55742390022074,,,,,,,137.39628122783418,138.21217485538634,0.15793065431219813,0.19806128897423733,687.0,57.8214,0.0841650655021834,76.0,0.7973827451599632,639.0,742.4,31.76470588235294,67.05882352941175,387.0,1287.0,10.625,296.875,,,0.04191929075910095,0.11909987121017915,0.021730892400679814,0.18275005436995992,0.35196755742182717,0.22938045574661975,0.6517090876978504,-2.1277928839801645,97.73076608278448,117.55924520472153,0.8313320310333135,36094.245239174124,1.2028888129776965,5.2644080747456155,565.6428036754457,0.5764705882352941,0.5903614457831325,0.8367346938775511,0.18181818181818182,51.0423148724331,51.74441188205661,50.31609029440182,49.39759036144578,0.4290030459157611,0.570996954084239,64.0163288657338,73.85458685823109,0.6096154162104804,0.3903845837895194,91.78775749240336,73.45191425429016,0.5357980532535732,0.46420194674642684,79.12990201854805,73.65352573916469,0.47046406780147176,2.163475360977715,1.1820744658483684,1.0855998290570164,-0.0342069996421106,-0.10267852118330062,-0.5445924361014,0.00527482739052788,0.46996681416158875,0.6920262419209524,1.2498432583920331,6.053336083120167,0.8326954803553966,1.0901787785092254,1.1436759463694146,1.3039901503015257,1.465337898998374,1.901671334817792,1.8466622391616276,0.980259790232825,Relax
86.29269946780674,697.6470588235294,103.19961077380837,,,,,,,130.37861532219665,131.1531335305504,0.14792524309905078,0.18688334405373888,690.0,59.303999999999995,0.08594782608695652,84.0,0.7915378646933589,643.0,745.6,28.235294117647058,64.70588235294117,387.0,1287.0,10.625,296.875,,,0.053182782049831234,0.1420877795998404,0.01903224625613623,0.21430280790580786,0.3742952574782228,0.24816651993289127,0.6630234152708442,-1.951310246170837,92.73927009331696,113.40655486675797,0.8177593455887702,33040.88744535013,1.222853649297056,5.226021813484306,554.7184778920871,0.5411764705882353,0.5542168674698795,0.8260869565217391,0.13636363636363635,51.075916681012224,51.4089747644912,50.57060180455204,46.98795180722892,0.42350658073046715,0.576493419269533,60.356221667495916,70.41888437847076,0.5714172775853116,0.4285827224146886,85.7264503209981,74.24299564341699,0.512138620524685,0.4878613794753152,74.13466725700756,72.35620802397285,0.9227274936788084,1.4169169877489116,1.340442579797653,1.0182651323648133,0.37057937333633006,0.6706085466077205,-0.7273791973831087,0.002274652921736159,0.17350737158970955,0.7381277678628444,1.2992829841302609,6.020925641918242,0.8523321541990038,0.8313604063740329,1.1719919485982386,1.3746806867420724,1.4540779277664415,1.887858632722179,1.977491066711525,1.0556643894815037,Relax
85.26248968959209,705.297619047619,93.85964653286743,,,,,,,119.84749345208263,120.57487678186081,0.13307807087114296,0.16992471010169535,698.0,50.4084,0.07221833810888252,71.25,0.7831590284397091,654.8,748.0,23.809523809523807,60.71428571428571,533.0,1287.0,9.333333333333334,164.0625,,,0.04934003335942553,0.14488212278983661,0.018268877347348157,0.2124910334966103,0.3405529433814087,0.23219818995427216,0.6818269947948077,-1.9318348134585726,85.25931301318617,102.6660406255997,0.8304529179625032,27499.102206547286,1.2041621847190045,5.14628862513361,494.5062551046888,0.5595238095238095,0.573170731707317,0.8297872340425532,0.19047619047619047,49.55947136563877,49.983508453763406,49.07221811916956,47.5609756097561,0.378455480957318,0.6215445190426819,52.45096432418174,67.21747558775354,0.6073535668466763,0.3926464331533239,80.01061464694212,64.33208718482419,0.5139249452486702,0.4860750547513299,67.64910241355037,65.79060140303501,0.7971029280138757,2.213302915299556,1.3726212734352405,1.2630823903514399,-0.49010656155763144,-0.19312842815036269,-0.5494911393856703,0.002394838814194684,0.3438466387745049,0.7677419074656133,1.3553321355159236,5.927798970294785,0.8782212403292217,1.1591686107322965,1.1634671019250133,1.2743527346491448,1.5053506735632358,1.843487572547595,2.018799011220425,1.0653862371297935,Relax
85.56886200912288,702.75,94.94511731102774,,,,,,,119.272998590507,119.9889565395446,0.13510511179086124,0.16972322816151833,694.5,50.4084,0.07258228941684665,70.5,0.7960319471550913,649.2,750.0,20.238095238095237,60.71428571428571,533.0,1287.0,10.5,148.4375,,,0.04490896043595764,0.09982206974587424,0.016649779332889966,0.16138080951472183,0.4498900949488055,0.27827943465521443,0.6185498142315865,-2.3043659803742877,84.84500483660992,104.68281788184072,0.8104959968920357,27903.04220826623,1.2338123862852437,5.152621666003691,516.6358293354299,0.5357142857142857,0.5487804878048781,0.8,0.19047619047619047,51.242362525458255,51.791016928172176,50.57224998889307,45.1219512195122,0.38223282930853136,0.6177671706914687,52.45939196062083,66.69168229850615,0.6119295168228042,0.3880704831771958,81.88910144071056,65.21247905819597,0.5208545532367893,0.47914544676321075,68.76704421321682,65.9562275782982,0.7578389401563653,2.1926476130785755,1.4262047936228905,1.1278272374256515,0.1816625530683993,0.6620437318362644,-0.6360809436124136,0.003748362571411704,0.41958180587508376,0.7081172428654097,1.2738163776932003,5.951608494104309,0.8600659436369655,1.1617608563140547,1.0289712317745243,1.3347676290005808,1.4832185239793187,1.8164715623543017,1.8496134280504481,0.8370891863162664,Relax
85.28456591189473,705.6746987951807,94.61205879334561,,,,,,,120.06598795418557,120.80485693796116,0.134073191167091,0.17014353519996933,698.0,50.4084,0.07221833810888252,70.5,0.7880005021026221,657.2,751.0,21.686746987951807,61.44578313253012,533.0,1287.0,10.375,148.4375,,,0.05290361327724877,0.058441716405666304,0.013589219412277705,0.12493454909519278,0.905237158163264,0.42345062803195715,0.46777866353955583,-2.8397253221396617,85.42193354110309,103.7735084542802,0.8231574205543766,27848.754082963926,1.2148344593996665,5.1517758801359035,504.27053617224885,0.5301204819277109,0.5432098765432098,0.7727272727272727,0.19047619047619047,50.03051881993896,50.483604698246154,49.49690405810044,48.148148148148145,0.3804173762096068,0.6195826237903933,52.68652930655397,67.23865731137883,0.6009888008516772,0.39901119914832295,80.44882206866099,65.55095792340104,0.5118986446095252,0.4881013553904748,67.99957111116747,66.40016988574853,0.5420930502480401,2.669796208688569,1.3605876194970847,1.14536589747878,-0.13859848618106163,0.32069102030561447,-0.5806135394596368,0.005581396707176232,0.6339805718152384,0.65813654748727,1.2431935174792175,5.914019401148247,0.8590134361777844,1.083866544751514,1.025406212817752,1.2513104754186455,1.472397892911089,1.8780263707054836,1.8720307083151075,0.998500151897711,Relax
85.72928794537583,700.6904761904761,65.56611235178686,,,,,,,77.64779921473348,78.11708437713159,0.09357357432379788,0.11081611903288614,703.0,46.701899999999995,0.06643229018492176,60.75,0.844404001335119,663.6,737.8,16.666666666666664,58.333333333333336,533.0,975.0,10.5,203.125,,,0.052804003129126684,0.07426130528503443,0.024051804540783275,0.1511171129549444,0.7110567599970271,0.3494243775347284,0.49141559041811134,-2.600165253158561,55.23712008959146,75.04454255718272,0.7360577892456559,13022.669383589657,1.358588978488827,4.821670124895852,407.81875365569675,0.5119047619047619,0.524390243902439,0.7441860465116279,0.18181818181818182,50.76660988074958,51.151718189230145,50.347860934628244,47.5609756097561,0.3411840406696748,0.6588159593303251,32.26566550889207,44.83615157219538,0.5974403019739434,0.40255969802605657,58.005125737046896,47.61395547364437,0.5073878838973522,0.4926121161026479,46.934357258315195,46.245914650112965,0.9781390450990385,2.2662989950053056,1.5398173415182934,1.3978314313340414,-0.12310318629454642,0.40867974911592864,-0.5626510052279838,0.0018681602475222395,0.3678669260546931,0.6764964382807368,1.5902065505062126,5.8415476310348255,1.0409730064206364,1.0316904033310208,1.0951305303043657,1.3090709495477886,1.708536576690967,1.7603181215992323,2.222054219553959,0.9131882032541088,Relax
85.7609147800856,700.5238095238095,62.37555827124939,,,,,,,76.5527615517874,77.01636846068995,0.08904131083517348,0.10927931429457789,703.0,41.5128,0.05905092460881935,53.5,0.8148048092171406,667.6,735.2,14.285714285714285,57.14285714285714,533.0,975.0,8.4,203.125,,,0.060777313825451075,0.0710426125379719,0.021836057666480325,0.1536559840299033,0.855505050478907,0.39554147018200786,0.46234849222758645,-2.6444754053836075,54.45879640091562,69.49726484363539,0.7836106431446559,11890.103200736781,1.276143973730329,4.782155734077203,354.75406288378383,0.5,0.5121951219512195,0.7142857142857143,0.13636363636363635,49.3644694058528,49.78366685717044,48.92814910857761,47.5609756097561,0.32570254951100625,0.6742974504889939,31.080540535840104,44.72020059730742,0.6013539204225198,0.3986460795774801,53.89305290885144,43.87947890426844,0.496482458722072,0.503517541277928,43.9912556756241,44.301834106352494,0.8549597729672457,1.8480074675128981,1.399974706660383,1.1042140835948715,0.3352784813196159,0.6997839377007349,-0.6600429804883606,0.002455542495583479,0.288946101153055,0.7169601811318702,1.543298109929555,5.8415476310348255,1.0394599586782631,1.0698329215772637,1.2357786643284947,1.3604210639125567,1.6549644247841742,1.7834144356861088,2.4807384649330446,0.9892872201919511,Relax
85.70284235714466,700.8452380952381,61.78791827308103,,,,,,,77.08382231474125,77.54032441303906,0.0881620005595082,0.10998693880583421,703.0,37.065,0.05272403982930298,51.25,0.801567909032774,668.0,732.2,15.476190476190476,58.333333333333336,533.0,975.0,8.4,164.0625,,,0.053708797574999176,0.05359365198126437,0.015786809244127818,0.12308925880039136,1.0021484931419689,0.4363402468943002,0.43540478270467875,-2.9263246511045105,54.82928920786471,68.13565534029294,0.80470773978805,11736.454675690664,1.242687190088898,4.776507035892327,338.68522431877705,0.5,0.5121951219512195,0.7142857142857143,0.19047619047619047,51.63342006360221,52.01953871736753,51.202726406567756,46.34146341463415,0.3370013727267382,0.662998627273262,31.834365538962647,44.651564307669574,0.5989711036293236,0.40102889637067646,52.732379988006436,43.14815905055149,0.495987068459862,0.504012931540138,43.55531384611867,43.906296954842595,0.8257965271423443,2.2968840022220944,1.3949619564084883,1.1937701484357757,-0.24466779217305934,0.41762085767469714,-0.587593369006912,0.0019622655930555356,0.36168095456337734,0.794308313861197,1.6247053845648889,5.77476619681534,1.05099628414424,1.1302586934231402,1.2332778627079701,1.488580983484403,1.614064038499243,1.8017642125427245,2.1546393370918784,0.9131882032541088,Relax
85.82436871333135,699.9642857142857,61.83897597863388,,,,,,,77.30521577191392,77.7748545784673,0.08834590169915552,0.11044165730973977,703.0,37.065,0.05272403982930298,51.25,0.7999327776419047,667.6,732.2,16.666666666666664,58.333333333333336,533.0,975.0,9.333333333333334,203.125,,,0.0516889447681535,0.042819468141521155,0.00867612881466991,0.10318454172434456,1.2071365435301098,0.5009369029930809,0.41497948651952643,-3.1507624166936017,54.99512707823182,68.65891155387305,0.8009903715860689,11862.357186663492,1.2484544577232124,4.781141106868808,342.87009676742633,0.47619047619047616,0.4939759036144578,0.6829268292682927,0.15,49.739583333333336,50.108663319671685,49.351846635288254,48.19277108433735,0.32918897777491046,0.6708110222250897,31.55357426315579,45.042865762488525,0.5925822069226718,0.4074177930773281,52.85319160339773,43.8244939856365,0.48963898595142585,0.5103610140485743,43.52635932079526,44.43785564805446,0.8913746575470135,1.6057436102653702,1.324660868309335,1.1998955466554495,0.32854302894410203,0.32752050474561356,-0.5776994040993049,0.0013203885464450622,0.20436148391975387,0.7435550693096156,1.5668782980153044,5.814587363100415,1.049487617157255,1.097635399154376,1.273069170777976,1.6172702353940691,1.682999772584334,1.829071425336185,2.354485394658103,1.0653862371297935,Relax
86.81182707933321,691.5232558139535,54.17764391207134,,,,,,,54.67379197944628,54.992721698202125,0.07834536793459224,0.07906283920284475,696.0,44.477999999999994,0.0639051724137931,57.5,0.9909253035245579,655.0,728.0,13.953488372093023,56.97674418604651,533.0,890.0,10.75,148.4375,,,0.05915470658589951,0.03629193137581679,0.006101049046595749,0.10154768700831204,1.6299685451658654,0.5825313045392898,0.3573880651052757,-3.316159838566634,38.885726428703315,66.34631574884455,0.586102272444277,8105.0724333214785,1.7061868670626488,4.61572701036178,452.79685043468135,0.5,0.5176470588235293,0.7272727272727273,0.13636363636363635,48.814655172413794,49.032797998149206,48.59481141195522,49.411764705882355,0.3279978274901214,0.6720021725098786,22.27252738668147,31.880076626543506,0.5487001179746236,0.4512998820253766,49.14556564942702,44.57069654429057,0.49226154145676587,0.5077384585432342,38.153322916835286,38.748459815568935,1.080138755246278,1.586658175977452,1.3645337954397356,1.180488174857261,0.26960969166513493,0.8602600187191185,-0.6159957597477442,0.000514136297376657,0.14258437812870517,0.6683371920149188,2.10684051586795,5.8795258011130995,1.0989562902376184,1.1923072423558467,1.2939756003629703,1.9252997916132635,1.8368893045794412,1.7390809677148589,2.534668654346654,0.9714121140828752,Relax
87.78416380068305,685.1395348837209,65.7449909146648,,,,,,,85.2175762041942,85.72102821286705,0.09595854211773484,0.12437988448390587,687.5,48.1845,0.07008654545454546,65.5,0.7714956684185649,647.0,727.0,22.093023255813954,60.46511627906976,417.0,890.0,10.75,320.3125,,,0.05585527288536206,0.04357274951898724,0.011497424014280866,0.11092544641863017,1.2818854330278742,0.5035388604573697,0.3928111260832312,-3.133323335060369,60.61392033960165,71.10863980883184,0.8524128784147166,13540.809179710132,1.173140417422787,4.838614727913761,333.6816775507984,0.5348837209302325,0.5529411764705883,0.7659574468085106,0.25,49.337334333583385,49.81397757564112,48.880650064740614,48.23529411764706,0.3428645024162729,0.6571354975837272,35.493208605913004,49.13731973231945,0.6095739217649939,0.39042607823500614,55.518223507008905,44.431582394598415,0.49733121064915825,0.5026687893508418,46.59421100585916,46.843578559735256,0.7735024811957791,2.2751160649722224,1.3520112982758214,1.327195651692622,-0.3218676883211593,-0.15389601043242407,-0.5109074200500194,0.002181548402230928,0.3887446445809171,0.6465822744272498,1.4332513442076615,6.036616208140155,1.028506560643598,1.259322360835664,1.3044629738051288,1.5011373272570858,1.7179956813200357,1.842841678244059,2.438103620223193,1.1208601316340867,Relax
87.83817668241913,684.3678160919541,65.43985609783475,,,,,,,84.92910860460088,85.42697139580956,0.09562088479193186,0.12409863030904059,687.0,50.4084,0.07337467248908297,66.5,0.7705232890468564,648.0,727.8,21.839080459770116,63.2183908045977,417.0,890.0,7.909090909090909,289.0625,,,0.04827664940730718,0.06328344626610478,0.02397909469126399,0.13553919036467596,0.7628637859623744,0.3561822176849079,0.46690146293361384,-2.760131496416143,60.40599077020616,70.74478706873617,0.8538578356524734,13425.310177915211,1.1711551481352307,4.8348944383744135,331.41248631712426,0.5287356321839081,0.5465116279069767,0.7659574468085106,0.25,49.77941176470588,50.23683480678195,49.33450207957053,47.674418604651166,0.3458587102660911,0.654141289733909,35.52472212914467,48.855910594318054,0.6103843641837785,0.38961563581622166,55.27085002830283,44.15832916392644,0.49884527899849007,0.5011547210015102,46.458975156605014,46.56639364686552,0.8865187711093603,2.2862828951820546,1.3650712050175453,1.4811465884987616,-0.8115377403094666,-0.6967652363286998,-0.4492296496965336,0.0012872855268285697,0.3330070065898648,0.7262421530269387,1.8935421635379972,5.915652656987495,1.0450840819506455,0.9070358047315259,1.3049792684569492,1.5750225988719049,1.679031985904278,1.8325168991024998,2.6424749568587402,1.0367955050791056,Relax
87.04389507876034,691.7441860465116,70.86676580183435,,,,,,,105.41375063780538,106.0273206163715,0.1024464928384225,0.15238834350060956,696.0,49.6671,0.07136077586206896,71.5,0.6722725011970007,648.0,732.0,24.418604651162788,63.95348837209303,417.0,928.0,7.818181818181818,289.0625,,,0.05249403012278019,0.04579941854827707,0.004038778086341101,0.10233222675739836,1.1461724141201999,0.512976525442265,0.4475561609428761,-3.0834838833950515,74.97263739887651,66.52140827661154,1.127045252666973,15668.01924306361,0.8872758193459042,4.901984206227408,236.09134813069565,0.5581395348837209,0.5764705882352942,0.7755102040816326,0.3157894736842105,51.366673415671194,51.89550897066155,50.83424828370813,44.70588235294118,0.3823922077234588,0.617607792276541,46.36674454822119,58.92620485868421,0.6953410466697765,0.3046589533302237,55.47028129936973,36.71710298583527,0.5202235941412942,0.479776405858706,51.121556644096856,49.094008141116625,0.5354539585198882,2.7266743367120885,1.1694581332230924,1.1492216169227136,-0.772557738503906,-0.1413802834178829,-0.5074216843676245,0.002251060839095892,0.4956891625947984,0.7449975404266036,1.8718021769015916,5.920337138372714,1.0091641120249624,1.217194817245764,1.2232422261736589,1.620145405696434,1.6583111029666249,1.944221070808575,2.5945751943518935,1.1208601316340867,Relax
87.24850979141266,689.1627906976744,69.15079183164798,,,,,,,104.24992594157335,104.83205456283659,0.10034028645342725,0.15127039263979397,689.0,48.925799999999995,0.0710098693759071,64.25,0.6633174192411743,654.0,727.0,23.25581395348837,63.95348837209303,417.0,928.0,7.818181818181818,289.0625,,,0.02353173711704075,0.060066878444417056,0.03462502985263164,0.11822364541408945,0.3917589481333854,0.1990442523965373,0.5080783817317354,-2.8122966967705088,74.12745666709988,60.69230612201981,1.2213649703484517,14133.919451966694,0.8187560837893549,4.857232721939358,198.76877950643853,0.5581395348837209,0.5764705882352942,0.7551020408163265,0.23809523809523808,47.57462686567165,48.337956821768444,46.81807763138441,49.411764705882355,0.3615942687901068,0.6384057312098932,44.59039774916312,59.24871909405058,0.6488510389713243,0.35114896102867577,48.88843577216533,35.96493945719676,0.47683008414643335,0.5231699158535665,46.78879525953679,49.00962958667175,0.505906571126833,3.013969470038405,1.1981911079105663,1.2198935001316378,-1.1327120262763906,-0.4454762769101579,-0.49279939878727613,0.0026327447084225444,0.5976050088529876,0.7326206647116527,1.7635885922613588,5.879525801113099,0.9842144496517354,1.1322823720857311,1.1660189510654981,1.449600662097066,1.6458133721467632,1.9107245708941314,2.0952068452729113,1.1208601316340867,Relax
86.94717465328546,691.8588235294118,72.77822688224308,,,,,,,110.72085233982415,111.3761072373203,0.10519230861431542,0.16003388057551782,690.0,50.4084,0.07305565217391305,70.0,0.657312740502325,654.0,728.6,23.52941176470588,64.70588235294117,417.0,954.0,9.444444444444445,289.0625,,,0.017377331681732517,0.07024483266384263,0.051853894695768454,0.13947605904134358,0.2473823486047994,0.12459006801003401,0.5036336210433119,-2.6557685298602673,78.7548006896693,63.63441903336815,1.2376132584532977,15744.141811172589,0.8080068576913487,4.904089102858785,205.66818785666538,0.5529411764705883,0.5714285714285714,0.7291666666666666,0.25,48.76530817104999,49.087724279864254,48.43227945587274,47.61904761904761,0.35928488538647174,0.6407151146135281,47.21005355458206,63.04454344216734,0.6699650851283819,0.33003491487161796,52.085659631680514,36.557124428037454,0.4819885901762757,0.5180114098237243,49.707670916538525,51.531727141045536,0.4277186731035902,2.930170615378211,1.1015576796075979,1.087794940153345,-1.2718147581761894,-0.5741782413572458,-0.5046969071978344,0.002566896815679787,0.5375343237937931,0.7417657030797931,1.7004096906398272,5.879749171330008,0.9687801454131775,1.26803754260077,1.2651267626039049,1.6112504381977484,1.68807678845463,1.9187913442542017,2.604438559311,1.0556643894815037,Relax
87.68823403063875,686.6470588235294,72.4366235116623,,,,,,,113.50246483583307,114.18091149914038,0.1054932407862811,0.1652995718503523,685.0,45.9606,0.06709576642335767,63.0,0.6381942772470421,654.0,726.0,23.52941176470588,61.1764705882353,417.0,957.0,7.7272727272727275,234.375,,,0.019632795725778234,0.0654768842044374,0.0422002056909428,0.12730988562115844,0.2998431578460435,0.15421265701392897,0.5143110755694166,-2.7260581115386997,80.73809680310319,63.796936081259275,1.2655481871459415,16181.851160274753,0.7901714135873367,4.915998312201326,201.64206066347842,0.5882352941176471,0.6071428571428572,0.7843137254901961,0.3684210526315789,49.282868525896426,49.89910173781515,48.69366118716561,48.80952380952381,0.3710241406969051,0.6289758593030949,49.180390842016436,64.0335943456189,0.7232190110977301,0.27678098890227,54.254371726963925,33.563554666761675,0.5063950092871448,0.4936049907128551,51.7795697880017,51.12148964324091,0.43546908493524766,3.4247838521211755,1.2166917029131803,1.5115873753563014,-1.0381367003338777,-0.7607432771762304,-0.4138936396641574,0.006825514257266889,0.9937698643444607,0.7722647673013419,1.6436292771823795,5.762102112506481,0.9270862258509162,1.1699422057746618,1.298555505136639,1.4570133873476816,1.6103042472560072,1.909550610858145,2.6968289607679425,1.0556643894815037,Relax
87.65472905339355,687.9767441860465,77.11259555987496,,,,,,,122.42587192929058,123.14629090470177,0.11208604972702645,0.17795059638844926,686.5,48.1845,0.07018863801893664,66.75,0.6298717284563252,652.0,731.0,27.906976744186046,62.7906976744186,417.0,957.0,8.6,234.375,,,0.029802189009727257,0.06808912580637858,0.04427734666492635,0.1421686614810322,0.4376938117031221,0.20962558625272978,0.478932031131649,-2.686937758365706,87.07757737668588,64.77443948969749,1.3443200444912495,17719.84318274943,0.7438704824032021,4.955429984106054,192.73517420239318,0.6162790697674418,0.6309523809523809,0.8113207547169812,0.3684210526315789,50.895933838731914,51.31649350082248,50.47883504621375,47.61904761904761,0.40231619136130026,0.5976838086386999,55.234672513006245,67.32304848373145,0.7122858756134322,0.28771412438656774,54.6677034481657,34.74435509414288,0.5127287561159393,0.4872712438840608,54.951919201769634,53.570341925596985,0.42964130523306704,3.440338318856405,1.2573532935709737,1.5985183849629898,-1.5112935800553426,-1.4095164208972881,-0.40083385418169504,0.006017610921644036,0.9570764094857649,0.7106033199178818,1.5305439699644374,5.838714463853481,0.973736253469884,1.0562167033215297,1.273527789234086,1.5638230695054203,1.6028930019747618,1.9102427002573905,2.9490895150521257,0.8966881053072696,Relax
88.27350571482226,682.3139534883721,75.98951346041605,,,,,,,120.59109322294861,121.30676441335402,0.11137030551979038,0.17673842460119601,682.5,46.701899999999995,0.0684276923076923,62.75,0.6301420065902111,643.0,722.0,30.23255813953488,65.11627906976744,417.0,957.0,7.818181818181818,242.1875,,,0.02974491258052596,0.0760677951552689,0.04708251106319576,0.15289521879899062,0.39103161225865574,0.19454442600740324,0.49751585270481385,-2.5761302948116915,85.77683572048157,65.78569314804844,1.3038828294693765,17727.65735167893,0.7669400788159443,4.955621458847604,201.81473875170317,0.6395348837209303,0.6506024096385542,0.8333333333333334,0.47058823529411764,50.03477051460362,50.58491909745491,49.48889238171362,45.78313253012048,0.380147691750102,0.6198523082498981,52.8866712887094,67.53270812477955,0.7442932488840215,0.2557067511159784,56.754917255896665,33.266150817993804,0.5150108876289161,0.4849891123710841,54.85490239132541,53.23205545962026,0.49205641557489593,4.972195374182011,1.4520175383187703,2.2789704668236537,-2.3108656078925183,-1.8043019655458579,-0.33368454650860785,0.02460759713315759,2.3627362217808248,0.70959728647939,1.5830046553659447,5.838714463853483,1.0014230311999506,1.2365313427936568,1.2176885531890946,1.5518948121384657,1.633611044363036,1.891857952272361,3.201986560138396,1.1208601316340867,Relax
88.29432008623283,681.9540229885057,89.19092508404822,,,,,,,143.49588763250972,144.3174017528739,0.13078729955018026,0.21041871269220203,675.0,44.477999999999994,0.06589333333333333,58.5,0.6215573599744162,636.6,721.8,35.63218390804598,65.51724137931035,417.0,1050.0,6.214285714285714,234.375,,,0.020779877566816034,0.054999054349957804,0.048415086147936805,0.12419401806471064,0.3778224519024294,0.16731786192784895,0.44284785376136904,-2.9004392875346094,102.04781342268046,73.68443455732583,1.384930399965113,23622.68894633095,0.7220579460348263,5.080299441346261,212.81772588480104,0.6896551724137931,0.6987951807228915,0.8620689655172413,0.5625,48.55337078651685,48.9638720892999,48.17770064667683,49.39759036144578,0.4140703353000174,0.5859296646999828,65.67518109426655,78.12444823334565,0.6597930713904329,0.3402069286095672,59.852132744273305,42.978111894250524,0.49826328038963996,0.50173671961036,62.8311515325114,63.04977206048973,0.3548346641833123,3.2637756560077196,1.1406939937339242,1.5322927350383806,-1.2678288344123736,-1.3622673308374957,-0.3800166486370992,0.0068623474869347854,0.9375830177104107,0.711649260875709,1.514772685893022,5.833523380806728,0.9720441584751256,1.1636159525010203,1.3644452842281176,1.6526191259619345,1.5139837101288172,1.937665432468362,2.943517802223743,1.0367955050791056,Relax
89.40489946092721,673.0454545454545,100.36564291604937,,,,,,,146.91040353448992,147.69536149635198,0.1491216413961698,0.21827709041391088,665.5,48.1845,0.07240345604808415,65.75,0.6831758711525606,628.0,720.4000000000001,39.77272727272727,69.31818181818183,313.0,1049.0,6.285714285714286,335.9375,,,0.03289471462729,0.0780974297056949,0.055815247678906055,0.16680739201189096,0.4212009889602206,0.1972017800322967,0.46818926166130387,-2.5497981329764534,104.43639166386897,89.12011153271962,1.171861096981753,29240.00565846312,0.853343457322375,5.172947562291358,304.20025636914653,0.6704545454545454,0.6746987951807228,0.8571428571428571,0.4444444444444444,47.528957528957534,47.180581054714175,47.73193363122563,46.98795180722892,0.39957298641097694,0.6004270135890231,66.04592306485218,80.96141056083447,0.5298454507186834,0.47015454928131656,64.87096019685909,61.10771475633748,0.45443612077586076,0.5455638792241392,65.46107786444875,71.72483113518604,0.7416679410580511,3.8963353135652667,0.8378094832623515,2.588546050741212,-1.8687999609872428,-2.6662208667882985,-0.05067096987684999,0.03214645596341046,2.0247025342514893,0.7135704972611925,1.4092838793445892,5.888242271972634,0.9950969824116361,1.0967669406839735,1.4589520639113163,1.7090146644868474,1.4551972726271176,1.9435277438455252,3.061934091564527,1.1744421124795086,Relax
88.9669015542544,676.7159090909091,96.67720301638903,,,,,,,146.3444213325961,147.17776249052977,0.1428623174328262,0.21625680638895162,671.0,48.925799999999995,0.07291475409836065,64.5,0.6606142013208096,628.4,724.4000000000001,39.77272727272727,69.31818181818183,417.0,1049.0,6.769230769230769,234.375,,,0.04754226555385366,0.10632820878558233,0.05976596384081213,0.2136364381802481,0.4471274941697334,0.22253818664464706,0.49770633554502397,-2.241224659265771,104.07039389691668,86.4683572045155,1.2035662207710127,28270.551385568204,0.8308641292370214,5.158304388963317,287.3738252611419,0.6590909090909091,0.6666666666666666,0.8392857142857143,0.5,48.84312229849988,48.970931279569854,48.72588886929354,48.80952380952381,0.4184801626403729,0.581519837359627,67.33006170576651,79.36953606903566,0.5642759606025619,0.4357240393974381,64.95356348733759,57.077240542479736,0.4780161667541796,0.5219838332458203,66.15248528591319,69.12790552214801,0.529315875651923,2.99541703653012,0.45526908648866193,1.8139888675211444,-1.2209552871914457,-1.7948842343997686,-0.04640046295309238,0.009152494099641008,0.9250469944342553,0.6771512237788073,1.4116121691041803,6.001878635608997,1.014767483480164,1.0839612596607733,1.2764008333726524,1.4978858833296342,1.5099842454348218,1.9436841065799597,2.9399334375767263,1.1010394804495394,Relax
88.84085739001273,679.264367816092,97.91114383805906,,,,,,,151.4162981611861,152.30414033371088,0.14414291176917454,0.2229121757821712,677.0,44.477999999999994,0.06569867060561299,57.5,0.6466354350694166,629.8,725.2,41.37931034482759,70.11494252873564,403.0,1049.0,6.6923076923076925,250.0,,,0.04941534182696751,0.10274571928009785,0.04165972173258488,0.1938207828396502,0.4809479380085415,0.2549537830927517,0.5301068222652902,-2.275498087981221,107.69529043275452,88.29542075866327,1.2197154677717281,29873.407629557725,0.8198633422488922,5.182254874926277,289.5607150738796,0.6666666666666666,0.6746987951807228,0.8392857142857143,0.5333333333333333,50.141121610013506,50.5888835716363,49.74535754385334,46.98795180722892,0.4292014101443771,0.5707985898556229,70.5550265020564,81.36522598751876,0.5992268997892098,0.4007731002107901,68.34926220561879,55.896866485492325,0.4975475831161849,0.502452416883815,69.46090054396902,69.80243435187971,0.6003008156099914,2.9167051429081026,0.5675048655940715,1.8729640747801262,-1.1084743746564225,-1.7370957500885895,-0.05241988983348324,0.009866034735196628,0.9203261023674045,0.6423737149101183,1.2947271675944,5.971454415289488,1.0011163181999527,1.1680640869374823,1.2873607306158859,1.5418540999858266,1.4847093248387087,1.9606396625934077,3.2443562251101703,1.3330227922445645,Relax
88.46734085261782,682.1046511627907,97.1085540631196,,,,,,,150.27981743870922,151.17071341313942,0.14236606347365857,0.22031783126317303,682.0,50.4084,0.07391260997067449,58.5,0.6461849349978401,639.0,724.0,39.53488372093023,69.76744186046511,403.0,1049.0,6.615384615384615,250.0,,,0.049009991631032465,0.08130827032327707,0.046236341829136926,0.17655460378344645,0.6027676082171164,0.2775911280747219,0.4605276134459001,-2.509507541608542,106.89383657123905,87.42524057202033,1.2226885035927424,29358.872543816975,0.8178697984495679,5.174709483501442,286.009855544173,0.6627906976744186,0.6707317073170731,0.8363636363636363,0.4666666666666667,49.70685699719603,50.14651538358692,49.33404711976531,48.78048780487805,0.432906760739763,0.567093239260237,70.33195101327229,80.49755985653938,0.5918687926283279,0.4081312073716721,67.25886849578279,55.85174390959181,0.49661934107378025,0.5033806589262197,68.81256689248823,69.27941411631512,0.4661784072350395,2.7766878980847256,1.1884698694164055,1.5744150302195155,-0.6570957968033255,-1.1206849777705101,-0.3610052065738741,0.00835328890530029,0.8217316021936242,0.7144067084307668,1.3156767939059375,5.981326818580116,1.0023701377489223,1.293295582672953,1.246495996662064,1.2375463019590858,1.4810669965318788,1.9201203283822743,3.305079207501693,1.1208601316340867,Relax
88.22251048704767,684.3488372093024,111.29587143570066,,,,,,,165.1828576777513,166.16190511511533,0.16263032153244056,0.2413723070698102,684.5,55.5975,0.0812235208181154,75.0,0.6737737377859353,637.0,732.0,43.02325581395349,72.09302325581395,307.0,1049.0,7.818181818181818,343.75,,,0.0481859143133292,0.0906732576070928,0.038172762361550455,0.17703193428197245,0.5314236588049961,0.27218769601522724,0.5121858831563716,-2.400492809800468,117.49420988177373,97.33558859288152,1.207104324125559,35928.40992847673,0.8284288110096963,5.262408107167301,322.5424237077192,0.6627906976744186,0.6707317073170731,0.8545454545454545,0.4375,50.31189747079505,50.70602979870984,49.99713677211574,47.5609756097561,0.4352212799185256,0.5647787200814742,77.5130557359456,88.29964541804446,0.5980623961241025,0.4019376038758977,75.27398491396488,61.709351008537396,0.5014943571695859,0.49850564283041415,76.40172319506813,76.17372047775812,0.6217055942103995,4.364075584393639,1.5248277538044062,2.5712342221181332,-1.9172390177390035,-2.463831498270082,-0.26022265240873027,0.035606278562926724,2.4299975722282965,0.6526525451306373,1.3113313226464354,5.998882341886242,0.9779199577784526,1.2489486761185729,1.2697131879023746,1.2818445326332484,1.4602419300719383,1.949199616080453,2.4825585860284773,1.2703081491852986,Relax
88.38302077836593,685.0930232558139,117.39903075128274,,,,,,,162.7943849299044,163.7272420946544,0.1713621753048358,0.2376237669977219,683.5,57.8214,0.08459604974396488,76.75,0.721149140382404,628.0,732.0,45.348837209302324,74.4186046511628,307.0,1049.0,7.818181818181818,343.75,,,0.048231874157408546,0.11752085519605485,0.057029188500982486,0.22278191785444587,0.41041119107706836,0.21649815488580518,0.5275152325101935,-2.1411394701173387,115.77264315010169,116.41180946859946,0.994509437475326,42340.19570565289,1.0055208752353444,5.333722971053986,468.2180181783852,0.6511627906976745,0.6585365853658536,0.8518518518518519,0.4375,48.44879350606028,48.47858083478569,48.42833145835404,48.78048780487805,0.426389383980173,0.5736106160198271,75.6131681023629,87.70065428435959,0.5538031307901372,0.4461968692098627,86.63128236544101,77.76072465887088,0.49043405259906236,0.5095659474009376,81.30907167947794,82.87983790216258,0.5308351512067744,2.7292951451523173,1.1382841754360853,1.6654439749589738,-1.0585542174404026,-1.6035799457073456,-0.3068513035465542,0.007213892205862121,0.7516397599136903,0.6132446140136905,1.2156688440891275,6.0221381558397304,1.0106183547197933,1.1474150917097332,1.4399336079443683,1.3847927920540717,1.428775511919635,1.9379076660384629,3.4889647936717854,1.2703081491852986,Relax
88.36370209288988,687.1511627906976,131.14002551757284,,,,,,,196.96903309911434,198.1364594985816,0.1908459631865854,0.2866458557665426,685.5,67.4583,0.09840743982494529,88.75,0.6657900658505213,624.0,747.0,52.32558139534884,77.90697674418605,307.0,1049.0,8.6,343.75,,,0.03956112902012727,0.09815531491237764,0.05094126613127172,0.18865771006377663,0.4030462237877096,0.20969791802706308,0.5202825523494151,-2.3212042088100575,140.10363411174075,122.96281804614247,1.139398367229727,54121.90578001148,0.8776561637799668,5.440343190850611,431.6763006958059,0.686046511627907,0.6951219512195121,0.8771929824561403,0.5,49.70307719992801,50.121136554245496,49.3636014181692,47.5609756097561,0.4533685009800687,0.5466314990199312,94.33621483063347,103.58577076395147,0.5730598003979576,0.42694019960204255,93.08373043471546,80.3447182471005,0.5054478488207359,0.49455215117926415,93.71206512561284,92.69650925188033,0.5396424923458818,4.266657080435745,1.414338002836554,2.3449103293103852,-1.5085343180709287,-1.7278255742350257,-0.2818966209539404,0.042116661508724305,2.447033293815382,0.6154483500985259,1.3198492617117379,6.068649783746708,1.0705644468178086,1.1004518605880214,1.2404772823231163,1.3956049139670808,1.4477499910832643,1.983668543498779,4.184924370351716,1.1955841404096927,Relax
88.68519151943879,683.2068965517242,128.65495027768767,,,,,,,188.47752934970111,189.55988373388456,0.1883103799552285,0.27587181906532743,683.0,63.751799999999996,0.09334084919472913,84.5,0.6826010014115865,624.8,742.8,50.57471264367817,79.3103448275862,307.0,1049.0,8.7,343.75,,,0.04342490525216941,0.10359562684319785,0.07363838716297055,0.2206589192583378,0.4191770113800003,0.19679651018923658,0.46948307003132117,-2.267260161985948,134.0390792291633,121.27618168256309,1.105238286442813,51068.93763197,0.904782264843973,5.415126933445447,438.9141533375143,0.632183908045977,0.646341463414634,0.8301886792452831,0.35294117647058826,48.8076161749458,48.88696381384732,48.781590401258946,46.34146341463415,0.45926786675810016,0.5407321332419,90.84841932646735,98.57696306469795,0.5360954537257381,0.46390454627426186,88.79664907832147,82.60186048730063,0.4938460829365325,0.5061539170634677,89.82839245376768,90.9408736570699,0.6370856308349235,2.871779539215235,1.2879486464438479,1.8238098175851643,-0.9018319572764408,-1.4028373520235182,-0.31340448881123034,0.01000309015030816,0.9036345102441096,0.5888937963508813,1.2992829841302607,6.0434620303066175,1.0353946371797884,1.0766306637853738,1.3861681511383084,1.5364064383673832,1.4486523291322266,1.9279266419153258,4.006373282417726,1.184909148661835,Relax
88.33375849867578,686.8488372093024,129.36628503792775,,,,,,,192.44103757041134,193.58243056375025,0.18834753446413155,0.28017960742615206,685.0,71.1648,0.10389021897810219,98.75,0.6722385550981793,620.0,762.0,54.65116279069767,82.55813953488372,307.0,1049.0,9.555555555555555,390.625,,,0.03502920180986998,0.1380181344685289,0.03898890462468102,0.2120362409030799,0.25380144388096615,0.16520384279912578,0.6509176633234877,-1.9803701932661255,136.88344937020176,122.55100235931043,1.1169508754311912,52700.857418648375,0.895294521895564,5.4287877910027715,438.87696426040384,0.6395348837209303,0.6506024096385542,0.8518518518518519,0.4375,49.800036357026,50.165279803039176,49.51424994750432,44.57831325301205,0.46438301419507655,0.5356169858049235,93.28045908773738,100.1796897484477,0.5620290789138536,0.43797092108614644,91.87476914602394,81.10348311655002,0.5078278325210049,0.4921721674789948,92.58028206171723,91.1420463116002,0.6342911574604492,1.2040481389886457,1.0408657086641764,0.9636651953650079,0.5350781478452129,0.09185295751598055,-0.5641174640774861,0.0019162279128857056,0.15708248786106757,0.5712631175943494,1.2878542883066382,5.998882341886243,1.0558458609695043,0.9704013200628708,1.2518344604113125,1.391283695578745,1.5686716788855715,1.9394637867642286,3.4623057511801787,1.1955841404096927,Relax
89.66435037074412,682.3678160919541,151.2736712164897,,,,,,,220.19072071359432,221.42291862390593,0.2216893406298993,0.3226862632160278,683.0,71.1648,0.10419443631039531,101.0,0.687012017246875,617.6,758.0,57.47126436781609,85.0574712643678,307.0,1147.0,9.666666666666666,390.625,,,0.03446093330522329,0.12533385461168803,0.049595730535275946,0.20939051845218726,0.2749531115275348,0.16457733406439884,0.598565090426036,-2.0767742651331926,156.56964726908095,138.6147847451043,1.1295306453564349,68181.57052555202,0.8853234784829055,5.5406371107080705,490.87569359877966,0.6436781609195402,0.6588235294117647,0.875,0.4117647058823529,51.713883236813274,51.266757128478865,52.39842764734517,45.88235294117647,0.5234064495085883,0.4765935504914116,113.30349664922603,108.11796389891485,0.5022068854322933,0.4977931145677066,98.23152498498064,97.79890617515474,0.5140941915166987,0.4859058084833011,106.03564224782167,103.08763302817601,0.5257999005106984,2.7639165632804077,1.1555211432456147,1.5542452036265695,-0.7779552733248281,-0.9786433829465291,-0.35573947286320345,0.007286945110939381,0.7471176178845707,0.5361440804426993,1.2383742310432684,6.075127403894706,1.0878076947367201,1.2212074597725808,1.3467824601188905,1.6927298259584271,1.521897776340114,1.9580719244939895,4.120252557271482,1.2589659704531997,Relax
90.60517066437087,674.5172413793103,149.2268338975676,,,,,,,212.9755144786411,214.22099287728477,0.22123501779200758,0.31574510096010383,683.0,71.1648,0.10419443631039531,103.5,0.7006760108685324,609.6,758.0,57.47126436781609,85.0574712643678,307.0,1049.0,10.875,390.625,,,0.02413893562272075,0.08862217317727399,0.043996635873268714,0.15675774467326345,0.272380316993974,0.153988791258987,0.5653447832002992,-2.4233731910867964,151.47711673604314,145.07697023091455,1.0441155236075146,69039.1411301971,0.9577484266730454,5.546065489935222,555.7889599406027,0.6206896551724138,0.6352941176470588,0.8518518518518519,0.3684210526315789,49.582846003898624,50.04311522182464,49.191530055498056,43.529411764705884,0.43278429731875495,0.5672157026812452,99.65295662801923,114.08500442781303,0.5571760632369321,0.4428239367630677,108.2915830610638,96.54149537639441,0.4922957828025354,0.5077042171974646,104.06194964197327,105.67792712956785,0.5453748987812914,2.1949172844540086,1.1208120215728186,1.2880872305747346,-0.10097611471374535,-0.2856149589557462,-0.42378974361053146,0.005335186505288747,0.49472824951555494,0.5405379247473872,1.313387590311803,6.121104415388959,1.0902024487474258,1.1821206816943128,1.2793863173988955,1.567433060067132,1.5434754751744364,1.9668648161400935,3.5338028296493462,1.3330227922445645,Relax
90.74791783580703,669.9545454545455,139.37577660963234,,,,,,,203.0066529683825,204.18293565062234,0.2080376609954482,0.3030155617955366,683.0,68.19959999999999,0.09985300146412883,88.25,0.6865576796211678,618.2,737.6000000000001,54.54545454545454,82.95454545454545,307.0,982.0,9.777777777777779,398.4375,,,0.014221750440681788,0.10226599784385645,0.025369671754383826,0.14185742003892207,0.139066265821765,0.10025383541290755,0.7209069346939855,-2.2801780381668975,144.3791384011315,135.82062354544192,1.0630133674274154,61605.578261156516,0.9407219425848677,5.496590148398204,511.07776329902464,0.6022727272727273,0.6162790697674418,0.8301886792452831,0.35,49.824238366253745,50.5032877504774,49.203831065021106,41.86046511627907,0.4185941499707983,0.5814058500292015,93.41190975309802,110.08936644676979,0.6093213741052474,0.39067862589475255,106.02027499496249,84.89371631790654,0.5081372875344893,0.49186271246551094,99.91517300622664,98.30211512199611,0.5636990821766238,2.015882784059145,1.1710995409413667,1.262445388711766,0.1722981807500794,-0.20881835281771954,-0.4546869250073822,0.005252252041388097,0.4605398340390374,0.5690431946715613,1.285198244248522,6.1639770731827515,1.0279963909596492,1.176682386857094,1.1901665332231255,1.4929823238727902,1.5245167805241808,1.9477173641529817,4.354333001170749,1.1744421124795086,Relax
90.86196825591503,669.3068181818181,143.98741627285378,,,,,,,214.11569007345582,215.34539186474453,0.21512916402674295,0.31990663214085324,682.0,70.42349999999999,0.10326026392961875,92.75,0.6724748486365318,610.2,750.4000000000001,56.81818181818182,82.95454545454545,307.0,982.0,12.571428571428571,398.4375,,,0.024610127956579707,0.09369710357948498,0.037242534206449726,0.1555497657425144,0.2626562296635187,0.15821385419067424,0.6023609430218253,-2.3676880018539026,152.27218688483524,135.74387755637093,1.121760993026006,64936.77384497298,0.8914554938324698,5.51946081839514,484.03850160699585,0.625,0.6395348837209301,0.8545454545454545,0.4,49.25545868374354,49.933210986623585,48.651770003115864,43.02325581395349,0.4101414018740092,0.5898585981259907,97.52381939217317,116.95474676428347,0.6113548647616899,0.38864513523831057,106.13703151966793,84.62464673032342,0.49923371704236014,0.5007662829576399,101.92145213016785,102.07777335181669,0.5800310498290476,1.0045106398637311,1.0308673475263883,0.8337885618765213,0.9555767354741165,0.45328516876250846,-0.6961938259574851,0.004096359757873661,0.1771230383040573,0.5742195099051308,1.3573068242466384,6.186704345910025,1.1131389192051182,1.272110644203525,1.304659259877772,1.5904991783036646,1.5504823654016517,1.9935946142064929,4.6530183890727645,1.1744421124795086,Relax
89.97616077541468,677.6551724137931,156.89871029649188,,,,,,,222.5824122264788,223.83900556068576,0.23153178295330065,0.3284596964465645,682.0,72.64739999999999,0.10652111436950146,95.0,0.7049016529520159,609.6,753.8,56.32183908045977,83.9080459770115,307.0,1285.0,12.428571428571429,398.4375,,,0.020209405451380114,0.08635787792251215,0.035544533551829446,0.14211181692572172,0.23401924569653926,0.14220777616222485,0.6076755599265137,-2.4492552460956114,158.27807872601423,140.92529771082167,1.1231346060435539,70074.43479993391,0.8903652283698053,5.552529713514917,501.89993951751404,0.6436781609195402,0.6588235294117647,0.875,0.4,51.535626535626534,51.4855507225277,52.0369351866795,42.35294117647059,0.4766756198288917,0.5233243801711084,109.30174101191295,114.52520914371544,0.631803332383109,0.36819666761689096,112.0159630546762,85.51235908228198,0.5452560441035751,0.4547439558964253,110.66717346915,101.06529346226849,0.4469279414044607,1.4274354721299902,1.4171922851720788,0.8378490876566225,0.7733217374922328,0.44658619710653724,-0.9058629681179018,0.004076987841328746,0.26673706078908205,0.5877665058466053,1.2312567632744047,6.1584045590422525,1.0551624039467822,1.0560338894879593,1.1129879629013082,1.3340520946003087,1.45619802834559,1.97817756716572,3.325698193800616,1.1108523268704704,Relax
90.91183818530459,671.2528735632184,159.4442541929153,,,,,,,238.4835082787282,239.87910686367147,0.23753232272442393,0.35528117296956035,665.0,88.95599999999999,0.13376842105263156,120.0,0.6685755981355509,604.2,753.8,58.620689655172406,81.60919540229885,307.0,1283.0,17.4,304.6875,,,0.016077458835293157,0.10056985492144731,0.02059539275550039,0.13724270651224085,0.15986359777341702,0.11714618025154719,0.732788338828609,-2.2969027190897067,169.6201431282746,150.35284651170514,1.1281472021553611,80119.63326308277,0.8864091477508149,5.61070906266291,533.0965541533985,0.632183908045977,0.6470588235294118,0.8727272727272727,0.38095238095238093,49.62459778333928,50.33240268855476,49.048691421914924,44.70588235294118,0.43580538669777574,0.5641946133022243,111.97715103065079,127.40825995940118,0.5847044277812184,0.41529557221878166,114.96875965444441,96.89253200165099,0.5013203249510817,0.4986796750489184,113.48281378566223,113.18354002144771,0.5569387871864094,1.9571709623882902,1.1062446436482232,1.2111779229760642,0.03836201816972107,-0.2620896742489798,-0.44638522574451367,0.0040436431792918335,0.3923576146760813,0.5684384041634978,1.2964380319980298,6.259035449871717,1.1545790140312193,1.4128676064421883,0.996852519340664,1.63475692482736,1.5357296447861182,2.0037894638669402,3.581641221824111,1.0367955050791056,Relax
89.12705106223223,695.8,277.93861946565863,,,,,,,441.35403130863205,443.9918023980538,0.39945188195696846,0.6343116287850418,664.0,90.4386,0.1362027108433735,137.0,0.6297407517533253,598.8,764.2,61.1764705882353,80.0,307.0,2578.0,14.166666666666666,304.6875,,,0.06354093035628974,0.158242260003168,0.018312806788119272,0.240095997147577,0.40154210610375296,0.26464802042173896,0.6590791261959401,-1.843628129086569,313.94961426690145,238.38754985164073,1.3169715216347766,235122.0699401749,0.7593178619069036,6.0782635064341335,724.0476986342929,0.6352941176470588,0.6506024096385542,0.8703703703703703,0.35,50.71608673726678,51.03919064142535,50.34302580252429,44.57831325301205,0.5021201341299119,0.4978798658700879,222.47259205769026,221.53124014785314,0.4933537402420562,0.5066462597579438,167.44137531042634,169.68208437669966,0.49891430369621276,0.5010856963037873,196.88914188283024,197.31713068036845,0.2889373474486642,2.5890189053797794,0.9611313125079054,1.0415547230657216,-0.5161416657322953,-0.39094202327654615,-0.4689367233314895,0.004231601872417718,0.566840067618764,0.6578334183048131,0.9599823913722033,6.291743877314172,0.9710194275540838,0.9649866207919459,1.1497406906573229,1.1434785743444051,1.0949527966629324,2.003749702562328,1.9998458029639798,1.1310689887301828,Relax
87.78023080608926,701.4880952380952,282.0042080369459,,,,,,,417.9154379213719,420.4429583456604,0.4020085443377761,0.5957555669986465,659.0,91.9212,0.13948588770864948,130.0,0.6747877260518985,586.8,758.4000000000001,61.904761904761905,80.95238095238095,317.0,2578.0,14.0,296.875,,,0.024338036060241947,0.05497841278846801,0.011353290829716048,0.09066973967842601,0.442683497500804,0.26842512338251423,0.6063590011778714,-2.9008146655510205,297.2980669483496,268.5823299650197,1.106915957528069,250853.05540582453,0.9034109529265163,6.10638950509159,970.56087461169,0.6904761904761905,0.7073170731707318,0.9137931034482759,0.47058823529411764,49.30211155989571,50.07186891911402,47.7312709315623,43.90243902439025,0.42430970821713926,0.5756902917828608,193.66316307369172,225.5796868557788,0.5982925577444015,0.4017074422555983,207.74674950064227,170.22854061923968,0.502492341145006,0.49750765885499393,200.82845000122606,199.82986659069178,0.4227081145093595,1.8546941386189812,0.9567584188545181,1.088209349865573,0.0854788910902009,-0.3498659493243881,-0.42912527824726165,0.004204148038122433,0.3746206194121074,0.6382591921249103,0.9595875376274794,6.273269803731139,0.9543105401237716,0.8454810483962875,1.16956769739412,1.1864936844825864,1.1201334403229763,2.0541879358123705,2.2230594851446925,0.9892872201919511,Relax
92.72229253083546,661.7471264367816,183.28876812482642,,,,,,,286.3922947839692,288.03609768647306,0.276977051810948,0.43278207542217256,651.0,84.5082,0.12981290322580646,111.0,0.6399919671829314,577.2,729.8,57.47126436781609,79.3103448275862,317.0,1407.0,14.5,296.875,,,0.029744803036494273,0.11282666332777472,0.04296744148922621,0.1855389078534952,0.26363274565766537,0.16031571695992355,0.6081024440268057,-2.181902590831545,203.6722779006159,158.30289262661466,1.286598586552761,101290.94991697144,0.7772431980353275,5.71254075397261,492.1593860934122,0.6551724137931034,0.6705882352941177,0.8947368421052632,0.5,51.2099533437014,51.30298371714592,51.356446663837595,42.35294117647059,0.5276482764457628,0.47235172355423727,147.9647811831864,139.99703778378776,0.4544019732199037,0.5455980267800963,106.71094231787141,116.92981058560474,0.5000679950561244,0.4999320049438755,128.9976776553677,128.9801364393384,0.4091927170288078,1.9465892281604815,0.9023168213391106,1.1867333687072315,-0.3727740910521291,-0.9822185570223804,-0.353889796956858,0.003995993119476179,0.38643610102354997,0.5941777324655737,1.0582609931445426,6.259035449871717,1.1070044781265287,0.919996781202686,1.1740838841917844,1.278638724198535,1.4851442192252962,1.9937478497402081,2.5262003321122752,1.1108523268704704,Relax
90.00383671797958,682.8604651162791,206.62117440553448,,,,,,,319.3000985611756,321.1949350075586,0.3025818376677445,0.46759201165175734,653.0,94.1451,0.14417320061255742,131.0,0.647106516210321,578.0,751.0,61.627906976744185,80.23255813953489,323.0,1407.0,14.333333333333334,289.0625,,,0.027055833510481752,0.1543023521289184,0.03739140977002922,0.21874959540942937,0.17534297525080378,0.12368403909429809,0.7053834858076592,-1.8688412758606512,227.1191166266171,186.52112661108634,1.2176589362993786,133085.76122468093,0.8212480278255322,5.831101702984624,612.7204295086043,0.6744186046511628,0.6904761904761905,0.9137931034482759,0.3888888888888889,50.06891228843928,49.20778153657178,51.02650494260389,46.42857142857143,0.5482577997354479,0.45174220026455225,168.16913255070662,152.65084265049035,0.42372229570977826,0.5762777042902217,121.41397792880748,141.59370266989967,0.49809637155367925,0.5019036284463209,146.66664784359477,147.22611248972908,0.46229996011782915,2.6000369305767403,1.1076028052966331,1.2766024830221,-0.5182401164506931,-0.37604112612457086,-0.43500104720128746,0.00561127397599729,0.6063003807297757,0.6171083954502907,1.2237754316221154,6.24021824307419,1.1737353199186857,1.14030411521072,1.4088187646464168,1.5321083040402133,1.5573040118084993,2.0050812119427373,3.717608134803456,1.0461361228584811,Relax
89.95246950473039,683.7906976744187,207.9238048380489,,,,,,,318.90040857332764,320.79267718683144,0.3040752170879197,0.46637137600425427,651.5,92.6625,0.1422294704528012,127.75,0.6520023156076926,578.0,751.0,60.46511627906976,81.3953488372093,323.0,1407.0,14.333333333333334,289.0625,,,0.03278528548221884,0.1495113640139552,0.02812703175463277,0.21042368125080682,0.2192828999885166,0.15580606368701255,0.7105253701732867,-1.900382875569001,226.8346773937956,189.81189641961055,1.1950498449914861,135264.16287613075,0.8367851802927302,5.838152859059632,635.3271278687554,0.686046511627907,0.7023809523809524,0.9152542372881356,0.3888888888888889,50.107728854759415,49.25104932892961,51.05571865646851,46.42857142857143,0.5476096634944358,0.45239033650556415,167.85931609535407,152.56909051623919,0.4424802261867248,0.5575197738132752,126.26133065185319,141.7273170720181,0.5043135065968581,0.4956864934031416,148.52385939298878,147.24802169364574,0.4463170760769708,1.7830145990084743,0.9422801177512583,0.9109185339623577,0.4530005175042646,0.46150151744075907,-0.5175890785225992,0.0036186821949900656,0.32196769244804024,0.5937059633190667,1.196250758232026,6.208184667467639,1.2090146724541309,1.3094855203878117,1.2377630238349717,1.5171243969778476,1.4969063259214457,1.998373528638706,3.5941614182203168,0.9714121140828752,Relax
89.28828671550175,687.2790697674419,207.69999015337655,,,,,,,315.6402457005164,317.5081992368592,0.30220619147278416,0.45926066947931526,655.5,91.17989999999999,0.13909977116704803,121.25,0.6580275898988022,578.0,752.0,58.139534883720934,79.06976744186046,319.0,1407.0,12.285714285714286,320.3125,,,0.03010949454531921,0.12456209374501005,0.043823389950905976,0.19849497824123524,0.24172277167206332,0.15168894856738638,0.6275327207201536,-2.0829509424694543,224.5122007627125,186.3288567483385,1.2049244796577354,131422.56495927816,0.8299275322915298,5.825640048975094,618.5577931034021,0.6976744186046512,0.7108433734939759,0.9322033898305084,0.3333333333333333,49.55933359868083,48.27711844701501,50.77516365502757,49.39759036144578,0.5481691148729194,0.45183088512708053,166.22811348952294,150.91595343104055,0.4190338180352339,0.580966181964766,120.61592625630608,142.021974322554,0.4955014911604901,0.50449850883951,145.2239432410379,146.53645653979112,0.42710725029110563,2.9387023323465153,1.0755728610574165,1.4224046730519906,-0.7939671250115392,-0.6854597631130511,-0.38197790290735795,0.0073450503134016775,0.7949407907092141,0.6641541560816426,1.3978551835209667,6.24021824307419,1.1869255146090947,1.243126147650287,1.4821988740798069,1.5625533204249702,1.5123670572625563,1.9924407797424704,2.949691103969565,1.1208601316340867,Relax
90.21677807532572,680.9310344827586,204.3179688567665,,,,,,,310.6781404874572,312.49322356537874,0.3000567730210274,0.45625492855300853,654.0,88.95599999999999,0.1360183486238532,112.0,0.6576515764391712,578.4,745.8,56.32183908045977,77.01149425287356,323.0,1407.0,12.428571428571429,343.75,,,0.038355627139524874,0.16598413802512443,0.06236593035023338,0.26670569551488266,0.23108007545708445,0.14381255362949144,0.6223494316635703,-1.7958630492566898,220.96607745792315,187.27414669182673,1.1799070045773,130002.97948609522,0.8475244202472114,5.820923415803565,634.8776504091267,0.6896551724137931,0.7058823529411764,0.9,0.4117647058823529,49.47910637805302,48.63475461747502,50.43703206472075,49.411764705882355,0.5368000763300107,0.46319992366998936,161.8980979432651,150.390257037365,0.4220995913000428,0.5779004086999573,121.67049998631596,142.36535903172418,0.4888532539965018,0.5111467460034982,143.20388382402058,146.4327915188337,0.4134194058614131,3.1627508801285487,1.0925279020245873,1.591028613885729,-0.9579097953709947,-1.0063991949945728,-0.3423838200494373,0.012474543581620095,1.050216786812171,0.6765757246560407,1.3758230612525952,6.213058438377464,1.1376813686994998,1.0482935494514936,1.3321794956864914,1.3628189099845978,1.4600453836534675,1.999135190311694,3.3380498940129666,1.0367955050791056,Relax
88.81962877611164,696.4235294117647,229.11487950633952,,,,,,,339.1397555721296,341.04841121084775,0.3289878498215903,0.48697343103640484,654.0,108.2298,0.16548899082568808,151.0,0.6755765897154173,576.6,752.8,58.82352941176471,77.64705882352942,323.0,1415.0,14.166666666666666,289.0625,,,0.02916285729098317,0.1159179335431416,0.026664610733901285,0.17174540156802606,0.25158192869379886,0.1698028420250434,0.6749405368925004,-2.154872807706059,241.15764428008856,204.3342243927227,1.1802117095009628,154807.50783811923,0.8473056079259179,5.896762129187208,692.5341368765872,0.6588235294117647,0.6785714285714286,0.8947368421052632,0.35294117647058826,52.07326785240245,50.91430610604098,53.49156195755976,47.61904761904761,0.5663757300370291,0.43362426996297093,181.55851391742448,158.86239025063352,0.5139593951610751,0.48604060483892497,146.48917000983266,142.45489927694973,0.5444803719489855,0.45551962805101465,164.95843553161092,150.88183681966242,0.3465048879306713,2.8691059244256434,1.040815135731271,1.4290055356472735,-0.3955361628864207,-0.5965863020823766,-0.36469987161811984,0.01436982526111918,0.9918065388549567,0.6429625294224639,1.3483494295557672,6.2446850537847585,1.1941603889489998,1.0333700798418592,1.4697240756105614,1.610797232305032,1.5197457377508814,1.993050197941544,3.5505620613202997,0.980259790232825,Relax
84.89662572338086,724.1604938271605,267.75018472403167,,,,,,,379.7057413313631,382.1008250531908,0.3697387347229924,0.5243392101171286,680.0,96.369,0.14171911764705883,139.0,0.7051517940845946,568.0,767.0,79.01234567901234,85.18518518518519,316.0,1798.0,16.2,343.75,,,0.049648173842409105,0.07784701456929845,0.021786527692850294,0.14928171610455784,0.6377659325421261,0.3325804066161405,0.5214772217300471,-2.553009729937151,270.18608449208585,268.6585469949127,1.005685795275302,228041.30197821325,0.9943463502199059,6.064983621860362,1068.558582639098,0.6172839506172839,0.6375,0.9411764705882353,0.13043478260869565,50.13078470824951,50.617484231860075,49.39915830517365,41.25,0.4538421496714615,0.5461578503285384,182.0187081774351,199.6745453247181,0.668974584200883,0.3310254157991172,219.73815350011301,154.57217980535333,0.5607983485298924,0.4392016514701075,201.76182273936453,178.55318930281166,0.5665186907156994,2.691140085044122,1.1799623143776146,1.4820926822252032,-0.7562831256236304,-0.8325291890705551,-0.38773146016193544,0.00508341294486419,0.63936697110696,0.7019481470560653,1.241268589069633,6.117627780662401,1.169156761464133,0.881366274359924,1.142617954847242,1.1585938735487677,1.4337258946478073,1.9699472334922112,2.945657450783937,1.017506790586421,Stress
86.79469571537625,707.2048192771084,255.97159517701752,,,,,,,360.9008883606581,363.11955227473436,0.36194831850646453,0.5103201767340391,666.0,88.95599999999999,0.13356756756756755,114.5,0.709257315324805,554.8000000000001,745.0,75.90361445783132,84.33734939759037,316.0,1798.0,13.833333333333334,335.9375,,,0.0480390468079898,0.10986451738511908,0.050659972252636916,0.2085635364457458,0.4372571595576552,0.2303329125821873,0.526767618431223,-2.208507332441726,256.7642977948877,258.1479733928144,0.9946399904684853,208234.7611318227,1.005388894055014,6.025523339015328,1038.156421887779,0.6265060240963856,0.646341463414634,0.9433962264150944,0.13043478260869565,50.28058361391695,50.784546824785124,49.48797536478058,41.46341463414634,0.4536992103800822,0.5463007896199179,172.9503247028314,189.78124183671687,0.6769709782093181,0.32302902179068205,212.39962486286828,146.72005835921019,0.5659343646562882,0.43406563534371184,193.6819757446495,169.62266251597464,0.41182189678626524,2.213839551828072,1.0787444980109415,1.0657102027930219,0.21529266284972604,0.13911546772532435,-0.5058876422219292,0.005340646188475684,0.5193421885424735,0.7465645162291432,1.250253556889942,6.158171961467409,1.0883547071379853,0.9767295309756608,1.0615535794767965,1.0921169366981012,1.3927583044159488,1.996466071686414,2.690264744808874,1.1521155598819743,Stress
89.53229728325744,683.3837209302326,208.2394079563035,,,,,,,320.59257633326445,322.48894407036505,0.3047181277201698,0.46912527547022753,662.5,89.6973,0.1353921509433962,119.5,0.6495453211612522,564.0,737.0,70.93023255813954,82.55813953488372,316.0,1589.0,14.333333333333334,335.9375,,,0.03971055633135959,0.08790675700053346,0.037332001286483375,0.16494931461837642,0.4517349710798523,0.24074399110559005,0.5329319324782456,-2.4314786057945716,228.03411920984436,187.65251015061412,1.215193545915368,134432.44060916235,0.822914179688743,5.835474193244278,617.6876458285045,0.6046511627906976,0.6235294117647059,0.9245283018867925,0.13043478260869565,49.50552646887726,49.89306174170886,48.9789786860599,40.0,0.4535603654925342,0.5464396345074656,153.57687697976263,168.5696478921285,0.6002154391405945,0.3997845608594056,145.38110296059529,118.64990294048754,0.5127730055552404,0.48722699444475964,149.5351501167808,145.76269354375847,0.48693467766079934,2.6638146051705247,1.12489617801436,1.2209440898579573,-0.38990601345840403,0.0014774114514631842,-0.4639434697680664,0.004423336337264108,0.5906683510215536,0.7115406395520409,1.301136552779584,6.106383650000621,1.1249602613400556,1.1352184365959597,1.1000419916556534,1.2305992157684058,1.445490186103006,1.9832835245585256,2.881558206670128,1.2703081491852986,Stress
90.87194655007913,673.5340909090909,202.35214263518216,,,,,,,314.26626824449653,316.0845439436652,0.3004334084441975,0.46659296461196365,655.0,99.3342,0.1516552671755725,126.25,0.6438875663160701,534.4,741.8000000000001,70.45454545454545,84.0909090909091,316.0,1589.0,17.6,335.9375,,,0.025372278804396436,0.05569565767808794,0.040024496195804574,0.12109243267828895,0.45555218956285926,0.2095281946461838,0.4599433378802191,-2.8878530941886225,223.50552445082297,180.56119894675473,1.2378380613031486,126783.44976933008,0.8078601161667611,5.810032674682813,583.4727646253398,0.6022727272727273,0.6206896551724138,0.9259259259259259,0.17391304347826086,50.371640937678684,51.17736482583071,49.43798189797178,37.93103448275862,0.4455289938580649,0.5544710061419351,149.18706066468178,166.43037513459453,0.6402289218153991,0.35977107818460075,144.4747908460824,108.30226855920554,0.5224162670903748,0.47758373290962525,146.84982849800457,140.40735583029854,0.3702474901991934,2.924525164281259,0.9752874331134694,1.2896701878362777,-1.0814206244558768,-0.8054983921667536,-0.3925012653122197,0.004745690701908861,0.6727586551380288,0.6736696426096791,1.2870877110364427,6.138242271972634,1.144697392526111,0.9970051920311453,0.9539696532714309,1.1159532457037447,1.457195188200873,2.0073951808228885,2.671097560260035,1.1744421124795086,Stress
93.05450975150099,661.5888888888888,201.8088368152621,,,,,,,296.13229658153074,297.6616864344332,0.30503661745920746,0.44760772370115326,652.5,111.93629999999999,0.17154988505747124,159.5,0.6814820238956961,496.4,745.8,73.33333333333333,85.55555555555556,307.0,1585.0,18.0,343.75,,,0.030827468799492826,0.0790344207700335,0.05545531439362548,0.1653172039631518,0.3900511764259212,0.18647465636041172,0.4780774104288008,-2.537871815457599,210.47859697721145,179.66817743734362,1.1714851231827765,118803.42882793718,0.8536173274510962,5.7817990851150745,613.4714778082985,0.6222222222222222,0.6404494382022472,0.9298245614035088,0.21739130434782608,52.30547550432277,52.22483439353391,52.40527823402292,39.325842696629216,0.483208273476975,0.5167917265230252,146.38333083194462,151.38478217022765,0.6775389788525787,0.32246102114742126,147.88982837497733,102.02574501995338,0.5650749405915216,0.4349250594084784,147.1385076759901,129.08641469884392,0.4371863699967612,2.384796510268245,0.8900016991831496,1.0450372054290336,-0.368080441363106,0.1671065997701502,-0.4349900481746153,0.0035089806513534834,0.43301478270232746,0.6364842823901911,1.3424917384614976,6.177801290702004,1.213577857469446,1.2186300616251076,1.0159433824663382,1.1198167946675328,1.4985404704713001,1.972917136144195,2.7167575993071855,1.2262389181956053,Stress
92.42692983372469,665.2359550561798,209.77233451746454,,,,,,,307.31187889356136,309.06848872216517,0.3153352324435757,0.4619592139568111,655.0,128.9862,0.1969254961832061,163.0,0.682604054463251,493.2,784.6000000000003,76.40449438202246,87.64044943820225,307.0,1585.0,14.833333333333334,343.75,,,0.027157658763807244,0.08293857716883155,0.053151438711750404,0.1632476746443892,0.3274430270068961,0.16635862546260563,0.5080536512970302,-2.489654979256413,218.54442422652096,201.96580338432818,1.0820862768071915,138665.1880130087,0.9241407283628108,5.8489375548024185,746.5792985758931,0.6292134831460674,0.6477272727272728,0.9298245614035088,0.22727272727272727,50.37796417106761,50.797853074744545,49.889038298757114,39.77272727272727,0.4666314994563682,0.5333685005436318,149.2908139385568,159.60986919619847,0.5745166920324819,0.4254833079675183,153.0837763344838,131.7404385898683,0.5163265403605527,0.4836734596394472,151.19918932200505,146.34010643818468,0.49707875623955267,1.9476104722942014,0.8504425197074408,1.2426126410055978,-0.44889808733887193,-0.8686713636820436,-0.29864037143105043,0.00413816778984056,0.37098477258160445,0.6136108334636514,1.4060969884160703,6.217086801655678,1.319812938064315,1.038031699654353,1.1160411200895033,1.2306761931964953,1.5651744363786124,1.9969191775935087,3.248228821446984,1.1641767965782288,Stress
94.17185544577055,652.9120879120879,210.33083191072785,,,,,,,310.34554218734246,312.0825661421792,0.32214265259406266,0.4753251592871861,643.0,127.50359999999999,0.19829486780715394,191.5,0.6777311200550773,485.0,745.0,80.21978021978022,90.10989010989012,307.0,1585.0,18.2,320.3125,,,0.019004941446811186,0.051958405537593025,0.04182801994775242,0.11279136693215663,0.3657722220336554,0.16849641921834807,0.4606594188085841,-2.957311773994049,220.67569880923412,200.96072932686505,1.0981035924203004,139320.67869174964,0.9106608947484882,5.850985691390854,732.0283103124467,0.6593406593406593,0.6777777777777777,0.9508196721311475,0.20833333333333334,50.221959159514654,50.76437971287084,49.64461918318965,41.11111111111111,0.4645660298476332,0.5354339701523667,150.41130874290275,161.47664804908646,0.5600083679501103,0.43999163204989,150.38636304914735,133.30099977282828,0.5078339750223372,0.4921660249776629,150.3988364132229,148.06056937213924,0.5457735139021335,2.0702149943431514,0.875026755692822,1.3474219487289212,-0.8058532070472282,-1.179821209950322,-0.27181346172889487,0.0040640330863736555,0.3910446764533883,0.5706151528338852,1.2256119794294174,6.3070840632042975,1.361063207584621,1.079695044883508,1.0825160361481407,1.1949414733778976,1.6070517731647138,1.9871487565158001,2.8375991902351543,1.215741855861295,Stress
93.23924412841,665.1910112359551,234.0983610484206,,,,,,,360.92238211157104,362.98605848883824,0.35192652500438215,0.5425845749793895,648.0,171.9816,0.2654037037037037,205.0,0.6486113708959572,480.6,817.0000000000001,79.7752808988764,91.01123595505618,307.0,1585.0,17.8,343.75,,,0.03638115246387182,0.0768166755171537,0.0606293572528701,0.17382718523389562,0.47361008816044975,0.20929495242598936,0.44191405051972704,-2.566333533268023,256.66990343363426,210.57750973096154,1.2188856433982973,169799.6557252183,0.8204215099391636,5.936906915323261,691.0492739708176,0.6629213483146067,0.6818181818181819,0.95,0.2608695652173913,50.356462826019566,50.643330692165335,50.08441463027996,42.04545454545455,0.4827215368815151,0.5172784631184848,178.3318294060551,184.6046879269259,0.5529621980003459,0.4470378019996541,156.588443364965,140.7939878298443,0.5109792047404528,0.4890207952595471,167.81266634967278,164.16735030697797,0.4745208550912694,2.1795356179871885,0.8915187376864664,1.162639246568572,-0.5365563908301922,-0.5683838790122293,-0.375606295834483,0.0030125888084420044,0.38234030906649413,0.6457709716124329,1.3862943611198906,6.225568683702457,1.3838099296775908,1.1267654293471443,1.2272366900836886,1.3117515945693365,1.6497991043793008,2.0000904386781375,3.72030777792179,1.236937846364368,Stress
93.12587051749588,663.9887640449438,234.6958134955089,,,,,,,361.38007252501046,363.45007788832896,0.35346353162027744,0.5442563068741169,632.0,160.1208,0.2533556962025317,221.0,0.6494431523455573,480.6,827.6,83.14606741573034,93.25842696629213,307.0,1585.0,22.25,171.875,,,0.03473842652793907,0.0957283749010196,0.07101338851464983,0.2014801899436085,0.3628853677277778,0.17241608982829465,0.4751254946097313,-2.3462405260269494,256.99801469761627,211.76827287768262,1.2135812943332562,170978.1193352044,0.8240074271657276,5.939910645734068,697.9945187570759,0.6629213483146067,0.6818181818181819,0.95,0.30434782608695654,50.15902060732801,50.64388036450788,49.740053919895274,40.909090909090914,0.47148435110515113,0.5285156488948486,176.46742723109898,186.83568907637448,0.5719694789848372,0.4280305210151627,160.15751515317928,138.5473627953842,0.5121207322156668,0.48787926778433327,168.50991444660468,164.47332070916468,0.6672554861408059,0.7281686155613949,1.0658709960729222,0.8188711666086732,0.8056119107034561,0.3988501307788379,-0.8392069146976624,0.0009319184827309688,0.051583479801593196,0.6122709265807269,1.3668762752627892,6.234050565749238,1.4167417731367313,1.0998099479149759,1.2354471430264145,1.3917472141397744,1.6804839453423284,2.0114894910891756,3.101221109458091,1.1641767965782288,Stress
94.80021384437565,647.2608695652174,206.319227186726,,,,,,,302.08080572392083,303.75110344644486,0.31875745451029075,0.466706423836245,631.0,133.434,0.21146434231378763,176.25,0.6829935013325087,484.2,807.0,78.26086956521739,91.30434782608695,307.0,1585.0,15.333333333333334,320.3125,,,0.055978800513872565,0.118577998805148,0.03427793771107067,0.20883473703009126,0.47208420683384206,0.26805310893180817,0.5678078297293134,-2.1321843171722916,214.7844650398776,198.49968859831083,1.0820393047291932,133940.70142563348,0.9241808459539042,5.833882678897359,733.7984405214938,0.6413043478260869,0.6593406593406593,0.9333333333333333,0.2,49.67939084260093,50.30774505661342,49.057293433870896,41.75824175824176,0.43891068961173685,0.561089310388263,142.2969703745578,160.88796999430653,0.6013496005234471,0.39865039947655284,153.93002616304136,125.33025739649531,0.5137385565969941,0.4862614434030058,148.22766397054966,144.20924434300431,0.5567785054265296,1.3515589877781653,1.3401196918727685,0.828700180880309,0.6115699178393039,0.6304464524608375,-0.8783922977961803,0.002116873238148758,0.16571570397996782,0.6281202271786186,1.3318061758358208,6.268020923401286,1.3905331506517753,1.078229794551694,1.2850707805700219,1.7369572347369953,1.5234923535630926,2.004151145103222,2.9426919402589817,1.2054407962279263,Stress
92.5448955794353,660.6741573033707,213.60061368234636,,,,,,,282.66557898947394,284.200237876372,0.32330705132191884,0.4278441586745439,645.0,154.19039999999998,0.2390548837209302,199.0,0.7556654561406663,494.2,827.6,75.28089887640449,91.01123595505618,307.0,1585.0,14.833333333333334,320.3125,,,0.06394492263975864,0.11527201780053747,0.022635829555824903,0.20185276999612103,0.5547306610907654,0.31678991891460023,0.5710697841934625,-2.1604605715294753,200.9599154172125,202.0557136755717,0.9945767519342776,127564.68112448821,1.005452820061574,5.812700557732716,812.6299484986301,0.6404494382022472,0.6590909090909092,0.9137931034482759,0.2608695652173913,48.34123222748815,50.20678605618739,45.71961463729132,39.77272727272727,0.36663805603180694,0.6333619439681931,121.71900936739219,159.97997360302003,0.5662468572871928,0.43375314271280724,152.04566350488113,133.07376765653353,0.4669552683967548,0.5330447316032453,137.7196446263547,147.14316088817728,0.7235499992830163,0.44145031025880654,0.9625852157140089,0.9442751544124196,0.5952039801008984,-0.4441414021255543,-0.5414770606704405,0.0009707918453909929,0.0408772056717721,0.5856478920076365,1.1848726329525168,6.24253244779602,1.3400388978412794,1.2442029319292458,1.3626663510045063,1.7379158757025557,1.590060757608782,1.9824270960925778,2.4700882628406546,1.236937846364368,Stress
94.72439474522739,645.5934065934066,188.70341091081872,,,,,,,250.5319673548002,251.93385276157485,0.2922945138280567,0.3880646313858418,637.0,139.3644,0.21878241758241757,189.0,0.753210909183415,490.0,795.0,73.62637362637363,90.10989010989012,307.0,1363.0,15.166666666666666,320.3125,,,0.04750129224699408,0.12330851760022803,0.02891159969411752,0.19972140954133963,0.3852231230367677,0.2378377578852504,0.617402600369215,-2.093065790903952,178.14413569816276,200.4666970576746,0.8886470337110927,112192.45155013796,1.1253061812673637,5.7569337479835205,902.3456533490131,0.6373626373626373,0.6555555555555556,0.9152542372881356,0.2608695652173913,50.23444647758464,50.663909273299666,49.882959998431325,41.11111111111111,0.45462867173520666,0.5453713282647933,120.11653985220941,131.55899689082972,0.5609568465683508,0.4390431534316492,150.14364723987453,132.82989807540167,0.5140397112918622,0.4859602887081377,135.9615716895022,132.19597476028332,0.7265931343432793,1.831140349320878,1.0566746566852898,1.5517044127046036,-0.5095590875947362,-1.2506429947519941,-0.22966039648304,0.004967426967462691,0.38353872805916495,0.5758669728587416,1.3581234841531942,6.309992442396498,1.449570062879163,1.0199672246274172,1.3198651456796429,1.7826548329541645,1.5365342245078186,1.9606628284733776,3.4801754885241634,1.215741855861295,Stress
93.96715745741213,650.989010989011,193.9200003727479,,,,,,,255.20584284499097,256.6347604080318,0.29788521326671263,0.3920278814803203,637.0,167.53379999999999,0.2630043956043956,238.5,0.7598572125581491,490.0,823.0,73.62637362637363,91.20879120879121,307.0,1363.0,15.166666666666666,320.3125,,,0.05144906001040448,0.09122512418480713,0.01743514282966592,0.1601093270248775,0.5639790624584641,0.321337057412092,0.5697677073530684,-2.3944249353581997,181.46817937270416,207.5469833847504,0.8743474678034641,118322.34826467498,1.1437100658759842,5.780036890188882,949.4942961573389,0.6263736263736264,0.6444444444444445,0.896551724137931,0.20833333333333334,49.83795261510952,50.328622924956626,49.447001953115496,41.11111111111111,0.4442192728323617,0.5557807271676384,120.94852187530124,135.28623421671298,0.5679911258666402,0.4320088741333596,156.41817003572686,136.4151985476116,0.5143653022355338,0.48563469776446627,139.81271197774862,135.85188913541765,0.8640687588732263,1.3810908605736025,1.0556268712871586,1.4241449064239073,-0.36132726679030647,-0.9810761532658021,-0.23316886987167976,0.00178071505838153,0.172179445020116,0.5966024756608639,1.4415570397949402,6.309992442396498,1.4611905493935557,0.9048622701520823,1.470551575701028,2.0176151355809386,1.5600342318314337,1.9388816467563916,3.500875126065063,1.2872560826766652,Stress
92.59681585755963,659.8426966292135,195.12116858252256,,,,,,,255.4576330288983,256.91499652389206,0.29570861294562045,0.38714929229935546,650.0,197.1858,0.3033627692307692,267.0,0.7638102892797481,494.2,824.2,74.15730337078652,89.8876404494382,307.0,1363.0,14.833333333333334,312.5,,,0.060202938165824546,0.09731187347672045,0.013036433156096849,0.17055124479864184,0.6186597381688131,0.3529903181703659,0.5705726369315562,-2.3298342676697072,181.66633623056234,209.34215376569568,0.8677962510784653,119476.09466100704,1.152344226835777,5.78425112825533,964.9368893010678,0.6067415730337079,0.625,0.8727272727272727,0.21739130434782608,50.45981607357057,50.93130658780268,50.055346054909656,39.77272727272727,0.44766686105645787,0.5523331389435424,121.55226868713106,135.0162825429738,0.5733029021133029,0.426697097886697,158.50711378831878,136.7465985747256,0.5193315686115135,0.4806684313884864,141.24351161113833,135.8841947642942,0.7332229738464908,2.1586351620172315,1.0151618438320897,1.6646176337101874,-1.6268174192148877,-2.257180006327055,-0.19913591638561784,0.0028841046202476802,0.37699892479025343,0.6273993624964755,1.5773495978826,6.265004357908381,1.442798122864821,1.4074618135164352,1.2333992488942698,1.6954973692675666,1.5741378943105735,1.9422181195854888,3.404867134404362,1.236937846364368,Stress
92.56583630113337,660.629213483146,194.2397991952726,,,,,,,248.24264156447637,249.63209292513216,0.2940224186743871,0.3757669756316484,656.0,195.70319999999998,0.2983280487804878,261.0,0.7824594435957227,494.2,815.2,71.91011235955057,87.64044943820225,307.0,1363.0,14.833333333333334,421.875,,,0.05533640085405215,0.11326238760285914,0.021927842560270052,0.19052663101718134,0.48856820013438657,0.29043919245631344,0.5944701115963434,-2.1780481377941534,176.5165457091513,209.9821010434477,0.8406266288031283,116444.12173719927,1.189588773108205,5.7730876795904695,999.1693998198324,0.5955056179775281,0.6136363636363636,0.8703703703703703,0.16,51.06129263057477,51.70976108295532,50.51702090195308,42.04545454545455,0.46357036799910306,0.536429632000897,120.19902078511765,129.3002831334518,0.5678490299647084,0.43215097003529157,158.2336044056963,138.03843376176906,0.5246649112946582,0.475335088705342,140.50921350737028,133.74074250914174,0.9349806606530315,2.549347071204481,1.3705497184241915,2.1248006817376233,-0.9671912449683724,-1.671450979292592,-0.20413955328684466,0.015276463410575425,0.8902168760731106,0.5890044332447135,1.3609765531356013,6.2874762680207406,1.3353854778065242,1.231226106191607,1.258598763020061,1.6284780125472609,1.7223534539071572,1.9400712037216274,2.699426032948605,1.0914157467920895,Stress
89.46366863553759,682.546511627907,194.60425344343412,,,,,,,242.93729522608237,244.32923842778268,0.28511500700412845,0.3559278248256884,676.0,166.7925,0.24673446745562128,218.75,0.8010472548578079,528.0,823.0,67.44186046511628,86.04651162790698,308.0,1363.0,14.333333333333334,429.6875,,,0.04956168530840171,0.1052472795120045,0.02692859747237572,0.18173756229278193,0.47090704423147306,0.2727101909101053,0.5791168219943963,-2.2514426546206487,172.7668613344299,212.61548616689043,0.8125789162827879,115399.84088002265,1.2306497005541148,5.769175319951557,1046.620737537805,0.5813953488372093,0.6,0.8431372549019608,0.12,51.34995144059567,52.011851386156415,50.857180582764514,42.35294117647059,0.4840842606758596,0.5159157393241405,120.22907203295199,124.1190384843748,0.5377927709012709,0.46220722909872936,155.9201966536137,144.5483906291648,0.5164279932420309,0.48357200675796913,139.22308983499528,134.72151451748033,0.7736717187713459,1.8526753780385175,1.1624265723094123,1.5032581302873158,-0.22586173976543744,-0.7309457027421771,-0.31603276968102634,0.004497760769446703,0.368881964222582,0.5572491256283927,1.2407867774486523,6.208184667467637,1.2669209303882072,1.2156820971449163,0.9519088060582541,1.564759781961484,1.6852266731608303,1.9724664802011855,2.54794016376766,1.2703081491852986,Stress
