PPG_Rate_Mean,HRV_MeanNN,HRV_SDNN,HRV_SDANN1,HRV_SDNNI1,HRV_SDANN2,HRV_SDNNI2,HRV_SDANN5,HRV_SDNNI5,HRV_RMSSD,HRV_SDSD,HRV_CVNN,HRV_CVSD,HRV_MedianNN,HRV_MadNN,HRV_MCVNN,HRV_IQRNN,HRV_SDRMSSD,HRV_Prc20NN,HRV_Prc80NN,HRV_pNN50,HRV_pNN20,HRV_MinNN,HRV_MaxNN,HRV_HTI,HRV_TINN,HRV_ULF,HRV_VLF,HRV_LF,HRV_HF,HRV_VHF,HRV_TP,HRV_LFHF,HRV_LFn,HRV_HFn,HRV_LnHF,HRV_SD1,HRV_SD2,HRV_SD1SD2,HRV_S,HRV_CSI,HRV_CVI,HRV_CSI_Modified,HRV_PIP,HRV_IALS,HRV_PSS,HRV_PAS,HRV_GI,HRV_SI,HRV_AI,HRV_PI,HRV_C1d,HRV_C1a,HRV_SD1d,HRV_SD1a,HRV_C2d,HRV_C2a,HRV_SD2d,HRV_SD2a,HRV_Cd,HRV_Ca,HRV_SDNNd,HRV_SDNNa,HRV_DFA_alpha1,HRV_MFDFA_alpha1_Width,HRV_MFDFA_alpha1_Peak,HRV_MFDFA_alpha1_Mean,HRV_MFDFA_alpha1_Max,HRV_MFDFA_alpha1_Delta,HRV_MFDFA_alpha1_Asymmetry,HRV_MFDFA_alpha1_Fluctuation,HRV_MFDFA_alpha1_Increment,HRV_ApEn,HRV_SampEn,HRV_ShanEn,HRV_FuzzyEn,HRV_MSEn,HRV_CMSEn,HRV_RCMSEn,HRV_CD,HRV_HFD,HRV_KFD,HRV_LZC,Labels
89.51689162790584,670.2840909090909,29.89212361704113,,,,,,,18.453109260482645,18.548382732864113,0.0445962003611023,0.027530280832796013,667.0,31.875899999999998,0.047789955022488756,39.75,1.6198963109731945,643.0,700.6,0.0,30.681818181818183,615.0,754.0,8.0,78.125,,,0.009052809013647151,0.012536974866743338,0.0006488094388456139,0.022238593319236104,0.7220887901483646,0.40707651260552463,0.5637485558000205,-4.379073011576801,13.11568721045168,40.20856977228675,0.3261913389292325,1656.7598029564133,3.065685322248703,3.926229658929034,493.06728871804944,0.4659090909090909,0.4823529411764706,0.7560975609756098,0.0,47.78210116731517,47.77042983939982,47.79635106504928,45.88235294117647,0.4016202531645571,0.598379746835443,8.317116002837231,10.15204183838759,0.5217113159659434,0.47828868403405667,29.04248366654707,27.807610929585422,0.510149177650118,0.48985082234988203,21.361651108075712,20.93235747711627,1.3894302134990806,3.0252652002931084,1.7250305809204176,2.7680053296430303,-2.0437527396252406,-2.6697903740418614,-0.15524518358867775,0.015180331711620067,1.045419309307735,0.6256866986534635,1.9924301646902056,5.787620079105893,1.0974559736437433,0.9351709863558615,1.1572324859930199,1.3689034388538102,1.7977177237680417,1.5848150244426937,2.5692555873607477,0.6606236882697236,Relax
90.2772081986175,664.7078651685393,26.977348346340413,,,,,,,18.548768643277057,18.654642576451913,0.04058527025176722,0.027905143921493906,664.0,29.651999999999997,0.044656626506024096,38.0,1.4544010368105091,641.0,685.2,0.0,29.213483146067414,613.0,730.0,6.846153846153846,78.125,,,0.05416579219220863,0.021152342394215522,0.0012349348757698941,0.07655306946219405,2.56074675715448,0.7075587245911616,0.27630952674812953,-3.856004628122793,13.190824266420435,35.99103623310541,0.3665030420626567,1491.4756177040151,2.728490313128265,3.8805862679728755,392.8047748859061,0.47191011235955055,0.48837209302325585,0.7619047619047619,0.0,49.578544061302686,49.585577793783344,49.571933409769095,44.18604651162791,0.4438682828549726,0.5561317171450275,8.788380521114687,9.837180233305107,0.530398865714873,0.4696011342851267,26.211727486268995,24.6637391998512,0.5201516735704077,0.47984832642959235,19.548533065147595,18.775917371207264,1.2415154125966945,1.2745522329760544,1.3947220291311992,1.5720650702276773,-0.28247552186082814,-0.47475449346065,-0.3608585536879995,0.0003905371526500047,0.08893299820712953,0.6716727569563541,1.9878743481543457,5.696137049109611,1.1916403529044122,1.1181952494855865,1.1543693665925128,1.4168769702028343,1.7898922699871138,1.6373010433349298,2.968916235169374,0.945893647219811,Relax
89.99522883131374,666.7640449438202,28.11462837931613,,,,,,,18.579069357258405,18.684142439068097,0.042165783521942904,0.02786453393542513,666.0,31.1346,0.046748648648648645,41.0,1.513242016523955,641.0,693.2,0.0,30.337078651685395,613.0,730.0,7.416666666666667,109.375,,,0.04908612813546117,0.013817454933550506,0.001367133240636445,0.06427071630964812,3.5524724612109226,0.7637401752140192,0.21498834503383732,-4.281822635810899,13.211683819320411,37.70719493192611,0.35037567348013676,1565.0646077214344,2.8540794230016404,3.9015023804051205,430.47731661728824,0.4606741573033708,0.4767441860465116,0.7560975609756098,0.0,50.75075075075076,50.758291878249885,50.742076136108416,45.348837209302324,0.48261785620226494,0.5173821437977351,9.178936406971038,9.503780252113353,0.516674974872861,0.48332502512713904,27.103971975629406,26.21463813937872,0.5129506672692317,0.4870493327307684,20.23460118730936,19.717113022182396,1.3556588579012243,3.0987355734413136,1.6778115963903086,2.61993223695403,-1.9680237417538589,-2.191010442501571,-0.1959661067441629,0.014604125697342358,1.001768787179266,0.590701648210795,1.6977305195797785,5.781638627474069,1.163874109180625,1.1180609689460057,1.0144099327498326,1.3302814721340217,1.7692282534434844,1.6234315061021214,2.752395642829247,0.8003715476475323,Relax
89.7250434755579,668.9090909090909,26.425621650659885,,,,,,,18.495417264017455,18.60254816368726,0.03950555017086963,0.027650120943760806,667.0,25.9455,0.03889880059970015,33.75,1.4287659085188913,644.8,693.8000000000001,0.0,32.95454545454545,613.0,730.0,6.769230769230769,54.6875,,,0.05810552642765704,0.030443976819557222,0.0014082963844535442,0.0899577996316678,1.908605001641245,0.6459198275810447,0.33842509425764167,-3.491867109989802,13.153987953892617,35.09587624308943,0.37480152547787465,1450.318552362993,2.6680787884334056,3.8684335124305704,374.5542518626832,0.4772727272727273,0.49411764705882355,0.7619047619047619,0.0,49.80754426481907,49.80252724371734,49.81255482717412,45.88235294117647,0.46695339538321956,0.5330466046167803,8.988687981452408,9.603778326238839,0.5241002121795038,0.47589978782049625,25.40757742753897,24.211062317334623,0.5170611921597044,0.48293880784029564,19.057039412829774,18.41749299814439,1.389559476874362,3.203144875476551,1.8086893914700983,2.5146357043147307,-1.502481722673739,-1.2558881671204176,-0.2796083723064182,0.013423201523885068,0.9637203893848767,0.6097652384937651,1.3862943611198906,5.725008999511267,1.193339031300988,1.0357680164036986,0.8411212241882624,1.0087397433018657,1.683953996302223,1.5906005855061727,2.722511232270326,0.8808315843596315,Relax
89.68427815306414,669.125,25.974705866045646,,,,,,,18.80663859312487,18.91563170223154,0.038818914053496203,0.028106315849990463,667.0,26.686799999999998,0.04001019490254872,35.0,1.3811455852371832,644.8,693.8000000000001,0.0,31.818181818181817,613.0,730.0,6.285714285714286,54.6875,,,0.048746404903918225,0.021411853728220635,0.0013284243031759955,0.07148668293531485,2.276608346136369,0.6818949054892741,0.29952227252725205,-3.8438105977735773,13.375371447075155,34.429105010912586,0.3884902451816776,1446.7099141414053,2.574067206069356,3.8673515676064127,354.4913205716329,0.5113636363636364,0.5294117647058824,0.8,0.03333333333333333,49.887808526551986,49.888034050468924,49.88766300799574,45.88235294117647,0.45760618764421046,0.5423938123557895,9.047998622334523,9.850628595218186,0.5105475066516134,0.48945249334838686,24.600493143851093,24.08690534152906,0.5036051109623384,0.49639488903766177,18.53443473632838,18.40127567116899,1.3504221656022426,2.90748054037069,1.7030908692756113,2.609598791432952,-1.7085435588443545,-2.2107418736950333,-0.18821530890048008,0.013662782650290065,0.9303002891514298,0.5944557098906951,1.3418425985490563,5.729151362881725,1.1965926525982558,1.0778174742417246,0.9510801550523305,0.9483501739530259,1.7420646567860207,1.6202154823615322,3.0967835386977254,0.9542342163896008,Relax
90.43489988149008,663.6629213483146,28.299110096924153,,,,,,,18.878198103536356,18.980879120968204,0.04264078824749009,0.028445461538190085,661.0,29.651999999999997,0.044859304084720115,40.0,1.4990366104709445,640.6,687.8,0.0,31.46067415730337,605.0,730.0,6.846153846153846,62.5,,,0.03695165481513091,0.01549015912063766,0.0007969084472564975,0.05323872238302506,2.3854922681781834,0.6940747854406211,0.2909566275688207,-4.167550352131127,13.421508339318772,37.738537742339595,0.3556446312508002,1591.24212287284,2.8117955738091855,3.908706376740501,424.4522135437655,0.5168539325842697,0.5348837209302325,0.782608695652174,0.03225806451612903,48.53372434017595,48.4947482584164,48.573527078916385,46.51162790697674,0.4435941585358077,0.5564058414641923,8.941701347534805,10.014357509188448,0.5206093776203164,0.4793906223796838,27.229587473978366,26.1294239685254,0.51195754810993,0.48804245189006995,20.265789609481605,19.786790457888678,1.2716974356325461,1.6726094810084078,1.455546391955299,1.8065030443023096,-0.7855663565546447,-1.011003932502077,-0.29017418211965373,0.0012725208687259031,0.18287048170653014,0.5680695653628236,1.4622802680978126,5.7761304814552705,1.1487577526900885,1.2443612225340586,0.9952227602418354,1.446381390339864,1.757684925467789,1.6250338048585957,3.1928643862117885,1.0186546970059502,Relax
90.63409285071177,662.0786516853933,28.025647636301223,,,,,,,18.521793060657444,18.627343498465432,0.04232978599288602,0.027975215653771954,660.0,28.1694,0.04268090909090909,37.0,1.5131174149564994,640.0,684.4,0.0,29.213483146067414,605.0,730.0,7.416666666666667,85.9375,,,0.03794418161838405,0.022251611098384663,0.0008300550840861221,0.061025847800854835,1.7052330031571772,0.6217722978991951,0.3646260052133674,-3.8053408640751223,13.171520903256054,37.6072334787718,0.3502390281032237,1556.1705224363154,2.8551929389927277,3.8990272944505953,429.50362993456076,0.5056179775280899,0.5232558139534883,0.7777777777777778,0.03225806451612903,49.51672862453531,49.515666309458325,49.51856876167118,46.51162790697674,0.45970386564642735,0.5402961343535725,8.930768202660685,9.682013184784703,0.5206387587679387,0.47936124123206114,27.135612840856133,26.037713526306767,0.5139803778276681,0.48601962217233186,20.200248821963697,19.643114633229164,1.277910645161783,1.5230348006149104,1.4124126744857772,1.9597980967185382,-1.0086309280454557,-1.8059511393679504,-0.14059559111074843,0.002012652105507938,0.2032846972182037,0.5438994801763801,1.2470322937863827,5.727090841268751,1.1441859130073824,1.3049582856288284,1.1238138978226313,1.5504713646309771,1.7288476724832336,1.6141714142357948,3.126477700428019,0.8731325974336717,Relax
90.22172030963449,665.0337078651686,30.511342689013453,,,,,,,19.436961041928715,19.52904222109075,0.04587939277086905,0.029227031370069195,660.0,29.651999999999997,0.044927272727272725,41.0,1.569758905375973,640.0,694.4,0.0,32.58426966292135,605.0,734.0,7.416666666666667,85.9375,,,0.02671012869105208,0.01972331992719719,0.00109080284903533,0.0475242514672846,1.3542410096091646,0.5620315495013986,0.4150158985833706,-3.92595359067133,13.809118184611666,40.538186520282174,0.34064469503840905,1758.6529132343194,2.935610078669348,3.9521502457575868,476.01723567967304,0.4943820224719101,0.5113636363636364,0.7777777777777778,0.03225806451612903,52.61707988980714,52.51980525290815,52.71610250952763,44.31818181818182,0.49858629609577093,0.501413703904229,9.76034670573192,9.787982310014122,0.5380113791082807,0.46198862089171905,29.73445941149389,27.553701926590715,0.5339049387142488,0.466095061285751,22.129193888502463,20.67620719039832,1.2396923886284863,1.1268455991672228,1.3252248086415845,1.5634130891229323,-0.7198542509312613,-1.0787296811284364,-0.2886238534743562,0.00017644158673794553,0.05656664751540379,0.5980045275995534,1.4213856809311607,5.835064329745567,1.138721658389119,0.8590721753683564,1.171408034844233,1.4634218158060668,1.9041647392617005,1.6549542813610276,2.8140081737117173,0.8731325974336717,Relax
90.45125850620605,663.2471910112359,30.7246868831136,,,,,,,19.2235650841735,19.305117593743244,0.046324639289114,0.02898401281558965,660.0,29.651999999999997,0.044927272727272725,43.0,1.598282459501168,638.2,692.8,0.0,32.58426966292135,605.0,735.0,8.090909090909092,101.5625,,,0.01830342532731938,0.018281615099538188,0.000891363311042678,0.037476403737900246,1.0011930142748573,0.48839865893559453,0.48781668666488975,-4.00185936349264,13.650779562139572,40.86289740748941,0.33406293797555425,1752.4130697526791,2.9934478995487286,3.950606593511698,489.2838176556975,0.4606741573033708,0.47727272727272724,0.7619047619047619,0.034482758620689655,46.80111265646732,46.86599566813783,46.73609848119011,48.86363636363637,0.43520910209102087,0.5647908979089791,9.01881812987545,10.274116568560425,0.48853154353894057,0.5114684564610595,28.561135035249517,29.223927696893305,0.48316399589955517,0.5168360041004448,21.178733613716467,21.904285212003785,1.2890698531060807,0.9094404858424072,1.3415021339188593,1.6758967564951877,-0.6736196756236694,-1.4841194990891102,-0.13230730566543739,0.0002668082423305752,0.05032136992319841,0.617064297303668,1.410986973710262,5.82107430167999,1.1351265189908863,1.258747766718636,1.204330234918172,1.5084750669045073,1.889095661323909,1.655121460653065,2.264697824165429,0.8731325974336717,Relax
91.06791760417083,658.9550561797753,28.10205027798423,,,,,,,18.615120930918692,18.721742901297358,0.042646383868579746,0.0282494545816796,655.0,26.686799999999998,0.040743206106870225,34.0,1.5096356549211705,635.6,682.8,0.0,30.337078651685395,605.0,735.0,7.416666666666667,101.5625,,,0.027265224847446052,0.01770834337345935,0.0009684876577737434,0.045942055878679146,1.539682412546293,0.5934698464397484,0.38544951972159053,-4.033719373434004,13.238271361138468,37.70529662977595,0.3510984541806834,1568.135236142132,2.8482039385037474,3.9023536235255607,429.5694974535198,0.449438202247191,0.4659090909090909,0.7560975609756098,0.034482758620689655,50.142450142450144,50.14416485489118,50.14061442029466,45.45454545454545,0.4752410310224961,0.5247589689775037,9.126190679677862,9.589865340106675,0.49250252616337864,0.5074974738366214,26.461020727380003,26.86082232554617,0.4906082018117737,0.5093917981882262,19.79233404953384,20.16766339026337,1.3304082485338882,1.4610944494342781,1.3557261607089315,2.060955473251027,-1.5039372441927537,-2.5150662592756734,-0.017328046236056927,0.0024727939556623093,0.20810518476991258,0.591178576101496,1.6835458845878222,5.893998178035864,1.1886500148291366,1.1291898071610096,1.2811244349647293,1.583414164289201,1.8793335818898274,1.6491565184952355,2.715023588761771,1.0186546970059502,Relax
91.11473855721955,658.5444444444445,27.29166688109329,,,,,,,18.041774246939465,18.142587272259785,0.04144240698001309,0.027396441347492816,656.5,23.7216,0.036133434881949734,30.75,1.5126930704014845,636.6,678.6,0.0,26.666666666666668,605.0,735.0,6.923076923076923,70.3125,,,0.04131482617415129,0.016218536330364318,0.0011285342135383682,0.058661896718053975,2.5473831505252256,0.7042872543436889,0.2764748028573861,-4.121600472938482,12.828746488483644,36.55349075553125,0.350958177271822,1473.2042155331603,2.8493423568970897,3.875233062868105,416.61363800872556,0.4444444444444444,0.46067415730337075,0.7317073170731707,0.03571428571428571,49.26578560939794,49.281354196760105,49.251112761657275,43.82022471910113,0.4532619951674146,0.5467380048325854,8.637589625899956,9.486533517666933,0.4981480922426114,0.5018519077573887,25.799310115248982,25.895043618266417,0.4932250174048081,0.5067749825951919,19.238143841964625,19.500610274729077,1.3568486331808762,0.7209554125008486,1.4545656731220582,1.6822958019621237,-0.6239551789481226,-1.6239551789481226,-0.18412730539033514,0.0005199617025067412,0.044980036328634614,0.651475800363182,1.8417698898027164,5.768304035454523,1.1654012862718672,0.8628019505592042,1.2861780747043985,1.6789534604151186,1.9271226991928228,1.6409748544677996,2.8007411080961693,1.0819755160549458,Relax
91.0687099637833,658.7415730337078,27.329025566355956,,,,,,,17.680883359256583,17.77302324526998,0.041486717530969504,0.026840393992185237,658.0,25.2042,0.03830425531914894,33.0,1.5456821365233553,636.2,679.6,0.0,25.842696629213485,605.0,735.0,6.846153846153846,70.3125,,,0.02946395552621244,0.014550620327898828,0.0005491328813871358,0.044563708735498406,2.0249277942961186,0.6611647989419279,0.3265127777910492,-4.230121652053597,12.56742525891654,36.47874447302303,0.3445136459729439,1440.2439716846504,2.902642643300504,3.865406176072075,423.53903712583684,0.42696629213483145,0.4431818181818182,0.6923076923076923,0.037037037037037035,51.87969924812029,51.827470786616956,51.93142050060261,43.18181818181818,0.49262086513994924,0.5073791348600509,8.825251127943293,8.956472006577014,0.4954741321039642,0.504525867896036,25.677360304233133,25.910846495911727,0.49517112923915024,0.5048288707608498,19.19911312619247,19.385437278267656,1.4209021398287203,0.6263731776011352,1.505486681781406,1.6673455736329748,-0.17430618985388335,-1.1743061898538834,-0.24159351383555266,0.0009663658506973918,0.048042329074431865,0.6203966079939698,1.9328380674879606,5.749562751381111,1.1494254013307328,0.6564963120119764,1.1161742894305373,1.2748405103571196,1.9481781426407079,1.6404128341267248,2.628712571225522,1.0186546970059502,Relax
90.71600814410522,661.4777777777778,28.76414269743845,,,,,,,17.501524813184616,17.59719833304794,0.04348466972552132,0.026458220368310272,660.0,28.9107,0.043804090909090904,40.0,1.6435220933303618,636.6,687.0,0.0,25.555555555555554,605.0,735.0,7.5,93.75,,,0.023844515376380992,0.013565755896695987,0.0007903160347318796,0.038200587307808856,1.757698985442341,0.624192376526807,0.3551190401180799,-4.300206610376884,12.443098271182807,38.74363435802895,0.3211649727074246,1514.5330717795293,3.113664580449069,3.887248871113359,482.5387280738574,0.43333333333333335,0.4431818181818182,0.6666666666666666,0.037037037037037035,51.16981132075471,51.21033649766959,51.12900737003746,45.45454545454545,0.4947727522834819,0.5052272477165181,8.754219761712841,8.84622415599909,0.4814326160812369,0.5185673839187628,26.882404532493002,27.899919889133034,0.4826803994968219,0.5173196005031783,19.991248548864625,20.69614954089556,1.3091863589876864,1.7423427195820018,1.3464470273287592,2.1770804435889346,-1.3637627717829837,-2.2803169452951586,-0.023266343111044654,0.005932977687485394,0.3705073311222927,0.59748581170108,1.992430164690206,5.7905262576767464,1.1061095473301614,1.0474136855066063,1.0731658867502765,1.3229993660189796,1.9501253333965907,1.6420803608782446,2.2243353096288687,0.9377121139142864,Relax
90.38960223322951,663.7865168539325,28.685786752213414,,,,,,,16.38492932822443,16.477934804555986,0.04321538028246177,0.024684034568647265,661.0,26.686799999999998,0.0403733736762481,39.0,1.7507421715148757,639.6,689.2,0.0,22.47191011235955,605.0,735.0,7.416666666666667,93.75,,,0.03886044780585524,0.013966229562135076,0.0007961777130929975,0.05362285508108332,2.782458045170101,0.7246993422318565,0.26045292704046974,-4.271113037479071,11.651659440251363,38.94399479932675,0.29919014472682687,1425.5358829247148,3.342356082326983,3.8609482636031047,520.6587915505606,0.4044943820224719,0.4204545454545454,0.6216216216216216,0.04,49.39564867042708,49.417524522014816,49.37431362595685,45.45454545454545,0.4493968253968254,0.5506031746031746,7.811353364130338,8.646306765877277,0.5014183196472077,0.49858168035279227,27.57659221697834,27.498478005672954,0.49714379898152844,0.5028562010184716,20.26679155269552,20.382896179372235,1.4163551252715192,1.74184006897084,1.5583935410848144,2.2872751597569394,-1.4601923570896584,-2.5177549597677835,-0.08154503868843603,0.0066331048337777655,0.3886514939267357,0.6476158635746323,1.9459101490553135,5.9013579761488275,1.0712586285363213,1.0370960446785615,1.104673562696589,1.368464799469562,1.9331676810548466,1.6435248719832467,2.4452947849570266,0.8003715476475323,Relax
91.1123479045234,658.4888888888889,29.930723174737967,,,,,,,16.967252000528493,17.05402848714782,0.04545364952967091,0.02576695261959308,658.5,25.9455,0.03940091116173121,34.75,1.7640289172227588,634.8,678.8,0.0,23.333333333333332,597.0,735.0,6.923076923076923,78.125,,,0.030474254776136172,0.013977305295808836,0.0008870256040169625,0.04533858567596197,2.18026680616857,0.6721483328557665,0.30828719262893667,-4.270320314989947,12.059019189810783,40.60403698160157,0.29699064640481304,1538.264698640875,3.3671094093547653,3.894001183572743,546.872939914158,0.37777777777777777,0.39325842696629215,0.6,0.041666666666666664,48.08575803981623,48.05381137226423,48.11989295468233,47.19101123595505,0.45078448208570765,0.5492155179142926,8.100925873009825,8.941730562622956,0.4720432389375245,0.5279567610624755,27.89716720696843,29.50315035771119,0.4703183899989683,0.5296816100010318,20.541140890582913,21.798972756580287,1.407816844086899,0.5960167643245815,1.5548334986301957,1.5861032814795963,-0.4692289644883516,-1.4692289644883516,-0.44753539712119306,0.0008470776283048122,0.04561800598447515,0.6187650349642957,2.065455299705096,5.8626398687397785,1.0681583411691924,1.2471726811799917,1.1502895344427622,1.4009691005721414,1.9252941984644336,1.644858022187783,2.774227288149416,0.9377121139142864,Relax
91.12526139696436,658.5555555555555,30.370414014970216,,,,,,,17.793130854854564,17.89205517559504,0.04611670763197772,0.027018420397113392,660.0,27.428099999999997,0.04155772727272727,37.0,1.7068617244887032,633.8,678.8,0.0,26.666666666666668,597.0,735.0,6.428571428571429,78.125,,,0.036618248087639804,0.012416187170011136,0.0010163808368641798,0.05005081609451512,2.949234542475648,0.7316213989096705,0.24807162277962894,-4.388754240750652,12.651593544027117,41.262138771715925,0.3066150694229025,1640.0112945143444,3.261418304984671,3.9218169489414185,538.2923787715681,0.35555555555555557,0.3707865168539326,0.5454545454545454,0.0,50.84002921840759,50.8372147536967,50.841433450634,44.9438202247191,0.4749263583773999,0.5250736416226001,8.719752915598635,9.168560410446124,0.47354603785715327,0.5264539621428467,28.394409341741643,29.93863079951984,0.4736646770764187,0.5263353229235812,21.003292274968178,22.14028132330253,1.451631042738518,0.6844647206449359,1.6643259857738668,1.6892336460714432,-0.4767803757113658,-1.4767803757113658,-0.4636100159054112,0.001031864945102366,0.059302820211312016,0.6849327861289405,1.5505974124111668,5.840417646517557,1.0817512179681075,0.749379098836873,1.2680939556204416,1.3259004605556635,1.8842095831259567,1.6332848770914297,2.5905314986455727,1.0819755160549458,Relax
91.26273502592763,657.2111111111111,32.574027857886904,,,,,,,17.868433028007924,17.962792096382316,0.04956402487294496,0.027188269835850366,659.5,27.428099999999997,0.041589234268385136,37.0,1.822992973520882,632.0,679.6,0.0,26.666666666666668,575.0,735.0,6.428571428571429,101.5625,,,0.05116742947954217,0.011737347260941507,0.0007587861427294135,0.06366356288321308,4.359369143810933,0.8037160844014605,0.1843652276023721,-4.444979447444756,12.701612100396055,43.47958674755899,0.2921281698039401,1734.978613998003,3.4231549825240872,3.9462642358437847,595.3494560519794,0.34444444444444444,0.3595505617977528,0.5,0.0,48.38709677419356,48.22963779687625,48.53285584967336,46.06741573033708,0.44594594594594594,0.5540540540540543,8.48528137423857,9.458041311738148,0.39993742249316017,0.6000625775068397,27.496754068739065,33.68089932620253,0.4035575697827712,0.5964424302172288,20.347868246043838,24.737193907922695,1.4368074032939946,0.45994900944922734,1.490113776735901,1.588471430104172,-0.15029439287779844,-1.1502943928777984,-0.286155309941746,0.0004811551789502039,0.024175192919363823,0.6635225789645101,1.688575232992824,5.822245735146448,1.0424574318116169,1.0138373979442104,1.2515260856713555,1.5658007873229354,1.824172395984613,1.6134479198332412,2.217651236518016,0.9377121139142864,Relax
91.72041281330009,654.2333333333333,37.9580045887498,,,,,,,19.01093712411565,19.117793828211937,0.0580190623968255,0.02905834379800629,659.5,28.1694,0.042713267626990147,40.0,1.9966403729040545,628.4,682.2,1.1111111111111112,28.888888888888886,565.0,735.0,6.923076923076923,132.8125,,,0.030910294055177336,0.010550551709654875,0.0006686917781150567,0.042129537542947265,2.9297324827943485,0.7336964955683902,0.2504312253344708,-4.551577125673368,13.518321657254985,52.11576280147858,0.2593902675616494,2213.3074577420016,3.8551947588485738,4.052011857339565,803.6656624226227,0.34444444444444444,0.3595505617977528,0.5,0.0,50.56899004267426,50.54465077556289,50.59239912503831,48.31460674157304,0.5217621090592552,0.4782378909407449,9.765139760671865,9.348979040029402,0.37336721363407954,0.6266327863659207,31.84470192625362,41.25491112107792,0.3827230579712004,0.6172769420287996,23.55252635406015,29.911294695306548,1.5004362977771404,0.3385669204482944,1.512356081362417,1.6249218070352858,0.16664405059547072,-0.8333559494045293,-0.1675229655519174,0.0002646242304866259,0.012491154134831612,0.6127895997190791,1.5088966832122228,5.8360803184557435,0.95733166588834,1.2966475191784204,1.1241708947805014,1.3028519669630172,1.8133799628825638,1.568908149258485,2.358007894969144,0.9377121139142864,Relax
90.61198093875748,661.8539325842696,49.06409318474008,,,,,,,21.005410558407867,21.093598943884224,0.07413130113643777,0.031737230111167136,660.0,37.065,0.05615909090909091,51.0,2.3357835852963666,627.8,692.2,2.247191011235955,30.337078651685395,565.0,815.0,8.090909090909092,132.8125,,,0.0283195870957241,0.009648718418665566,0.0006402325990561572,0.03860853811344582,2.9350620327917856,0.7335058119142178,0.24991151932026406,-4.640930178806688,14.915426852849931,67.54955416213056,0.22080718426431561,3165.250209872965,4.528838150496758,4.207378156217886,1223.683991754016,0.30337078651685395,0.3181818181818182,0.39285714285714285,0.0,53.44129554655872,53.29496420209533,53.58030014723979,47.72727272727273,0.5969403523230657,0.4030596476769341,11.541529212011904,9.483803495203398,0.3771015066990986,0.6228984933009015,41.48122953886777,53.312755166530046,0.38735139642242467,0.6126486035775754,30.44584783355491,38.28963562233263,1.5406253137187325,1.5706227094331089,1.7372817723630918,2.2621325709735536,-1.2858739146299643,-2.2858739146299643,-0.1658326691329337,0.007552885489960182,0.3514004221602083,0.6336146060707302,1.2383742310432686,6.014839610644444,0.8300334499536602,0.7841918763919008,1.0480620583350748,1.1517577626864726,1.6467328518422604,1.502317803026333,1.9268273164315355,0.8003715476475323,Relax
91.17854853886826,658.1666666666666,47.55322269588092,,,,,,,20.943476633146325,21.046418613763752,0.07225103473671449,0.03182093183055912,658.5,34.8411,0.052909794988610474,45.75,2.270550564686119,624.6,686.2,2.2222222222222223,28.888888888888886,565.0,814.0,9.0,132.8125,,,0.04269569034697995,0.004874072130414343,0.0005773753082301339,0.048147137785624426,8.759757591718367,0.8867752541611696,0.10123285317844216,-5.323825524870502,14.882065321483125,65.74750215663381,0.22635179791361168,3073.918418149349,4.417901731806235,4.194662447095029,1161.8640145589068,0.3,0.3146067415730337,0.42857142857142855,0.0,47.57738896366083,47.557455180565434,47.60912301475703,51.68539325842697,0.5348378502997079,0.46516214970029196,10.891771289289075,10.157565474248067,0.3662463959344818,0.6337536040655184,39.78926692807302,52.34069427475262,0.3744748914489222,0.6255251085510777,29.170331198767926,37.70095763721897,1.7225233418499235,0.5270762758165086,1.8833901873746342,1.7946532361101912,-0.11769867318988503,-1.117698673189885,-0.6683569444042575,0.0017527853328340242,0.06464283093134406,0.6593265545066043,1.2264456601779945,5.969413651789076,0.8371451975328323,0.9942606364459707,1.1031077561756444,1.2068473974875824,1.6441602515316818,1.458452471310454,2.1870954621788536,0.793448711773627,Relax
90.46510920552943,663.1685393258427,49.533330366131935,,,,,,,21.613074746550986,21.71911203493842,0.07469191831157436,0.032590621335146855,661.0,37.065,0.05607413010590015,49.0,2.2918224707493997,629.6,697.0,2.247191011235955,30.337078651685395,565.0,814.0,8.9,132.8125,,,0.04176226377126128,0.0038101349833481566,0.00036075257105768507,0.045933151325667124,10.960835758780043,0.9091965729754932,0.08294956634554006,-5.570090661770806,15.357731401255313,68.40627860405498,0.2245076287536118,3300.448080817455,4.454191626144964,4.225543015238507,1218.7786933356842,0.3258426966292135,0.34090909090909094,0.5,0.0,52.54125412541255,52.46138038009105,52.61148548858099,48.86363636363637,0.594983822706595,0.405016177293405,11.855935998089928,9.781815171325668,0.3829002232978465,0.6170997767021535,42.32907466268806,53.737029976136284,0.39309297034790164,0.6069070296520984,31.083064361402858,38.62222351640404,1.6681050963946191,0.3077970818250835,1.698206038810174,1.6160632609949386,0.26099553346888094,-0.7311199165764748,-0.7668731533391081,0.0007474978759358414,0.022560890506460686,0.638277661656478,1.3364619873720152,6.014839610644444,0.8425486252825709,1.1778205653801395,1.256354028092906,1.3932928307573067,1.6542854319480353,1.4347108327769937,1.9810246861467247,0.8003715476475323,Relax
90.48218648311378,663.1573033707865,50.12391437872302,,,,,,,21.812475579564346,21.93561574801387,0.07558374781359768,0.03289185758596477,662.0,42.9954,0.0649477341389728,55.0,2.297947071431134,623.8,697.0,2.247191011235955,30.337078651685395,565.0,814.0,9.88888888888889,132.8125,,,0.04312213206239703,0.004222808052380714,0.00029954383232118397,0.04764448394709893,10.211719672668012,0.9050813124616232,0.0886316253749211,-5.467254956968693,15.510822644923028,69.37979416629884,0.22356397610152315,3380.7862374509145,4.47299255201065,4.235987821741938,1241.3412102635466,0.30337078651685395,0.3181818181818182,0.4642857142857143,0.0,49.18566775244301,49.13106759436345,49.24241779810703,53.40909090909091,0.5708041749265566,0.4291958250734434,11.719666151927864,10.162473225990095,0.37220337140986703,0.627796628590133,42.327552629238255,54.972121361441545,0.3816586306563244,0.6183413693436757,31.0561772139906,39.52979881713303,1.747775239740906,0.12009254169954664,1.6276826980413595,1.6877289688911328,0.9882992025576502,-0.11220089996211247,0.0,0.00011062737287649793,0.0038836288528392897,0.6214027702906866,1.1451323043030026,6.059783430869163,0.8310134442059269,1.0525380779694717,1.3549793479091004,1.8057052703574712,1.7476358953892406,1.4016801355873993,1.9614088405274699,0.8003715476475323,Relax
89.79156936136971,668.7078651685393,55.23466513785255,,,,,,,23.41789331414607,23.499991662774484,0.08259909598032222,0.03501961698662522,665.0,48.925799999999995,0.07357263157894736,65.0,2.3586521809153043,623.8,713.2,2.247191011235955,34.831460674157306,565.0,814.0,11.125,132.8125,,,0.04565483562924986,0.003884106346508795,0.0003982268483672691,0.04993716882412592,11.754270237808093,0.9142455750753904,0.07777986694015951,-5.550862348261374,16.617003462575166,75.48429800320444,0.22013854407004943,3940.5714234243533,4.542593866169088,4.3025293135248885,1371.5780364057441,0.3146067415730337,0.3295454545454546,0.4827586206896552,0.0,54.08467501490758,53.76090168884878,54.42071301574541,52.27272727272727,0.6303694647630493,0.36963053523695083,13.2224556468658,10.125079820885876,0.44394542884818833,0.5560545711518118,50.29460651961552,56.287936541266276,0.4525986212878068,0.5474013787121932,36.77214148167254,40.440382301932615,1.6822130551942727,0.2268598854905881,1.7808332830739912,1.6674033403286972,1.2498141793968056,0.08938737266210417,-1.0,1.94197371186125e-05,0.0023819824186875117,0.5984813712110855,1.0986122886681098,6.068265312915944,0.8291505877021433,0.9891490326032647,1.293203303573641,1.7003153314138735,1.8854918306429476,1.4102266772201566,2.156240119757833,0.8731325974336717,Relax
89.59956588063513,669.7045454545455,56.331155318891945,,,,,,,24.27808244809136,24.41773142874189,0.08411344331052517,0.0362519302173964,666.0,53.373599999999996,0.08014054054054054,79.5,2.3202473028639234,623.2,716.6,3.4090909090909087,34.090909090909086,565.0,814.0,11.0,132.8125,,,0.04105156306787354,0.0033783002963233945,0.00026019721094494114,0.044690060575141875,12.151543518067346,0.9185837418781171,0.07559399680479555,-5.690382566879428,17.265943474455277,78.20950759544074,0.2207652752881135,4242.284000341002,4.529697882490501,4.334569849025022,1417.0617637827704,0.32954545454545453,0.3448275862068966,0.5333333333333333,0.0,49.4047619047619,49.40368956302403,49.40978875420717,55.172413793103445,0.567355694227769,0.43264430577223095,13.005812653990432,11.35730479000292,0.42015322813010025,0.5798467718698996,50.69479882145201,59.55471812353586,0.4269946602942165,0.5730053397057836,37.0075248452135,42.87046082599785,1.7467427107131948,1.0580336609030119,1.8176081610191832,2.2757595411647005,-0.6728246804838101,-1.6858916576577085,-0.06697844588943051,0.001226131735250474,0.10942674269036026,0.5822040693581467,1.0163741904311372,6.169547811769944,0.8324133760953235,0.8801029649081058,1.349680462756119,1.420982014695228,1.833357138112318,1.3860982306693395,2.381003736890326,0.8074289523296622,Relax
89.4392718777617,670.9204545454545,56.662992766145884,,,,,,,24.81981040430702,24.962623757737397,0.08445560480718209,0.036993670764028694,669.0,58.5627,0.08753766816143498,79.75,2.282974440300844,623.2,717.6,3.4090909090909087,37.5,565.0,814.0,12.571428571428571,78.125,,,0.04015080404832096,0.003388701668163833,0.0002303275260205076,0.043769833242505295,11.848432815886285,0.9173168155763074,0.07742094079702896,-5.68730841969093,17.65124053530453,78.59691559047853,0.22457930317869695,4358.435356982672,4.452770072068055,4.346300719004615,1399.8959739925676,0.3409090909090909,0.3563218390804597,0.5483870967741935,0.0,50.57803468208093,50.56428104555783,50.588042374578116,54.02298850574713,0.5712020002239057,0.42879799977609456,13.341010386756126,11.558999312928394,0.42052380151145347,0.5794761984885468,50.96837578103636,59.83059259759906,0.42775908927418194,0.572240910725818,37.2542473276301,43.088921288981894,1.7078885869311793,0.31424255870194884,1.7750291727092056,1.795431753105552,0.7355885127099651,-0.1241808692317381,-0.43507378351097986,2.6830965826052275e-05,0.006322917124096835,0.5890064666454857,1.1089750757036563,6.132671533385439,0.8467460059997695,1.087512579651346,1.1550900976693736,1.5086746321635982,1.8704776052566277,1.3792873865246644,2.296680791249605,0.6606236882697236,Relax
89.9392649277229,667.1797752808989,56.400870761684175,,,,,,,24.453341470868743,24.5932612827674,0.0845362417317552,0.0366518026727853,660.0,45.9606,0.06963727272727273,65.0,2.3064688655689247,623.8,716.8,3.3707865168539324,37.07865168539326,565.0,814.0,9.88888888888889,85.9375,,,0.045558335737011735,0.0033282746742875247,0.00032128659624745457,0.049207897007546714,13.688274014452936,0.92583382968032,0.06763700293424625,-5.705301225087743,17.390061824537398,78.24587107397674,0.2222489389644106,4274.766806034971,4.499459051006462,4.337882538355921,1408.2563712307576,0.3707865168539326,0.38636363636363635,0.5882352941176471,0.0,49.73513831665685,49.717619966369526,49.75389291676209,54.54545454545454,0.559681495980692,0.44031850401930794,13.009943147056989,11.539537232498965,0.4225751153356052,0.5774248846643949,50.86433712397204,59.457846824992835,0.4290287663501083,0.5709712336498918,37.124381555459856,42.82754060534261,1.7683155768260421,0.7377054816057831,1.83091370061801,2.137168317628934,0.10330300841011031,-0.8923246855039235,-0.08485516964806733,0.0007235513385754596,0.05851081796122093,0.5809469635827842,0.9661877030187788,6.175116717458942,0.8209051285337366,0.8844294107228932,1.0070330673493588,1.2457258804599136,1.8202654422895608,1.379281749289319,2.098792400553865,0.5820883982891144,Relax
89.60998955845211,669.6179775280899,54.69949011270945,,,,,,,24.27704677262043,24.41556955249299,0.08168760688689074,0.03625507018530133,663.0,44.477999999999994,0.06708597285067873,61.0,2.2531360846739954,631.2,716.8,3.3707865168539324,34.831460674157306,565.0,814.0,8.090909090909092,78.125,,,0.04507618503633233,0.002320810106657325,0.00021734494977399132,0.04761434009276365,19.42260803976582,0.9466934740356285,0.0487418307622421,-6.06583897035041,17.26441479709959,75.68343737775415,0.22811351327673934,4104.900013709962,4.38378237937546,4.320272693092555,1327.1188767486587,0.3707865168539326,0.38636363636363635,0.5882352941176471,0.0,50.44937088076693,50.47277775848998,50.425100094659726,54.54545454545454,0.5589511231080689,0.44104887689193106,12.907718442943308,11.465841322876368,0.4191047752067847,0.5808952247932154,48.99617228997649,57.68325401919844,0.4260221769434063,0.5739778230565936,35.827601751103565,41.58619549492808,1.7224380133675894,0.4430693867475455,1.7605353098630252,1.8641347127814036,0.25501406047836994,-0.5405117566943538,-0.2661779260380093,1.7540380581780095e-05,0.008504961057480297,0.5775648018290669,1.0712133144799953,6.099219105075084,0.8275161689192368,0.9877849643960165,1.1164990593459254,1.3221310669533086,1.7137895517471469,1.3822688156236276,1.9657162131263282,0.8003715476475323,Relax
89.59023403124816,669.8068181818181,55.248208574389146,,,,,,,24.215032853414716,24.34617904535591,0.08248379543875006,0.036152263900726046,663.5,46.701899999999995,0.07038718914845515,70.5,2.281566533848342,630.0,717.2,3.4090909090909087,34.090909090909086,565.0,814.0,11.0,132.8125,,,0.0444028768069769,0.0036769863920162456,0.00023041809049385357,0.048310281289487,12.07588826093777,0.9191185731439654,0.07611188123668429,-5.6056617775085105,17.21534829895299,76.54188996582347,0.2249140739357203,4139.661859138597,4.446142397855444,4.323934977964876,1361.2645687561355,0.38636363636363635,0.40229885057471265,0.6571428571428571,0.0,51.768292682926834,51.76740717100523,51.758861063203376,55.172413793103445,0.5863684478770534,0.4136315521229466,13.187599883893748,11.076110894991054,0.4236048626597134,0.5763951373402868,49.817238524346855,58.1111320260461,0.43144768186168386,0.568552318138316,36.439470666362205,41.83051456715958,1.7554300309994457,0.2424405989445555,1.773512816045704,1.8019544570563055,0.6625154433695783,-0.10388967321089915,-0.38268614607281254,4.3416268260331255e-06,0.002047888483066149,0.6072185256605791,1.044908109696249,6.101365993588128,0.8417244263353929,0.9570980686278034,0.9927994764606602,1.1811960495083453,1.7382408068874051,1.398409903913576,2.0472196377530505,0.5872210562397543,Relax
88.11920238766173,681.1609195402299,56.10017484597766,,,,,,,26.14828021380249,26.25420557803103,0.0823596498810357,0.038387816246786534,670.0,56.3388,0.08408776119402984,84.0,2.1454632728145895,636.2,733.8,5.747126436781609,36.7816091954023,565.0,814.0,12.428571428571429,85.9375,,,0.049843770483157475,0.005960718719881323,0.0003903201251460858,0.05619480932818489,8.362040355453956,0.8869817529242509,0.10607240759675796,-5.1225642145912245,18.56452679889142,76.57409928467033,0.2424387223919711,4465.968479063925,4.124753629014823,4.356885763444879,1263.397175651941,0.40229885057471265,0.4186046511627907,0.6666666666666666,0.0,53.86376645678307,54.21360828155699,53.53402373762272,52.32558139534884,0.5951769527729117,0.4048230472270881,14.347986126364663,11.83315382354868,0.5099656609684888,0.4900343390315112,54.683003916646804,53.6037476666561,0.5147122064117313,0.48528779358826873,39.97559019720887,38.81613899734429,1.6873925730826451,0.5615827897764869,1.7505969759948252,1.9579731303909755,0.4426101002305387,-0.5369682246096352,-0.1307291495191881,0.00044370202547279193,0.03477865148933337,0.5973590415014298,1.083344816537321,6.121104415388959,0.865388665220196,0.9200160584834082,1.0349060358007225,1.3046071203435763,1.7580885258450667,1.4328909333201167,1.783108115336558,0.6665113961222823,Relax
87.5075323062825,685.8720930232558,50.62707866736185,,,,,,,23.71026087136612,23.77663330491781,0.0738141691174556,0.03456950809421864,674.0,53.373599999999996,0.0791893175074184,80.75,2.1352392089663605,639.0,734.0,3.488372093023256,32.55813953488372,616.0,814.0,9.555555555555555,39.0625,,,0.049432129438806476,0.008378912522544349,0.0005145960537169541,0.05832563801506778,5.899587721652913,0.8475197378215774,0.14365745164038754,-4.782037143488509,16.81261864369329,68.80351800333943,0.24435696213785577,3634.091681546829,4.092373678454239,4.267365989534693,1126.2788242476745,0.3953488372093023,0.40476190476190477,0.6470588235294118,0.0,44.880875724404376,44.99024542335632,44.77394739336904,58.333333333333336,0.4728471277597572,0.5271528722402428,11.597156876538646,12.245018423443723,0.4820797491514959,0.5179202508485039,47.77163318993686,49.51560513617881,0.4815564552876344,0.5184435447123655,34.760775201748054,36.06754516315502,1.6883962849172571,0.5765339337234234,1.6883962849172571,1.8648749352636615,0.4259939973318474,-0.18643834011074922,-0.1938972018409149,0.00032456794710939433,0.025009413371445986,0.5983312352998351,1.013619075834717,6.045393969793219,0.8607493375345191,1.21968370473312,1.1656373744544344,1.4215552392925406,1.8068054786061196,1.417933909613208,1.9563763512617647,0.6725160789804521,Relax
88.69074142266211,676.6321839080459,44.86572083049824,,,,,,,22.78386822211695,22.917352847995065,0.06630739993975143,0.033672457154673666,665.0,42.9954,0.06465473684210526,62.5,1.9691880409905902,636.2,723.6,3.4482758620689653,28.735632183908045,616.0,806.0,9.666666666666666,23.4375,,,0.048250438018091646,0.005884926739032259,0.0004516694994515504,0.054587034256575455,8.1989870320843,0.8839175579918868,0.10780814197326304,-5.135360987109956,16.205015605662147,61.71182809155946,0.2625917284709082,3141.721890159081,3.808193067706575,4.20413784798115,940.0422237351066,0.42528735632183906,0.4418604651162791,0.6578947368421053,0.0,50.23505708529215,50.239682080375495,50.22914889152064,53.48837209302325,0.5248751203996146,0.47512487960038535,11.740327683571996,11.17007556981125,0.5477040460876782,0.4522959539123218,45.671091010259225,41.50302606238258,0.5462314163786757,0.4537685836213245,33.344293726101235,30.39137838738235,1.6113269284359468,1.9348690425748458,1.93644774882832,2.033382406683619,-0.23612929393874715,0.15936999692608644,-0.4499011789829962,0.0012954564539445134,0.23898746246026975,0.6395895947738306,1.257676983297797,5.971454415289489,0.9071792172294317,0.9847187737285191,0.9581673699767776,1.106504191188869,1.8444232678279167,1.4295555753670077,2.1167689880926535,0.5924545743309175,Relax
88.30784111385695,679.5232558139535,43.5575958781787,,,,,,,22.075005829057922,22.197155797313226,0.06410022836673059,0.03248601963241981,669.5,43.7367,0.06532740851381628,58.5,1.9731635051639567,639.0,725.0,3.488372093023256,26.744186046511626,617.0,806.0,9.555555555555555,23.4375,,,0.03302003443460477,0.006386011884969437,0.0003030060852144752,0.03970905240478868,5.170681644411441,0.8315492925392183,0.16082005231127905,-5.053645323593653,15.695759387334467,59.77434222804561,0.2625835567952122,2947.4538299632814,3.808311579768476,4.176417120828418,910.5572787204395,0.4418604651162791,0.45882352941176474,0.6923076923076923,0.0,48.12189936215451,48.12710184026751,48.12405211508025,52.94117647058824,0.49078969604789846,0.5092103039521015,11.00027055944318,11.20480339174316,0.5475018881113753,0.4524981118886248,44.22905052151359,40.208992511140046,0.54384106865191,0.45615893134809005,32.227432898196795,29.51534090781043,1.6771037191525218,1.5423477193010617,1.8671503388300805,2.137901304920527,-0.357588209458612,-0.5000003990094735,-0.3244553010308588,0.001451010683467571,0.1680667837112813,0.6544658331596005,1.2891306126662427,5.966848766279691,0.9024544094917877,1.133102048806149,1.0494297889124435,1.2018308596013942,1.8657125079362147,1.4286002694742501,2.460324201071507,0.6725160789804521,Relax
88.89320739315419,675.0,42.31773502533446,,,,,,,21.888459314506143,22.01658683264129,0.06269294077827327,0.032427347132601696,667.0,37.065,0.05556971514242878,49.0,1.933335481373475,639.0,701.8,3.4482758620689653,26.436781609195403,617.0,806.0,7.909090909090909,39.0625,,,0.02529148853536924,0.0077735881731818696,0.00041301007108454076,0.033478086779635645,3.2535153614932213,0.7554639756401424,0.23219929574680648,-4.857023422848318,15.568077847943108,58.122683234943196,0.2678485744543814,2842.6966820957373,3.73345276164729,4.16070063257181,867.9931689513974,0.45977011494252873,0.4767441860465116,0.6585365853658537,0.0,50.319375443576995,50.31812453764461,50.31885156847331,51.162790697674424,0.5111521005752008,0.4888478994247994,11.13050921090844,10.884959942102519,0.5545737396328987,0.44542626036710126,43.28379243501731,38.791231211085396,0.5516670172409045,0.4483329827590955,31.602016730358994,28.48896252773223,1.5314040632764927,1.131413521651746,1.703521545708825,1.8563800722867159,0.039945298319858935,-0.2385206473077952,-0.364895969817708,0.0006994881789878604,0.08674246559879686,0.7076565607447796,1.326190437050185,5.873865622235775,0.8972552947753404,1.3536069017697179,1.046092451501459,1.3200650239267548,1.8744785124830767,1.4772139626201406,2.19207251522164,0.7405682179136469,Relax
88.54405085193845,677.7241379310345,40.59662308535333,,,,,,,20.88673775278199,21.00860354018368,0.059901397653162027,0.030818937357824244,669.0,32.6172,0.04875515695067264,42.5,1.9436555179588109,644.2,701.8,3.4482758620689653,24.137931034482758,619.0,806.0,7.909090909090909,85.9375,,,0.032454114292085424,0.011058133199429812,0.00040673824928964407,0.043918985740804876,2.934863752026323,0.7389540934214356,0.25178480360842587,-4.504589085612643,14.855326026523588,55.79408350140693,0.26625271165443537,2603.875458288194,3.755830292905644,4.122590318325043,838.2124359179647,0.4942528735632184,0.5058823529411764,0.7209302325581395,0.038461538461538464,49.46889226100152,49.462660551029245,49.477121450232445,50.588235294117645,0.4861133322671784,0.5138866677328213,10.357719485542003,10.649495983654923,0.5608209841980584,0.43917901580194146,41.78306318705484,36.97506436057349,0.5558752276662715,0.44412477233372866,30.439339038771802,27.20815272280015,1.5137477641865218,1.4423835782836432,1.6791995667549682,1.9849569974017618,-0.38795571204498636,-0.6590364485769786,-0.28801933462759743,0.0014142134281573428,0.15327207160651637,0.7469269562755527,1.3121863889661687,5.804900104994395,0.8834821299494459,1.0432939245158812,1.0572724875778685,1.270302319989404,1.8072764657883782,1.5201787089272032,2.173276314780182,0.7405682179136469,Relax
89.2907126713152,671.9772727272727,34.06922542724037,,,,,,,19.542761837311662,19.644215820009364,0.050699966814305684,0.029082474408689184,668.5,28.9107,0.043247120418848164,38.25,1.743316820358232,644.4,691.0,2.272727272727273,23.863636363636363,619.0,806.0,6.285714285714286,54.6875,,,0.023952679026208196,0.009623260672777809,0.0003251805746132198,0.033901120273599226,2.4890398213949783,0.7065453540442892,0.28386261560424014,-4.643572124459972,13.890558217420674,45.936019450089546,0.30238924451242577,2004.5778662357177,3.3069959270952443,4.008993040700337,607.6409169136563,0.4772727272727273,0.48837209302325585,0.6904761904761905,0.037037037037037035,47.67166535122336,47.75233774061312,47.59496839007479,50.0,0.4644415686038463,0.5355584313961537,9.472113292848547,10.171494596448518,0.5103099987572762,0.4896900012427237,32.81484807537746,32.145040499412985,0.5064629613527062,0.4935370386472937,24.15093356831845,23.840752201162637,1.4348874608587103,0.585876866046001,1.5109581021289067,1.6362793725627571,0.4233174954131389,-0.24757627292677942,-0.28609622994738515,0.00031381608754561845,0.026794621849211154,0.7620282073466944,1.9042374526547452,5.783184175406311,0.9726659822789412,0.7806330115532338,1.3961184158761148,1.409599838714735,1.798146329877285,1.55666263270652,2.1611675648384683,0.8074289523296622,Relax
89.24849400560991,672.2954545454545,33.430373377496544,,,,,,,19.291770623587237,19.397817595094374,0.049725716798277544,0.028695375661331207,669.0,29.651999999999997,0.04432286995515695,39.25,1.7328825865585729,644.4,692.2,2.272727272727273,22.727272727272727,619.0,806.0,6.769230769230769,46.875,,,0.026329057235509545,0.010591215756225077,0.0002931922916037011,0.037213465283338326,2.485933422707815,0.7075142568702926,0.2846070817534724,-4.5477303236705575,13.716328361710957,45.34516705619446,0.30248710617192914,1953.9738724931692,3.305926036502247,3.9978888622268864,599.6310736024689,0.4659090909090909,0.48275862068965514,0.6904761904761905,0.037037037037037035,51.61290322580646,51.591960577411,51.62923849645734,47.12643678160919,0.5054510639612094,0.49454893603879063,9.754545750095064,9.64877387077251,0.5317148120006767,0.46828518799932345,33.065141497311274,31.03031732220873,0.5295119625597261,0.47048803744027395,24.376779371236818,22.978026790025613,1.4844483681073828,1.0169756029886465,1.5118914839379078,1.5492623013390452,0.15535799682255202,0.4396690075193721,-0.4632529853309032,0.0006768588353808083,0.05023747075333111,0.761216226521904,2.0794415416798357,5.780176646923464,0.9835688187749438,1.0665158077705863,1.3440505272667593,1.3833297952927261,1.826020740922878,1.5485323749117332,1.9951966738502043,0.8074289523296622,Relax
89.53260554615684,670.1136363636364,33.52591442972148,,,,,,,18.481429013764185,18.58805093413702,0.05003019280677447,0.02757954473819312,668.0,29.651999999999997,0.044389221556886224,43.0,1.8140325839929803,640.0,689.0,2.272727272727273,20.454545454545457,619.0,806.0,6.769230769230769,46.875,,,0.0167464586882685,0.010107294975072111,8.926450360520554e-05,0.026943018166945817,1.6568685023609913,0.6215509555946245,0.37513595961835944,-4.594497841090192,13.143736864569224,45.64225509781837,0.2879729942440437,1884.672191943428,3.472547842984702,3.982205932614779,633.9796579555469,0.45454545454545453,0.46511627906976744,0.65,0.038461538461538464,49.4991652754591,49.471679796514856,49.52694320572588,48.837209302325576,0.49316866334634535,0.5068313366536547,9.230573566799249,9.357561300273277,0.5196557695366864,0.4803442304633134,32.90220247940512,31.633218654107196,0.5176273367881662,0.4823726632118339,24.163592617488252,23.326213536565763,1.5309306364696815,1.2529540059797712,1.5309306364696815,1.8956185962057215,-0.7020270598259355,-0.8273919840350734,-0.2089374725683843,0.0021923311712598605,0.12477413308737188,0.7787627091137166,1.7707060600302225,5.696710988196801,0.9626797940527277,0.8830838889799243,1.2507330227880071,1.387273771088068,1.7313175787031563,1.536352283783673,1.8349941559117637,0.6606236882697236,Relax
89.27658829139962,672.1704545454545,33.23556521549337,,,,,,,19.075168910537,19.179605246662476,0.04944514444326244,0.028378469749070278,669.5,27.428099999999997,0.040968035847647494,37.0,1.742347099067325,644.4,690.2,2.272727272727273,22.727272727272727,619.0,806.0,6.285714285714286,46.875,,,0.027150878721755086,0.009442331219077005,0.00011152703027768024,0.03670473697110978,2.875442313112281,0.7397104832306927,0.257251025297063,-4.662552378138738,13.56202893039612,45.04474890486904,0.3010790216421909,1919.1932589160397,3.321387171200598,3.990088819483514,598.4442045703369,0.4659090909090909,0.4767441860465116,0.6829268292682927,0.04,51.671974522293,51.74702670883029,51.595358434509976,48.837209302325576,0.5287781147333838,0.471221885266616,9.865078177179361,9.312719483912662,0.5027692788977766,0.4972307211022234,31.939531152829183,31.763119394041794,0.5049322573448575,0.4950677426551425,23.63740063653792,23.40536795081633,1.4309794293691747,1.125774032904018,1.5289706575159847,1.825551861204476,-0.07490541504673409,-0.5332455336506037,-0.2365535222699727,0.0017319772707435777,0.11657887834541372,0.6813829356598187,1.7160476474923585,5.729151362881725,0.9964243026212264,1.1854118386631567,1.1011988364056169,1.5032528377475713,1.7315560188900843,1.5352920069028393,1.7818228036000456,0.734026320299693,Relax
89.3395423502047,671.7386363636364,33.84192269142602,,,,,,,19.29296220917352,19.40477541073275,0.05037959834292778,0.028720935740146326,669.5,27.428099999999997,0.040968035847647494,38.75,1.7541071362973324,641.6,690.2,2.272727272727273,23.863636363636363,614.0,806.0,6.285714285714286,93.75,,,0.03547694346864076,0.013879953791276954,0.00027034063679047706,0.04962723789670819,2.55598426350214,0.714868386237429,0.2796841891576968,-4.277309653067741,13.7212482803311,45.517356301443385,0.30145090566026544,1962.0972328700557,3.317289751741525,3.999690635254751,603.9770383405827,0.4659090909090909,0.4767441860465116,0.6585365853658537,0.08695652173913043,50.11838989739543,50.12873683294956,50.1085430667772,46.51162790697674,0.5007874502053545,0.49921254979464535,9.710040356297712,9.69476003277148,0.5202466598910218,0.4797533401089782,32.830816226890065,31.527245844645535,0.5186256502314097,0.48137434976859056,24.208958856637743,23.323331694268536,1.5044803561496893,1.2256366628149946,1.5177333367240635,2.100490445913772,-0.24489876459285043,-1.151159836870443,-0.024527025936663404,0.0024567541173492924,0.17836215263741975,0.6801724151922559,1.7311348474116202,5.73472210146892,0.9868194558255273,0.9828102628186444,1.2817445766358344,1.4513096546849011,1.7142348314287694,1.562618192245858,1.7569471981813345,0.8808315843596315,Relax
90.1661662248853,665.4090909090909,32.13929322930105,,,,,,,16.778818064219656,16.773129629644,0.04830005130436664,0.02521579325178171,668.5,29.651999999999997,0.044356020942408377,47.0,1.915468247303853,634.4,688.0,0.0,21.59090909090909,589.0,750.0,7.333333333333333,125.0,,,0.038862199398862506,0.031857164888628366,0.0006306831759458262,0.07135004746343669,1.2198888235887757,0.544669566180421,0.4464911520199557,-3.4464929650062768,11.860393702842275,42.38386178932286,0.2798327760173588,1579.2449725484544,3.573562805015976,3.905419612974491,605.8455680930481,0.4659090909090909,0.4767441860465116,0.6585365853658537,0.08333333333333333,42.94478527607361,42.9788173464481,42.89070729230324,48.837209302325576,0.37447433960723475,0.6255256603927654,7.30243667520293,9.43798608789761,0.4403803207597776,0.5596196792402225,28.126421221853093,31.70640581061365,0.43553963440456067,0.5644603655954392,20.54776328635865,23.392004518880633,1.4357181729579402,1.202500116492164,1.585936697739363,1.9111033426518036,-0.13057288597176075,-0.7766919853903218,-0.2295911738778118,0.001651021370774246,0.13684485144509673,0.6768657247043048,1.7206635475443248,5.72614383439888,0.9944744684026293,1.0632291485692504,1.2446943467258005,1.451215947426841,1.7592581228036055,1.5802319712092392,1.7809121362970428,0.734026320299693,Relax
91.20390420387459,657.9,30.660170701020736,,,,,,,18.70228009893116,18.80757758095759,0.046603086640858396,0.028427238332468702,664.5,34.099799999999995,0.05131647855530473,45.75,1.6393814304370822,632.0,687.0,1.1111111111111112,23.333333333333332,573.0,717.0,6.923076923076923,132.8125,,,0.02273043722539672,0.01535017800819361,0.0003373291619583167,0.03841794439554865,1.4807930704949273,0.5916619846019251,0.39955750495521514,-4.176628208391181,13.298965645187193,40.869246712707415,0.32540275916199274,1707.5143800690823,3.0731146920059698,3.9393344798019525,502.3835300961514,0.4666666666666667,0.47727272727272724,0.6190476190476191,0.08333333333333333,50.54517133956386,50.50974766023651,50.58295192535767,45.45454545454545,0.4728878894956633,0.5271121105043367,9.145602520039095,9.655721337396525,0.5604477125461563,0.4395522874538436,30.595966976344215,27.095795460672512,0.5520634593580124,0.4479365406419878,22.580469887405922,20.339801943382533,1.2269030765870825,1.5748027630750343,1.4668125111468373,1.7176164505351066,-0.16093962202115808,-0.4114115720621836,-0.34073945939837086,0.0019962386995122307,0.2008196950237872,0.6539334147318527,1.7100814382137879,5.691418651692922,1.0748970453783462,1.0988082273302966,1.269785219767884,1.4618069562360645,1.7817447205636876,1.700179912404682,2.07118494360666,0.793448711773627,Relax
90.97834812511213,659.6516853932584,29.989809300825804,,,,,,,18.60382414255931,18.709651815450265,0.04546309812419726,0.028202496187769828,668.0,28.1694,0.04216976047904192,40.0,1.6120239081501087,632.6,685.4,1.1235955056179776,23.595505617977526,573.0,717.0,6.846153846153846,132.8125,,,0.015404605977101818,0.011222912282683852,0.00040655321921772224,0.02703407147900339,1.3726032592155264,0.5698219000813898,0.41513955052609725,-4.489797850831378,13.22972167234408,40.450957670851594,0.3270558333870359,1681.2387380772157,3.0575819108433575,3.9325994981589494,494.7284658027447,0.4943820224719101,0.5057471264367817,0.6818181818181818,0.125,50.59952038369304,50.61659331413914,50.58211423340282,44.827586206896555,0.4752602029090194,0.5247397970909807,9.120836319790735,9.583870549660178,0.5625416025783044,0.43745839742169557,30.339340141817985,26.75452141691381,0.5541070054214692,0.4458929945785307,22.401620649110882,20.09545957375376,1.2697857987237273,2.547127815818433,1.619375183400794,2.3141407456881433,-0.9739321483340362,-1.3900348607816841,-0.2272356895587864,0.012751055334772757,0.7582608810626164,0.6807198730185631,2.8763855159214247,5.6747872229310685,1.0607927783003506,1.0502165707001492,1.4338174685592238,1.5929902505214868,1.8058539422932394,1.646253742077282,2.5550361061982665,0.8731325974336717,Relax
91.05912136732043,658.9662921348314,29.929253490600072,,,,,,,18.81307572359762,18.917353110142944,0.045418489303359136,0.028549374904518286,667.0,29.651999999999997,0.044455772113943026,40.0,1.5908750876423257,632.6,685.4,1.1235955056179776,25.842696629213485,573.0,717.0,7.416666666666667,132.8125,,,0.021909817072355356,0.013163748118812891,0.00034527036646474283,0.03541883555763299,1.6644056749341074,0.61859224696148,0.3716595396647933,-4.330288582176104,13.376588666282501,40.32061618904351,0.33175556156102043,1694.4252156229497,3.0142674784249794,3.935992515735364,486.1484883547584,0.48314606741573035,0.48837209302325585,0.6190476190476191,0.08,48.73217115689381,48.72496958553108,48.74242165835267,45.348837209302324,0.4460604893084184,0.5539395106915815,8.935593297940931,9.957669025117932,0.5588876454999184,0.4411123545000816,30.143204170604545,26.779457279665085,0.5476971550875768,0.45230284491242334,22.231257108595525,20.202654585563756,1.3050878647616113,2.2207205880376586,1.6177199694645066,2.268921841624324,-0.9129883564254211,-1.555230976270411,-0.2067610055638505,0.008300907409658881,0.555916715233401,0.6132092707171188,2.1972245773362196,5.759166717361709,1.0586566437022649,0.9054998647560435,1.085951355463421,1.3099212891169278,1.7618874394871287,1.6530300752783642,2.3813359671576673,0.6548494480752537,Relax
91.16614002103864,658.3333333333334,29.770658958636783,,,,,,,18.826529214042374,18.92696030411175,0.04522125411438498,0.028597259565633984,667.0,29.651999999999997,0.044455772113943026,38.5,1.581314251828817,633.0,684.2,1.1111111111111112,25.555555555555554,573.0,717.0,6.428571428571429,125.0,,,0.017928208094516677,0.011306298675822474,0.0003586240152126366,0.029593130785551786,1.5856832203499607,0.6058232981307183,0.3820582133656008,-4.482395303616229,13.383381978286016,40.00153533825636,0.33457170743860226,1681.8699336302716,2.9888958861935793,3.932762516827492,478.24169765576613,0.5,0.49411764705882355,0.6190476190476191,0.08333333333333333,51.68363351605324,51.654977654524245,51.71044859453219,42.35294117647059,0.4631478839752734,0.5368521160247265,9.11105721836734,9.809260466981744,0.563854923162742,0.4361450768372582,30.037262442378257,26.417526273015522,0.5537107910337016,0.4462892089662982,22.19514021884826,19.926204923348504,1.2543943316107398,0.8376712624213507,1.2543943316107398,1.5737037670882774,-0.3287850144918085,-0.9978006412470704,-0.11881295228566141,0.0008099081332346485,0.05722833788260196,0.6488227838825122,2.159484249353372,5.690309035358369,1.0736062341101777,1.1996353947421579,1.153669797226493,1.3133473004967766,1.7060186040688319,1.6590893200031707,2.7140436540001973,0.793448711773627,Relax
91.2408279159509,657.6741573033707,29.267875377473818,,,,,,,18.521793060657444,18.62574467454377,0.04450209127492474,0.028162567823253763,662.0,26.686799999999998,0.04031238670694864,37.0,1.5801858535846818,633.0,680.8,1.1235955056179776,24.719101123595504,573.0,717.0,5.933333333333334,117.1875,,,0.021056496263205986,0.013912354825479832,0.0005491699577109703,0.035518021046396786,1.5135105830281148,0.5928397935149632,0.391698479127153,-4.274977997261164,13.170390364019125,39.442866865936224,0.33391057523238454,1631.9881230470846,2.9948138039774617,3.9196871037706367,472.4961686342042,0.48314606741573035,0.47619047619047616,0.6,0.04,48.977923139820106,48.987925854846964,48.9706591946004,44.047619047619044,0.43906720991089465,0.5609327900891053,8.728010135164842,9.865183175210674,0.5692616888464833,0.4307383111535167,29.759419274531822,25.886612583468587,0.5561988719989719,0.443801128001028,21.929445917269735,19.58875379046679,1.286600739010327,1.2656559954992552,1.31790887152133,1.9091529600716424,-0.9586180408088509,-1.854898669033596,-0.0328556174404341,0.0017239591812233939,0.1541624022404286,0.6015354017282903,1.7391157357426328,5.704618931156391,1.0505922787450668,0.8371384120441833,1.104703643605768,1.7261168287305337,1.7346485200955997,1.6426646209806637,2.2804060765760714,0.727610497861393,Relax
91.43398969556202,656.3666666666667,28.977112238935494,,,,,,,19.05373831614743,19.159263421966898,0.044147751113100646,0.029029107180154532,660.0,25.9455,0.03931136363636364,36.5,1.520809814753167,633.0,678.4,1.1111111111111112,27.77777777777778,573.0,717.0,6.923076923076923,117.1875,,,0.035580574664471364,0.02179429607001304,0.0006231141833724877,0.05799798491785689,1.6325636097706766,0.6134794978629771,0.37577678088093086,-3.826106991587486,13.54764508821217,38.79998505996783,0.34916624496822424,1651.3732366982524,2.863965272734209,3.9248153518006763,444.487239177416,0.4888888888888889,0.4823529411764706,0.6341463414634146,0.038461538461538464,51.042471042471036,51.02080197713777,51.06335372139845,44.70588235294118,0.47194453901148214,0.5280554609885179,9.308170897364608,9.845972873118319,0.5644693580063102,0.4355306419936902,29.15088499345386,25.60595135417067,0.5544125505006675,0.44558744949933243,21.638116153631756,19.398555701009503,1.2373197201316672,2.8515429484364825,1.5620599371370116,2.521650842206323,-1.8931418775073574,-2.5312336031350346,-0.16348362187725046,0.012540320673127214,0.8997158282868856,0.5196205490598751,1.550597412411167,5.693249729874929,1.0998659232125845,0.459569871215737,1.0284634352993085,1.4225133634727327,1.867851523546806,1.6569689953681552,2.543105555912051,0.793448711773627,Relax
91.34583006429334,656.8,29.43749806173805,,,,,,,19.136705127739923,19.23580887842657,0.04481957682968644,0.029136274555024246,660.0,28.1694,0.04268090909090909,37.75,1.538274110680968,633.0,680.4,1.1111111111111112,27.77777777777778,573.0,717.0,7.5,117.1875,,,0.03996583946876548,0.023018668897367225,0.0007904489774796542,0.06377495734361235,1.7362359069049644,0.6266697953780509,0.36093585721030286,-3.7714497011062513,13.601770899543824,39.2271644273352,0.34674366852949273,1676.2247317423062,2.883974793947661,3.9313023540965566,452.52061378590025,0.4888888888888889,0.4823529411764706,0.6585365853658537,0.03571428571428571,47.95050270688322,48.03037800691363,47.87165463641925,47.05882352941176,0.43193323719817145,0.5680667628018287,8.943636640854567,10.256649727682214,0.5633309966368072,0.43666900336319286,29.442097061333723,25.921677215029835,0.5492162539469856,0.45078374605301447,21.758052713106384,19.71208022097821,1.2813848069330378,1.5110866606022357,1.3767013151825185,1.9419216752819444,-1.2169851034481063,-1.896219823342281,-0.12595106234730424,0.0019132626111767583,0.18887897674191112,0.514887757451775,1.4816045409242158,5.7442507350502945,1.0837782625132395,1.1717847945798432,1.0925377800203582,1.52433978163825,1.8571068089724574,1.6615350653078513,2.0203104175960065,0.793448711773627,Relax
91.88508562093389,653.0666666666667,27.365524115433267,,,,,,,19.785933035048302,19.897573522255026,0.04190310960917711,0.030296957485272,654.5,26.686799999999998,0.04077433155080214,36.25,1.3830797904227548,632.8,676.0,1.1111111111111112,28.888888888888886,573.0,713.0,7.5,117.1875,,,0.015082776435990868,0.01788649513423845,0.0009500893678927646,0.03391936093812208,0.8432494081593054,0.4446657017950856,0.5273240603461888,-4.0237093126593315,14.069709166744428,35.74173011629154,0.3936493594732638,1579.8307551218636,2.5403318357689817,3.9055806740974734,363.1834195195136,0.4666666666666667,0.46511627906976744,0.65,0.03571428571428571,50.439882697947205,50.41717108881538,50.46395808266687,46.51162790697674,0.46633373514723614,0.5336662648527639,9.608235104231255,10.278508027565444,0.6013396678282009,0.3986603321717992,27.716315595469183,22.56716910731547,0.5832253268425541,0.4167746731574459,20.74261714449059,17.53460647962909,1.1585158053419202,1.7378079378930753,1.343138362351604,1.9502444494512607,-1.3069743175179518,-2.1316051905470417,-0.15064834043990247,0.0022009996033545212,0.2573183350530077,0.5118323784917855,1.5353299402803784,5.802529762804034,1.1513334681066885,1.280392936413158,1.016573751822612,1.5337637470604237,1.991425367733929,1.714012300230324,2.2271782003990976,0.9377121139142864,Relax
91.88387185407767,653.2777777777778,27.68158751121535,,,,,,,20.659899822461806,20.773401709647803,0.042373379981450486,0.031624984846016876,657.5,26.686799999999998,0.040588288973384026,35.25,1.3398703647691188,628.8,676.2,2.2222222222222223,27.77777777777778,573.0,713.0,6.923076923076923,109.375,,,0.031020671111840127,0.025426336478985116,0.0009242765460635067,0.05737128413688875,1.2200212617133708,0.5407003098941334,0.4431892515830305,-3.671969772883896,14.689013217204183,36.40835669431946,0.4034516949098119,1680.1326503278951,2.478611473483935,3.9323136815871624,360.9686825329434,0.5222222222222223,0.5232558139534883,0.7333333333333333,0.06896551724137931,48.802816901408455,48.7929857094698,48.81482667095429,44.18604651162791,0.4072075392229124,0.5927924607770876,9.375075757269668,11.311448343884335,0.6072684707545869,0.39273152924541316,28.372097520756725,22.81649665162175,0.5792542813766544,0.4207457186233457,21.128984395633825,18.007517639722447,1.1656673459776885,2.6493781968049985,1.4172866041107752,2.4499442505840077,-2.0184472946897998,-2.937622907097439,-0.11022641172235832,0.011352963473320555,0.807677452902849,0.4948057335098186,1.504077396776274,5.797082818407667,1.173258782167727,0.8451965961005068,1.1517359507707214,1.6466625340949377,1.9682999370294132,1.720842672624319,2.6286828297020497,0.8655804128439567,Relax
91.69470012261777,654.4333333333333,28.794135638893753,,,,,,,21.75708589211464,21.88006471355271,0.04399857735276385,0.033245687198260036,657.5,27.428099999999997,0.041715741444866915,38.0,1.3234371451063458,628.8,677.2,3.3333333333333335,32.22222222222222,573.0,716.0,7.5,117.1875,,,0.053291823667414404,0.04113573016626427,0.0012902791074765598,0.09571783294115524,1.2955117959986873,0.5567596134377257,0.4297603581513741,-3.1908781880322308,15.471542131753614,37.907366866046736,0.408140776077257,1842.4982981309258,2.450134999034524,3.972377205346237,371.51266511897103,0.5,0.5,0.6976744186046512,0.03333333333333333,50.33783783783784,50.34213299745958,50.333505520911224,47.674418604651166,0.4740327557559933,0.5259672442440068,10.652304488188971,11.220668834383675,0.5841797744782123,0.4158202255217879,28.973227512349297,24.4442334761126,0.5684512300641122,0.43154876993588764,21.82795802854043,19.018727077877912,1.0578171779954497,3.119125243267544,1.3912396142372079,2.3424756433841942,-2.14056891548697,-2.493256408753525,-0.19503115298105583,0.012480456028289044,0.9581486926778628,0.44942486007084215,1.3862943611198906,5.813858096233522,1.1529063790074539,0.5756462732485114,1.1175470054459868,1.66816551286072,2.007794555459931,1.7725491773371969,3.006647500816093,0.8655804128439567,Relax
91.3616149435496,656.7444444444444,28.431491130261485,,,,,,,22.70672820152603,22.832862989074204,0.043291559404529646,0.03457467877133576,661.5,24.462899999999998,0.03698095238095238,36.0,1.2521174727564104,634.6,678.2,3.3333333333333335,34.44444444444444,573.0,716.0,6.428571428571429,117.1875,,,0.05465792712200594,0.0808066449950971,0.002694667393645127,0.13815923951074818,0.6764038666043156,0.39561543126295073,0.584880499351697,-2.5156960767982834,16.14527225347771,37.00216361727447,0.43633319447137103,1876.8188846754263,2.2918265506054976,3.9803924746549564,339.2101640316735,0.5222222222222223,0.5232558139534883,0.7333333333333333,0.06896551724137931,50.96401028277635,50.96852006066004,50.95847345528212,47.674418604651166,0.4795807182705717,0.520419281729428,11.182118436471361,11.648497757221744,0.577561503227723,0.4224384967722772,28.12070718623235,24.04965570867347,0.5618878664628156,0.4381121335371843,21.39876100830481,18.895415313055842,1.1635294715759792,1.8656628214147943,1.3083594707448998,1.873856550536713,-1.5590743153596929,-1.9594554286035128,-0.19689213222195315,0.001904250775985979,0.2402538467202676,0.4563626451546212,1.4384801142904609,5.827692679542816,1.2115981606161483,1.2049489698416522,1.0927937023947603,1.5403623738393257,1.9747841618626862,1.788594967402567,3.0545413894313103,0.8655804128439567,Relax
90.72826131469418,661.4494382022472,22.579159355051214,,,,,,,21.095023109728988,21.213831473074944,0.034135881068126823,0.03189211735830199,664.0,20.7564,0.031259638554216866,30.0,1.0703548053776601,643.0,679.0,2.247191011235955,30.337078651685395,608.0,716.0,5.933333333333334,85.9375,,,0.048761774485937125,0.049972095655436116,0.0015038991176631003,0.10023776925903635,0.9757800597788753,0.4864610899303437,0.4985355921708241,-2.996290516233723,15.000444089559899,28.11933444619502,0.53345658369911,1325.1316484472534,1.8745667980433782,3.829229136426349,210.84628294365868,0.5168539325842697,0.5176470588235293,0.75,0.07142857142857142,50.90529247910863,50.93855876618105,50.87246496481283,49.411764705882355,0.5051327885597547,0.49486721144024526,10.662265615054663,10.55336738763466,0.4970952180691516,0.5029047819308484,19.82553107934646,19.94104528651488,0.49887607692319924,0.5011239230768006,15.917531068355254,15.95335153403867,1.0984523483514965,2.900307053475979,1.3639523270731049,2.2250552342089644,-1.9015419782804415,-2.0723259197632213,-0.20309939904333946,0.01157392836161987,0.8050848401634472,0.5279747085390065,1.8908503718722862,5.727090841268751,1.3029596334483782,0.8479628287890197,1.1171183115668506,1.3690279748869116,1.9078983814318695,1.82453680094569,2.6221135258607906,0.945893647219811,Relax
90.81395858549863,660.7,21.11096951131959,,,,,,,20.575702917805692,20.68968522152726,0.03195242850207293,0.031142277762684564,662.0,21.4977,0.0324738670694864,28.5,1.0260144985399595,643.8,677.2,2.2222222222222223,30.0,608.0,716.0,6.0,85.9375,,,0.04127378577793508,0.05843648316740348,0.0016876515963064169,0.10139792054164497,0.7063016721882068,0.40704765499587925,0.5763084968138289,-2.8398148724285166,14.629816720757022,26.12540717190557,0.5599842568765573,1200.7478726546472,1.7857644884121082,3.786421935841047,186.6152974915839,0.5444444444444444,0.5465116279069767,0.7872340425531915,0.06896551724137931,48.98102600140547,48.9853926127296,48.9775215288244,47.674418604651166,0.4574696780700125,0.5425303219299875,9.896337706444744,10.777185498669272,0.5708855320146569,0.4291144679853432,19.739565375605952,17.11392586988834,0.5438053851698642,0.4561946148301356,15.613903118980554,14.30094727549124,1.0650089722437783,2.4558466893831272,1.2482993232403963,1.9267562168358616,-2.121996233952027,-2.121972466291411,-0.2237380914173092,0.003692701926470386,0.4133767012866248,0.579963067623221,1.840549633397487,5.630920391270075,1.3736365763502159,0.8560644165669693,1.1493329445810962,1.4784909595695528,1.8292931256348752,1.8350105658232727,3.0697402044483715,1.0819755160549458,Relax
91.78577730293252,653.8888888888889,31.147869313911414,,,,,,,24.971894313767578,25.112728481133015,0.04763480438830972,0.038189812884266476,658.0,22.9803,0.03492446808510638,29.75,1.2473170406114877,635.0,677.4,3.3333333333333335,31.11111111111111,557.0,716.0,6.0,132.8125,,,0.044218409721360555,0.06685383358470642,0.0029417366866877495,0.11401397999275473,0.6614192088974837,0.3878332264531991,0.5863652298512411,-2.705246631009501,17.7573806031057,40.38739563590697,0.43967629810024833,2253.0696877599244,2.2744005176553665,4.059744734682309,367.4284541642356,0.5222222222222223,0.5287356321839081,0.782608695652174,0.06896551724137931,50.50125313283208,50.458167876124506,50.541836804042305,49.42528735632184,0.5883603603603604,0.4116396396396397,13.621089931025743,11.393279518287006,0.438127833659954,0.561872166340046,26.732912129336558,30.27363762973401,0.46246633053865965,0.5375336694613404,21.215356252298953,22.872472029912565,1.1341926274985765,1.3285340865381574,1.2447397067226231,1.3241802834314926,-0.6521866202404514,-0.31212416089415296,-0.44020433685982974,6.271771689292709e-05,0.06104055896163381,0.6448739858737937,1.5141277326297753,5.594863585738558,1.1329012284277131,1.1900041434410196,1.297749823430656,1.539069757386814,1.8217354263095635,1.800834869352967,2.4268421475237347,0.9377121139142864,Relax
91.09744705902001,658.5056179775281,34.84841316183356,,,,,,,25.530730146593573,25.668481663086197,0.052920449287682136,0.03877070969418035,663.0,26.686799999999998,0.040251583710407234,36.0,1.3649595198311708,638.2,682.0,3.3707865168539324,32.58426966292135,558.0,747.0,6.357142857142857,132.8125,,,0.04658209203857169,0.05097748884463616,0.0021229461349511316,0.09968252701815898,0.9137776907870002,0.46730448587128937,0.5113984403239465,-2.9763711389045615,18.150357446730798,45.51359930886666,0.3987897622325568,2595.2322940614863,2.5075869410530243,4.12114634671813,456.51722906893593,0.5056179775280899,0.5172413793103449,0.7555555555555555,0.06896551724137931,51.751207729468604,51.63399619209051,51.868249484687965,49.42528735632184,0.5828277545327752,0.4171722454672245,13.86117541581687,11.727019591769562,0.4541716685083341,0.5458283314916659,30.672643104517398,33.62553623410291,0.47183498388964396,0.5281650161103559,23.800664055075696,25.18133907814192,1.2432569492796028,0.8332936737711654,1.2432569492796028,1.5312307821344855,-0.5957609230708147,-1.175457903415257,-0.15441495367218583,0.00019035865556551207,0.03434236937043022,0.6140227461014032,1.6933193964148026,5.6651832569504705,1.1165243407368204,1.2261593234491892,1.2162426172208314,1.5704177497266782,1.7508590098954682,1.7010774170262344,2.5228601789821083,1.0914157467920895,Relax
91.32640425261343,657.1111111111111,34.67422850399222,,,,,,,25.891302604577426,26.03720230715383,0.05276767949542272,0.039401711775650466,659.5,28.9107,0.04383730098559514,38.25,1.3392230214737062,636.6,682.0,3.3333333333333335,34.44444444444444,558.0,747.0,7.5,140.625,,,0.05824704457427041,0.03784343919228758,0.0012997527965084217,0.0973902365630664,1.5391583275058425,0.5980788899362794,0.3885752877063969,-3.274297651183057,18.41108231451449,45.71583493539907,0.40272877746914487,2644.2094217155686,2.4830606997698723,4.12926595831462,454.060772341024,0.4888888888888889,0.5056179775280899,0.7555555555555555,0.07142857142857142,49.46871310507676,49.442431432503945,49.49371408138857,51.68539325842697,0.5556970936274345,0.44430290637256536,13.724977231310804,12.272474744876698,0.4440484259220694,0.5559515740779306,30.463642026173538,34.086714103031504,0.4596304677371213,0.5403695322628785,23.62634636903098,25.617549792139013,1.2865841210123299,1.2797860529066893,1.4388555953467903,1.729865900469051,-0.5995961797756415,-1.143718520681019,-0.2726101917884562,0.00044632561442505204,0.09847908794723555,0.6094801498488729,1.6916760106710724,5.743141118715741,1.127781726633486,1.1150193961632853,1.4792235399390907,1.720197027173997,1.7534770755120062,1.661860804348153,2.689563265088113,1.0819755160549458,Relax
91.27838645772061,657.3820224719101,34.92020306680306,,,,,,,26.04017874537172,26.185008114334305,0.053120106533328874,0.03961194230328137,659.0,28.1694,0.04274567526555387,39.0,1.3410124180890903,636.2,682.0,3.3707865168539324,34.831460674157306,558.0,747.0,6.846153846153846,140.625,,,0.05458152950375643,0.0365760629686394,0.0007983992347095398,0.09195599170710536,1.4922745936476285,0.5935614253131801,0.3977561688980534,-3.3083612697876834,18.515596803070558,45.97552560947967,0.40272724580342456,2674.3256554176082,2.483070143429309,4.134184400598848,456.6418198774742,0.47191011235955055,0.4886363636363636,0.7209302325581395,0.07407407407407407,51.229508196721305,51.21820898518615,51.23572304524993,48.86363636363637,0.5628267864324977,0.43717321356750244,13.893064506411475,12.244398203109936,0.4477751117762167,0.552224888223783,30.764982929011996,34.16525692052558,0.4638357821949568,0.5361642178050431,23.869451355254377,25.663106474098598,1.299233587677255,1.2814431667264126,1.430006374032775,1.6912733019357051,-0.6838152912319391,-1.0472937965620703,-0.2961150875146768,0.0003031099849389157,0.08491327913122035,0.5920869532102975,1.4975199962301151,5.6651832569504705,1.1358020496780068,1.2903482437182334,1.2863725446603544,1.4398488230528281,1.7420248240586373,1.6688780936826173,2.5544533663012694,1.1641767965782288,Relax
91.26249087449982,657.4888888888889,34.48668345652003,,,,,,,25.81851091015858,25.96178046559635,0.05245211598145812,0.03926836079890276,660.5,25.9455,0.039281604844814536,34.0,1.3357347980495213,637.8,681.2,3.3333333333333335,34.44444444444444,558.0,747.0,6.923076923076923,140.625,,,0.060470109393117505,0.043250148275733064,0.0014345437614437142,0.10515480143029428,1.3981480250102698,0.5750579961220538,0.4112997950398205,-3.1407546172694767,18.35775101889962,45.17685002681407,0.4063530548943461,2605.465304748848,2.46091419261018,4.1228554042918795,444.70540563363346,0.4777777777777778,0.49438202247191004,0.7272727272727273,0.07142857142857142,48.96876841484972,48.992248388534385,48.943519547723334,50.56179775280899,0.5439176091830027,0.4560823908169974,13.540553567306283,12.399138533125452,0.4321299996782668,0.5678700003217333,29.697723192185833,34.04398648139724,0.4479758486076791,0.5520241513923211,23.079226088722983,25.619637506307487,1.2914244336891363,0.6095969968916393,1.3535843048960443,1.2863545111393258,0.3686764446998758,0.14156555030143103,-0.6102856380519033,0.00011051294928634636,0.015016160379774029,0.6256698980287223,1.5328978353117662,5.722028512828072,1.0778462448281874,0.9862830661447287,1.3192193792790292,1.4825678865007226,1.709157948452103,1.6758495209303017,2.19767076445587,1.0819755160549458,Relax
91.4469719380882,656.1111111111111,34.38265974130553,,,,,,,25.969299073752886,26.114782581027573,0.05240371510105839,0.039580642110715665,658.5,27.428099999999997,0.041652391799544414,37.5,1.3239733442038106,633.8,679.2,3.3333333333333335,35.55555555555556,558.0,747.0,7.5,140.625,,,0.05572606112270284,0.030266775039360903,0.000974030699359457,0.0869668668614232,1.8411628278940524,0.6407734707920337,0.34802650861953327,-3.497704701453785,18.465939852256927,45.20497381720397,0.4084935415940716,2622.4517797394315,2.4480191194643672,4.125677621322863,442.65056079760575,0.4666666666666667,0.4831460674157303,0.6744186046511628,0.07407407407407407,49.24065420560747,49.20709130900956,49.27330239907406,50.56179775280899,0.5454166805504649,0.45458331944953523,13.638390000956191,12.451040482261275,0.4359416511244054,0.5640583488755945,29.846980676160918,33.95066129445747,0.4515987470780747,0.5484012529219252,23.203964502874342,25.570254314553477,1.265014088086744,0.6912949009338059,1.2694140717338667,1.3010878025126575,0.047614596979633106,-0.07875175794383527,-0.45418202747336084,0.00017165495562545069,0.017193126925005263,0.6047625267486199,1.6700625342505353,5.654252229826851,1.1299562195104755,1.1566374165900422,1.3959606123321449,1.5109861912315563,1.7468105335956523,1.6953378921277842,2.723044361740274,1.0819755160549458,Relax
91.85116828933796,653.3186813186813,34.67047386814547,,,,,,,25.79513304654366,25.93789037881398,0.05306824197674154,0.0394832319726077,657.0,29.651999999999997,0.0451324200913242,42.0,1.3440703641879852,627.0,679.0,3.296703296703297,35.16483516483517,558.0,747.0,7.583333333333333,140.625,,,0.047265597283549586,0.025227085488078012,0.0006683488548985442,0.07316103162652614,1.87360514974616,0.646048808125505,0.3448158798095922,-3.6798370407157672,18.34085817653267,45.68584099494865,0.4014560699136646,2632.3955577055676,2.4909325700693867,4.127321259197489,455.20139730131507,0.45054945054945056,0.4666666666666667,0.6666666666666666,0.034482758620689655,49.21190893169877,49.206975835949336,49.216460122451814,50.0,0.5321031977957752,0.4678968022042247,13.379718006467261,12.546542565068618,0.4451978789528844,0.5548021210471155,30.483032365109025,34.029117021213544,0.4572615179038273,0.5427384820961729,23.539669879852486,25.645628629266664,1.226116599096397,0.7328052301410963,1.2464281191825601,1.5430364979223956,-0.5307724704006826,-1.3288203330323736,-0.09524254666860704,0.00045107631211743787,0.04100301931129362,0.5997328770522281,1.635755220751474,5.7244516455267815,1.1046763200300058,1.5955216528191283,1.3162517557192723,1.4054725641896075,1.8133546168432115,1.694025580370832,2.432857261148029,1.001199175415184,Relax
92.3473393897101,649.9120879120879,34.70915612522896,,,,,,,24.51144857227151,24.648705374809897,0.05340592484859888,0.03771502181320732,653.0,31.1346,0.04767932618683001,40.5,1.4160385512463578,625.0,676.0,1.098901098901099,31.868131868131865,558.0,747.0,8.272727272727273,140.625,,,0.0485270588402971,0.0312397362973611,0.0012044167515598272,0.08097121188921803,1.5533760713721614,0.5993124927744705,0.385812878039941,-3.466064395231903,17.42926671799738,45.94935672314588,0.37931470560104286,2515.98718296076,2.6363333275345884,4.107678534340907,484.5512820320199,0.45054945054945056,0.4666666666666667,0.6904761904761905,0.03333333333333333,49.845774213448486,49.83437430539558,49.85515808093922,50.0,0.5472231982690068,0.4527768017309933,12.89325230716361,11.727955653916188,0.43977918632902635,0.5602208136709739,30.471706141206706,34.39212857784258,0.45329378628865824,0.5467062137113418,23.39616240125968,25.69400175074993,1.3062267269600283,0.8773228148563259,1.3388935027046736,1.5304498681043084,-0.7276007592152514,-0.9945125572812659,-0.2816580600026857,0.0009110067817847026,0.052687492530068915,0.5804529979662321,1.6357552207514738,5.741042579640264,1.078734527294468,1.4435489225649991,1.3342318852475086,1.419638649852983,1.810002882440136,1.679632765347813,2.3226923388469585,0.8581707217844434,Relax
92.35436397796423,649.6923076923077,34.63931366644049,,,,,,,25.0317576068659,25.17068078213628,0.053316490369846835,0.03852863472522575,653.0,29.651999999999997,0.04540888208269525,40.0,1.3838146809531011,625.0,675.0,1.098901098901099,32.967032967032964,558.0,747.0,7.0,132.8125,,,0.0491224094616819,0.0321327069040284,0.0008359264983030814,0.08209104286401338,1.5287354908628488,0.5983893948460961,0.39142768544501655,-3.4378808609116835,17.798359068130473,45.854217918027004,0.3881509679207346,2563.947494933026,2.576317161739534,4.11587923732404,472.5400342414297,0.45054945054945056,0.45454545454545453,0.675,0.03333333333333333,49.30847865303667,49.303456593293625,49.312919270246574,48.86363636363637,0.5299593921231359,0.47004060787686414,12.957579882234738,12.203103307645915,0.4513543778638416,0.5486456221361583,30.8061992606467,33.964501880452154,0.4616474135745693,0.538352586425431,23.63176664250013,25.519630858657777,1.2853342854094354,0.41331176577303363,1.2853342854094354,1.3479167274191517,0.22201285863740683,-0.32760837810942345,-0.34858296522803833,0.00014434231916938457,0.008667325432640488,0.6004912674480178,1.9315214116032136,5.741042579640264,1.0683725525703693,1.2988945136447703,1.3792217503543456,1.5178900382176965,1.8157427076518868,1.6494339716117818,2.438121571671726,0.9296849485998138,Relax
92.5036491621652,648.8131868131868,34.43735442410435,,,,,,,24.400819658363936,24.53523034515649,0.05307745761650174,0.03760839044936009,652.0,28.1694,0.04320460122699386,38.5,1.4113195747627338,625.0,675.0,1.098901098901099,31.868131868131865,558.0,747.0,7.583333333333333,132.8125,,,0.04142095799687016,0.027193604257175163,0.00021890350997824963,0.06883346576402356,1.5231874967784398,0.6017561012962854,0.39506370855131556,-3.6047734709332206,17.349027755034108,45.53082395572686,0.3810391784674029,2481.592821347005,2.624402047112717,4.101700634123337,477.96475038455327,0.4175824175824176,0.42696629213483145,0.6052631578947368,0.0,50.92478421701604,50.871917407669024,50.97435694598562,47.19101123595505,0.5462994065614153,0.4537005934385847,12.82422216578079,11.686927297751165,0.4636359547338521,0.5363640452661478,31.002310645542877,33.34535446992054,0.4741179921590164,0.5258820078409837,23.72344767861582,24.984964822744605,1.3060380679052026,0.4558176216959904,1.3060380679052026,1.3032451860418082,0.1965080829291299,-0.059016819587982106,-0.5061271915135768,0.0004735510808658654,0.016644619795514903,0.5693407260874546,1.4350845252893227,5.897797112678621,1.0701861378840312,1.067482970810887,1.1374503475086752,1.3477811040335608,1.7881227737316046,1.6522456028937273,2.5532938694043334,0.8581707217844434,Relax
92.2208274172044,650.7444444444444,35.00708150225991,,,,,,,25.57584007428921,25.7201883719315,0.05379543659745918,0.03930243322495653,653.0,29.651999999999997,0.04540888208269525,38.75,1.3687558805722946,626.0,676.0,2.2222222222222223,33.33333333333333,558.0,747.0,7.5,132.8125,,,0.04233797133046852,0.03490918047589099,0.00028502033070834925,0.07753217213706787,1.2128033586955158,0.5460697174280106,0.4502541269471416,-3.3550054334804447,18.186919611188152,46.32660952136081,0.39258041542630734,2646.9122066080436,2.5472488201279453,4.129709646722909,472.02160577525734,0.4444444444444444,0.45454545454545453,0.65,0.03225806451612903,49.54900781719784,49.52845008881887,49.56820524943238,48.86363636363637,0.5132177886184446,0.4867822113815552,13.029250309836081,12.689249207677555,0.4497397971204929,0.5502602028795072,31.067848360311906,34.36485920246585,0.4582168724767977,0.5417831275232026,23.821970587838646,25.90328737303286,1.259000611330266,1.604427918052921,1.332607997784694,1.6792687752243647,-0.8618074715673778,-0.7648929074132917,-0.28393496302385074,0.0018212417462696636,0.1604126935422288,0.6763478755265093,1.4759065198095778,5.795973202073113,1.0842631177598934,1.4705948135933586,1.230498535894883,1.6320624981723626,1.7596604032758703,1.6588571381029478,2.7603101655729656,0.8655804128439567,Relax
91.88813858270474,653.1428571428571,34.88443506098113,,,,,,,25.424397731313125,25.560727913845547,0.053410114922762014,0.03892624324566751,657.0,29.651999999999997,0.0451324200913242,41.5,1.3720850117923094,627.0,677.0,2.197802197802198,32.967032967032964,558.0,747.0,7.583333333333333,140.625,,,0.03937208780632104,0.05386222198335261,0.0008888491501977901,0.09412315893987144,0.7309777865920554,0.4183039355008585,0.5722525953231269,-2.921325937652896,18.07416403994446,45.85108338622313,0.3941927366840628,2603.5006718367204,2.5368301009601786,4.12252780404377,465.2656339832239,0.42857142857142855,0.43820224719101125,0.6153846153846154,0.03333333333333333,51.491646778042956,51.55220391704059,51.429154113381216,49.43820224719101,0.5459811606160616,0.45401883938393844,13.358286575183177,12.181446566374545,0.43365124736218624,0.5663487526378138,30.193947930135142,34.505758303255334,0.44876472311513604,0.5512352768848638,23.34650200600115,25.87503619835258,1.1930336279179217,0.9243113516405517,1.2586686487769891,1.5395239877751785,-0.7431792876665835,-1.2389429793848272,-0.19614639212241436,0.0010503473405153961,0.0696166836640352,0.645735989066214,1.6094379124341005,5.842637222473632,1.0800110612124332,1.0731497400662868,1.075600691945974,1.2442197627344993,1.7515483888033099,1.7305664964077387,2.177948703003407,1.001199175415184,Relax
91.84411398143988,653.2888888888889,30.03303216832211,,,,,,,21.628372959007635,21.7286873260014,0.04597205413886982,0.03310690465866194,654.5,29.651999999999997,0.04530481283422459,39.0,1.3885941501583992,626.8,676.0,1.1111111111111112,31.11111111111111,581.0,747.0,7.5,109.375,,,0.018883650196010564,0.03797966326041673,0.00022612659641512318,0.057089440052842416,0.4972042555124899,0.33077308480397977,0.6652659970961786,-3.2707044398717224,15.36450215449778,39.062268589712914,0.3933335853039533,1885.4969196893817,2.5423712527045916,3.9823959372030338,397.2431549116465,0.4444444444444444,0.45454545454545453,0.65,0.03225806451612903,47.143795141168745,46.99370364586024,47.28689436148831,50.0,0.40573583455432,0.5942641654456802,9.796799106201613,11.85638493118217,0.4653830972687263,0.5346169027312739,26.647886179671726,28.56135482658575,0.4573772348106985,0.5426227651893016,20.075944692243155,21.866925403065892,1.1008136663418548,1.5276040339773198,1.2378989278439698,1.7106742364264131,-0.9118756292198906,-1.4589046711395968,-0.19051187476147854,0.0016580064206719325,0.18202961102812784,0.6666056204966595,1.536867219599265,5.810917401716962,1.1314200466939808,1.3773640886880107,1.1653936241972462,1.2725177811858226,1.8437245048014856,1.7635055838378901,2.760357095644411,1.0819755160549458,Relax
92.52283010627373,648.5934065934066,26.360735962571308,,,,,,,20.731082407288284,20.847032200304902,0.040642929290671086,0.031963140846857675,652.0,28.1694,0.04320460122699386,39.0,1.2715561804579893,626.0,672.0,1.098901098901099,30.76923076923077,580.0,709.0,7.0,109.375,,,0.031674348337805316,0.048257402725563205,0.0006390117759496216,0.08057076283931815,0.6563624759901674,0.39312459286221857,0.598944344387091,-3.031206038601452,14.741077836449907,34.4342685625193,0.42809324698405654,1594.666880149089,2.335939674463594,3.909640084362678,321.7454963852932,0.46153846153846156,0.47191011235955055,0.6666666666666666,0.030303030303030304,50.27027027027026,50.27161579856563,50.26821554496607,47.19101123595505,0.4316442605997931,0.5683557394002068,9.684923996035733,11.113308147330752,0.5264891492211045,0.47351085077889554,24.98535789833337,23.69495182792942,0.5117993505330702,0.48820064946692965,18.948164318962384,18.506166000895806,1.0355077539140087,0.7002766460243508,1.1126334373139273,1.385646076926184,-0.23797759872884683,-1.2435546096933665,-0.11013602101081155,0.00035279120454757834,0.04094737150768323,0.5951730893410967,1.6545583477145698,5.707860711413299,1.1848260874180925,1.1399857449959276,1.1170078114075683,1.5789022996445092,1.9082120620437368,1.7595351203544247,2.991740770770718,0.9296849485998138,Relax
92.53242086213659,648.4175824175824,26.817103138799702,,,,,,,21.570556063506775,21.691216284941238,0.04135776676322362,0.03326645767852619,652.0,28.1694,0.04320460122699386,41.0,1.2432272519932426,625.0,672.0,1.098901098901099,34.065934065934066,580.0,709.0,7.583333333333333,109.375,,,0.029643574182225726,0.03112342721244756,0.000584631546074258,0.061351632940747546,0.9524521184598211,0.4831749826586528,0.5072958244242021,-3.4697944568010017,15.338006127266018,34.76022379893159,0.44125165062192306,1674.9480577091188,2.2662804741705735,3.9309714535137097,315.10566589327175,0.46153846153846156,0.47191011235955055,0.6904761904761905,0.029411764705882353,49.74293059125963,49.755441014160745,49.730302214144096,48.31460674157304,0.4348075269844303,0.5651924730155699,10.1139574268167,11.531101080765508,0.5154707984252279,0.484529201574772,24.95655284197867,24.1959424035795,0.5023247650834592,0.4976752349165408,19.041030231921987,18.952703249565324,1.0222772453024533,1.794756829153814,1.1753255936430578,1.78291063308649,-1.4820268649119868,-2.102063931705228,-0.16146665131794247,0.0021280513399173644,0.24977435600571457,0.531343277886926,1.6422277352570913,5.754725134561545,1.2368160489324953,1.1020068391388487,1.2121204754250257,1.6440566546899258,1.918782184045648,1.7728716798424498,2.6575289138897586,0.9296849485998138,Relax
92.10734383075392,651.4725274725274,30.41612900322629,,,,,,,22.349248060927888,22.4737438702493,0.04668827574545564,0.03430574140652517,653.0,32.6172,0.04994977029096477,42.5,1.3609464139601788,625.0,676.0,1.098901098901099,36.26373626373626,580.0,732.0,7.583333333333333,109.375,,,0.023015228436144466,0.027764988163472094,0.00045067269288889795,0.05123088929250546,0.8289298846676095,0.4492451478782226,0.5419579583119558,-3.583979470599765,15.891336689302886,40.20433452200215,0.3952642638720017,2007.1654824116931,2.5299529742558,4.0095532896917065,406.86030280765783,0.46153846153846156,0.47191011235955055,0.6904761904761905,0.030303030303030304,49.50678175092479,49.51398905061041,49.500363112587486,49.43820224719101,0.44549984428526934,0.5545001557147305,10.607131372574594,11.833821269678557,0.4771952895645593,0.5228047104354404,27.77288219032087,29.06983882307591,0.47291227006229536,0.5270877299377047,21.0219435484983,22.19340955151222,1.136922211851963,2.1129443990736947,1.3135304158799816,2.057402522244167,-2.0608972830315704,-2.6782900533954743,-0.14794525275236975,0.0028003291014292876,0.34424043379036184,0.6184604461480419,1.9021075263969205,5.812363733438869,1.2191103840628537,1.5086707270881714,1.1824228858930885,1.5224085910828355,1.991908934009849,1.7369112717920603,2.901145783852866,0.8581707217844434,Relax
92.08451697125935,651.5824175824176,30.622818628549215,,,,,,,22.38104356617696,22.504254002071757,0.04699761350554826,0.03434875306982331,654.0,31.1346,0.047606422018348624,42.0,1.3682480237350292,625.0,675.0,1.098901098901099,36.26373626373626,580.0,732.0,7.0,93.75,,,0.02443636073471831,0.026488540129019994,0.0004215956167103641,0.05134649648044867,0.9225257645643755,0.4759109658829985,0.5158782379457204,-3.631043087484056,15.91291061040944,40.02243752719188,0.3975997363878188,2000.7970170715112,2.5150922107870812,4.0081731412080535,402.6404835254115,0.46153846153846156,0.47191011235955055,0.6666666666666666,0.03125,50.86956521739133,50.82453968549223,50.91559797072202,47.19101123595505,0.46007275631072275,0.5399272436892772,10.794557513400555,11.693895459222984,0.48905036498523585,0.510949635014764,27.988545454420855,28.60833495615911,0.4850940893213251,0.5149059106786749,21.21180271174865,21.853878602836513,1.107531009773701,1.4229438287085445,1.2573134371074017,1.731489151189375,-1.0663191111701824,-1.8326087021456727,-0.16676427803033347,0.0009615396987553002,0.14774755182272678,0.6978983170176454,2.3581549441488567,5.850932689530374,1.1912649458151539,1.5199546188254853,1.0439132244306386,1.3107687499901002,1.967887742509194,1.7278293504332112,2.6457209762762743,0.9296849485998138,Relax
91.78224160630418,653.7777777777778,30.552874697966033,,,,,,,21.60316248176371,21.722551745620596,0.04673281310021996,0.03304358639290846,657.5,30.3933,0.04622555133079848,38.5,1.4142778736102741,626.8,677.0,1.1111111111111112,34.44444444444444,580.0,732.0,7.5,109.375,,,0.043277512209259184,0.02701232123855678,0.0005889289928841604,0.07087876244070013,1.6021396986603962,0.6105850429522778,0.38110599435418074,-3.611462174901459,15.360163644003999,40.57124026033085,0.3785973400232142,1957.7805047470738,2.641328647313485,3.9987341095225606,428.6479166266004,0.4777777777777778,0.4886363636363636,0.6976744186046512,0.030303030303030304,51.0362694300518,51.04682774246096,51.0236152991556,47.72727272727273,0.4781394453004623,0.5218605546995377,10.622660170169668,11.097706560776011,0.4719669803589463,0.5280330196410534,27.872382423163103,29.481448986073257,0.47274098777708773,0.5272590122229124,21.091593242734895,22.27459231083176,1.183139574618996,1.2658284075064312,1.3106982672696734,1.7529610743065662,-0.9339018936074055,-1.753201794897385,-0.1506139343893293,0.0007402314224876026,0.11634006112111836,0.6524639040253408,2.1400661634962708,5.752638373963222,1.1698439369164262,1.6059346845634213,1.0179471324345264,1.3909078730197804,1.9512737958956523,1.7217899214026344,2.59238154836056,0.9377121139142864,Relax
91.5827366409141,655.3777777777777,29.461678700647298,,,,,,,20.853690428659913,20.96872519156437,0.04495373462393627,0.031819343187633804,659.0,26.686799999999998,0.04049590288315629,36.0,1.4127800928778123,629.0,677.0,1.1111111111111112,30.0,580.0,732.0,7.5,109.375,,,0.022512839289306218,0.017627361802807235,0.0006258314858771409,0.040766032577990594,1.2771530726578124,0.5522450399419246,0.432403172152793,-4.038302936265249,14.827127775792354,38.84291719924621,0.3817202425795169,1809.3339902273951,2.6197195968502713,3.964488851904154,407.03020554279107,0.4777777777777778,0.4886363636363636,0.6976744186046512,0.03125,51.088435374149675,51.14633443798608,51.03114794580509,48.86363636363637,0.4927914427449359,0.507208557255064,10.410058510009355,10.561239166275552,0.4757397278415216,0.5242602721584786,26.79147035299025,28.12453258051308,0.4779089114305821,0.5220910885694178,20.32427368760042,21.242988320850888,1.232597659720641,1.1168068847880601,1.400478597619846,1.5848134814822812,-0.15472570228294913,-0.6367550339337535,-0.3349447103404838,0.00034435005729237077,0.07684603926750233,0.5218657049607698,1.8632184332101998,5.787585563160186,1.1565095879683385,1.281264730302925,1.0928217797088298,1.617969962590125,1.876971053738426,1.699209357379897,2.235595956569746,0.8655804128439567,Relax
91.18686943543787,658.1333333333333,27.43662769594402,,,,,,,21.279044922387584,21.39953246651654,0.04168855504853731,0.03233242239017563,661.0,24.462899999999998,0.0370089258698941,32.25,1.289373080230592,636.0,681.0,2.2222222222222223,31.11111111111111,580.0,732.0,6.428571428571429,109.375,,,0.017574089278726446,0.018746239367959182,0.0003634843582832263,0.036683813004968854,0.9374727876762228,0.4790693180217122,0.5110221057287581,-3.976762113724153,15.131754521295528,35.963913717609216,0.420748271172903,1709.6456554469016,2.3767180247998176,3.939876216944142,341.90432789994895,0.4888888888888889,0.5,0.7272727272727273,0.030303030303030304,49.83119513842,49.836217416861466,49.826386995114255,50.0,0.4546514801856126,0.5453485198143874,10.203052128028785,11.174494090643126,0.4629518526924116,0.5370481473075883,24.470050198999857,26.35563949415888,0.4617034415607807,0.5382965584392193,18.746808121235542,20.242147259219877,1.1717594591707914,1.411013122640067,1.3768711708541828,1.7883935045318824,-0.8814913480861772,-1.7066575669663524,-0.20834974737320414,0.0007878537487384692,0.14477789322262902,0.5107055726797554,1.8632184332102002,5.729306535406446,1.254395001231698,1.254940853553772,1.2269751422193358,1.8191616499876886,1.9302432876380564,1.7460284200669354,2.7931703428967984,0.8655804128439567,Relax
90.0489614454247,666.9101123595506,48.935867225620875,,,,,,,54.51313436394772,54.82205945344286,0.07337700586437972,0.08173985272329791,665.0,45.9606,0.06911368421052631,64.0,0.8976894797299461,631.2,703.0,7.865168539325842,55.0561797752809,425.0,788.0,11.125,328.125,,,0.01771643282715132,0.0186872157275886,0.00468973282679159,0.041093381381531506,0.9480509609034973,0.43112618702907646,0.454750013246346,-3.9799156398485476,38.765049998141514,57.305967199742945,0.6764574771598201,6978.949696859956,1.4782895211663682,4.550760177974639,338.8592432467344,0.5168539325842697,0.5340909090909091,0.8085106382978723,0.030303030303030304,49.01243599122166,48.73774653747886,49.262226716993254,45.45454545454545,0.5750952169723298,0.4249047830276703,29.39935099760639,25.270490718413548,0.4853807418388331,0.5146192581611668,39.924649985329,41.10956336726265,0.5135479947888965,0.48645200521110366,35.05923213314498,34.1217958304982,0.8988031107186568,2.263784901098723,1.2819006790668759,1.0247763954982791,-0.41204442127968477,0.9814715969424779,-0.6135815878283322,0.0006841037927487327,0.25665498166494854,0.7008469398892285,1.900958761193047,6.031803374738005,1.0989144200523917,1.0747135084978545,1.1550991836268023,1.560283947731831,1.6870777811551405,1.7786609450231665,2.251314247981618,1.0914157467920895,Stress
90.10389133015481,666.2954545454545,50.71583195891857,,,,,,,56.876757267282564,57.20580749002155,0.076116130783928,0.08536266738617297,665.5,49.6671,0.0746312546957175,66.25,0.8916793853170676,628.4,704.6,10.227272727272728,57.95454545454546,425.0,788.0,9.777777777777779,273.4375,,,0.024738947993141892,0.02507970164786484,0.005022237488943972,0.05484088712995071,0.9864131695222157,0.45110408105763494,0.457317577457055,-3.6856964593063237,40.45061439944643,59.324840058402955,0.6818495314884019,7538.962293259406,1.4665992331432876,4.584281681119855,348.0230597440078,0.5,0.5172413793103449,0.8,0.03125,50.40733197556009,50.163624103285585,50.61959871692022,44.827586206896555,0.5740543344632287,0.4259456655367714,30.64832405600444,26.400207011168646,0.47970090173014357,0.5202990982698562,41.08864725938506,42.79205199974547,0.5096461711217982,0.4903538288782017,36.24635637583474,35.55369632388086,0.8120197491212316,3.0133438769182606,1.3275215767557407,1.1603058870490357,-1.1264404586165124,0.6438695424355318,-0.5554917382604591,0.000892117085811132,0.45414535863746985,0.7471415184511856,1.791759469228055,6.13267153338544,1.1102720998222613,0.0,1.0242777074567495,1.6059071521418218,1.6395959449412947,1.7802463495431786,2.1396889580777163,1.0276368484195701,Stress
89.35677822179782,672.125,54.956578993898844,,,,,,,57.00473866166792,57.33352060418369,0.08176541416239366,0.08481270397867646,672.5,58.5627,0.08708208178438662,76.5,0.964070361239173,629.0,719.2,11.363636363636363,56.81818181818182,425.0,796.0,11.0,273.4375,,,0.021522294281170588,0.018755925068197683,0.007239455148346551,0.047517674497714824,1.1474930830078611,0.452932398495335,0.39471470913627466,-3.976245572847141,40.54092120851693,66.74377490752758,0.6074112719079152,8500.691424088276,1.6463309889836915,4.636424361494178,439.52937980805905,0.48863636363636365,0.5057471264367817,0.7727272727272727,0.03225806451612903,50.64713896457766,50.40858404333351,50.84637341220688,45.97701149425287,0.5723568320894203,0.4276431679105798,30.67183770019294,26.512283243634403,0.5111844271025057,0.488815572897494,47.719905323169584,46.66414174561062,0.527671850067392,0.47232814993260797,40.11203679669761,37.950252223438106,0.8780865789283798,2.7191890372442304,1.2786002961126375,1.3812942202041454,-1.1470306285531535,-0.1533457494009478,-0.46223362087558895,0.0013713214842287706,0.39588504561936255,0.7521396202548409,1.957744606702316,6.1639770731827515,1.067158143807664,1.5429572885603422,0.8122970339441045,1.2758736132633914,1.6476304711427272,1.753088968155887,2.2716843899393893,0.8808315843596315,Stress
89.63096183712953,669.9431818181819,52.59307195197741,,,,,,,56.29887404194514,56.62403856004538,0.07850377969254535,0.08403529667867309,675.0,55.5975,0.08236666666666666,70.0,0.934176266345811,629.0,714.0,9.090909090909092,54.54545454545454,425.0,796.0,11.0,273.4375,,,0.026023797328185057,0.02198504840610048,0.006692060912877187,0.05470090664716272,1.1837043452205405,0.47574709311577534,0.4019137844992341,-3.8173926745732802,40.03924164397663,62.92807212546261,0.636269955388885,7915.5326158050475,1.5716599401409816,4.605450252700625,395.6061202795678,0.5,0.5172413793103449,0.8222222222222222,0.03125,49.43701618578466,49.25850184957674,49.58760773176358,47.12643678160919,0.570479996518611,0.4295200034813892,30.24233518115462,26.24138839917353,0.5086922644262503,0.49130773557374946,44.881978521035855,44.10839223395817,0.52649847835461,0.47350152164539017,38.26872635176161,36.29160185622137,0.8825152514382687,2.1003315421449367,1.2968241244607221,0.9078078999011249,0.11375831640890866,1.5846773336568376,-0.6852165797416533,0.0008309828031634676,0.2514946175306763,0.7675686994755906,2.056452023455137,6.118522527728207,1.0458530953919425,0.8606865961437569,1.2887099586296136,1.6515878180608292,1.7366571409020852,1.7150364374870817,2.029386164395421,0.9542342163896008,Stress
89.81234158317002,668.6363636363636,52.80786727747092,,,,,,,56.13530452213743,56.448413761583026,0.07897845547956221,0.08395490819082417,669.0,52.632299999999994,0.07867309417040358,68.75,0.9407246959290243,627.8,715.2,9.090909090909092,51.13636363636363,425.0,796.0,12.571428571428571,210.9375,,,0.024464875492134615,0.016421808925743162,0.00487640557530922,0.045763089993187,1.4897795731737553,0.5345984175407918,0.3588439707237419,-4.109145015024272,39.915056158039384,63.00941024325986,0.633477698076203,7901.181388040507,1.5785875383409422,4.604662142005121,397.8634792328885,0.5113636363636364,0.5287356321839081,0.8478260869565217,0.030303030303030304,48.172043010752695,48.062318700467344,48.26169420314363,48.275862068965516,0.5651536373982315,0.43484636260176834,30.013369114136374,26.326880771614224,0.49221728630509337,0.5077827136949067,44.20626731999186,44.89979631175224,0.5131108558347081,0.48688914416529205,37.782247127109684,36.80418699006698,0.8899229901948634,1.5331518796226513,1.1747479424657103,0.8020231779660105,0.4633484160973742,1.5281487515464067,-0.7431101376540967,0.0005605840366202111,0.13645291522946046,0.7053920361283055,1.7227665977411035,6.070060453790817,1.0321254825825947,1.3356287689822328,1.222039732154344,1.276854500222863,1.7541993742140611,1.7091859077077123,1.9360905890574613,0.9542342163896008,Stress
90.40287423569517,664.4090909090909,51.53720592510185,,,,,,,55.97608274147504,56.300583303367155,0.07756848398113435,0.08424942329564554,665.5,49.6671,0.0746312546957175,66.25,0.9207004742208543,626.4,703.0,9.090909090909092,51.13636363636363,425.0,796.0,11.0,242.1875,,,0.028685754498860315,0.02583545174219399,0.010914270245273949,0.06543547648632825,1.1103252532647325,0.43838229717565774,0.3948233149580857,-3.6560076317293633,39.81052423856903,61.55505551669326,0.6467466222619639,7698.595412895373,1.546200576204867,4.593381606553454,380.7058492329348,0.5227272727272727,0.5402298850574713,0.851063829787234,0.030303030303030304,49.98183799491465,49.75773862859034,50.17646151520639,48.275862068965516,0.5748443684679696,0.4251556315320306,30.183739654570367,25.958038590037198,0.5018801856535889,0.4981198143464112,43.60775733758646,43.44408313740049,0.5233988707442438,0.47660112925575615,37.50129757454207,35.785528688921346,0.9046240973595484,2.928195536711744,1.390423049473414,1.2706611906149572,-1.0180059852743284,0.5262144159014737,-0.5408995428607698,0.0013697843481746575,0.44502782703880694,0.7671584847093933,1.904237452654745,6.001878635608997,1.0433232132093775,0.0,1.2529917132014994,1.4110163814666283,1.7366663151210637,1.7044091099179635,2.1996745809777867,0.8808315843596315,Stress
90.10853023705997,666.25,52.31101727873042,,,,,,,56.14226592317508,56.46680322407048,0.07851559816694997,0.08426606517549731,669.0,52.632299999999994,0.07867309417040358,71.75,0.9317582113681102,626.4,706.0,9.090909090909092,53.40909090909091,425.0,796.0,9.777777777777779,257.8125,,,0.022934931226153144,0.01585254338312336,0.003882543449993022,0.04267001805926953,1.4467666589431765,0.5374952312955681,0.37151480369902473,-4.14442532571991,39.92805947166664,62.65371580987687,0.6372815874612866,7859.137901652316,1.5691650593321869,4.6023450192213735,393.2560867447496,0.5227272727272727,0.5402298850574713,0.851063829787234,0.030303030303030304,50.500715307582254,50.25126210294355,50.71581496733043,48.275862068965516,0.5771278535482459,0.422872146451754,30.333418519345415,25.965092846196946,0.5011862934614724,0.4988137065385277,44.355392380906764,44.25027990330247,0.5231207866966785,0.47687921330332167,37.996822974651245,36.278597809398875,0.8894637849690344,1.6113478043031062,1.2273021691013284,0.7930540941452504,0.5703133830969538,1.7027945020366455,-0.7694936957722088,0.000852610606670565,0.16891767539036925,0.6948885291448619,1.7346010553881062,5.9791513628817246,1.0399164933798395,1.4403927223950408,1.2397725529753012,1.5171553538629474,1.7773444362855508,1.6999738812219591,2.1769796317860615,0.8074289523296622,Stress
89.83173181811475,668.2272727272727,53.498034612675426,,,,,,,55.58683793600908,55.9046353577001,0.0800596395809033,0.08318552714728249,670.0,56.3388,0.08408776119402984,73.5,0.962422699313491,626.4,712.8000000000001,7.954545454545454,50.0,425.0,796.0,9.777777777777779,257.8125,,,0.02921804018266771,0.015831421840211232,0.0022056160052584158,0.04725507802813736,1.8455727146664085,0.61830477065915,0.33502054172431245,-4.145758589779003,39.53054676119097,64.66522986909571,0.611310697282205,8030.702168287298,1.6358293817625782,4.611723629646515,423.12513199319136,0.5227272727272727,0.5402298850574713,0.8723404255319149,0.030303030303030304,51.130048165987404,50.81927666774081,51.40290010168344,47.12643678160919,0.5823205776334438,0.4176794223665562,30.168133503247553,25.549882810453493,0.5193902294649713,0.4806097705350288,46.6034119408534,44.829833253025946,0.5365117482810109,0.46348825171898905,39.25553644773336,36.48637047667264,0.9291647992252573,2.49227726333727,1.33558110056947,1.2051292531326814,-0.8255059033928571,0.3694320923809076,-0.5523424296950443,0.001226490717547544,0.31620314505467295,0.6628598877987049,1.670062534250535,6.078638720860856,0.996370740118483,0.8437026566222401,1.217968589035698,1.4949121920809845,1.762648782240025,1.7091161221307147,2.161066489238314,0.8808315843596315,Stress
89.37671790179871,671.9204545454545,52.86791643612183,,,,,,,56.50806065987604,56.83550409319806,0.07868180835763705,0.08409933092169818,680.5,54.1149,0.07952226304188097,74.25,0.9355818589198387,628.4,712.8000000000001,10.227272727272728,52.27272727272727,425.0,796.0,8.8,257.8125,,,0.03369199117760065,0.018258439178032156,0.0018448158073769711,0.05379524616300978,1.8452832057045456,0.6263005298926886,0.3394061832658155,-4.003127885123055,40.18877035645613,63.18836480454303,0.636015356320262,7977.957306872588,1.5722890808574372,4.608861817864509,397.40150407767754,0.5227272727272727,0.5402298850574713,0.8723404255319149,0.030303030303030304,49.80489535296205,49.57689707820514,50.002692614307456,47.12643678160919,0.5685642807004914,0.4314357192995087,30.30369537677496,26.39756419347886,0.5073666833456237,0.4926333166543762,45.00886792090777,44.35054966006951,0.5249923103981033,0.4750076896018969,38.36738292488877,36.49522332099866,0.9862682439454145,2.858769677303808,1.3357001701129332,1.3853270538586868,-1.5558418621362726,-0.14346284509021956,-0.4826404749778379,0.0012764800364875738,0.379270179055101,0.6440738176142955,1.6613976513648114,6.055911448133582,1.0278513843711992,0.9018269501050312,1.1531199146246134,1.3606113649610752,1.8361495468495816,1.7330953472822799,2.401918573962676,0.9542342163896008,Stress
88.50395365910794,677.9080459770115,45.505336304480906,,,,,,,32.54120822216255,32.699920723473895,0.06712611920529415,0.048002392677407545,683.0,45.9606,0.06729224011713031,67.5,1.398391110551605,632.2,715.6,9.195402298850574,51.724137931034484,573.0,796.0,8.7,171.875,,,0.022136896283759012,0.0129346795653901,0.0016616774258697222,0.036733253275018835,1.7114375483248687,0.6026391432858369,0.35212453055952386,-4.347843236330537,23.122335687830905,59.619160702289456,0.3878339683997426,4330.793063678562,2.5784229373361502,4.3435375424910765,614.8936458380526,0.4942528735632184,0.5058823529411764,0.8372093023255814,0.0,52.81051677243881,52.725844542211384,52.89409302323972,45.88235294117647,0.49381780647428297,0.5061821935257168,16.264541005440243,16.466900847743382,0.5532169284746424,0.4467830715253576,44.34386959567998,39.85054017358793,0.5454372993222459,0.4545627006777543,33.39845853356348,30.489542269900983,1.2020161483529404,1.7802184759520179,1.3638274469032534,1.9283268146084667,-1.477437960593642,-2.069650961168537,-0.18290444384735832,0.0016455123482363668,0.22685790135353323,0.6016748053549068,1.9616585060234526,5.988808150971406,1.17065944170046,0.9045657348038633,0.9821843563495616,1.4982175187069753,2.0265464043259174,1.664747670413775,2.4332918226559905,1.1108523268704704,Stress
87.69548632872795,684.4186046511628,47.27826639508066,,,,,,,33.434747687715195,33.62050528100581,0.06907799711139885,0.048851313305190394,690.5,41.5128,0.0601199131064446,62.0,1.4140458554275837,633.0,721.0,11.627906976744185,51.162790697674424,573.0,796.0,10.75,187.5,,,0.028870075555415098,0.01863416828037091,0.001755529521699626,0.04925977335748564,1.5493085133199431,0.5860781239471117,0.37828367875629326,-3.98275837917087,23.773287271117344,62.584911507961586,0.37985652928650515,4674.215739743475,2.632572887132748,4.37667886346469,659.0373647178478,0.47674418604651164,0.49411764705882355,0.8333333333333334,0.0,51.75202156334232,51.790361727554426,51.70808247301322,45.88235294117647,0.46687013260366234,0.5331298673963375,16.249908424650393,17.364783738524192,0.5395588459301944,0.4604411540698056,45.971539853696655,42.46750136209292,0.5303870225242061,0.46961297747579367,34.47783346100465,32.44244431470199,1.3571655115161407,1.4429658863386434,1.3639155667214515,2.060360627600972,-1.447141025098615,-2.3678807277107436,-0.017351679985541518,0.0018909257432464409,0.18488686325198916,0.5696578651550102,1.7917594692280547,5.981326818580116,1.177950219642481,0.7945134575869863,1.0771176102571065,1.4889606159972388,2.136768980624728,1.6430765707284665,2.4136511460701504,0.8966881053072696,Stress
87.02103432268503,690.0581395348837,50.83360506158078,,,,,,,32.1653814637085,32.29218410175479,0.07366568430863506,0.04661256729090793,693.0,46.701899999999995,0.06739090909090908,65.25,1.580382471724616,640.0,729.0,10.465116279069768,48.837209302325576,573.0,796.0,10.75,117.1875,,,0.03378851384489788,0.029883354615011775,0.0016896381615397803,0.06536150662144943,1.130680081945163,0.5169482099087604,0.4572011289165276,-3.5104536554405708,22.834022357675227,67.2881518408052,0.3393468498242823,4826.928820716699,2.9468374334926386,4.390641004596127,793.1489787000854,0.46511627906976744,0.4823529411764706,0.8048780487804879,0.0,54.041353383458635,53.987293602506284,54.096248841930716,44.70588235294118,0.4811807782402039,0.5188192217597963,15.870757775889354,16.479785597310826,0.5558716714407028,0.4441283285592971,50.16789409201154,44.84281191589098,0.5481312677195027,0.4518687322804974,37.20684446448152,33.7821040926798,1.2487757733298979,0.47213184241975537,1.2712229851045103,1.3028057396638295,0.44311580901956926,0.0039251453549349336,-0.4331060696998273,3.7633311467122e-05,0.007994700715488384,0.602357548613794,1.7635885922613586,6.013360394186668,1.0818333630528256,1.0175394425199982,1.0768509414531593,1.4573868045925058,2.0917897745851786,1.6493136355394982,2.2395555058048564,0.9714121140828752,Stress
85.49232382297339,701.8809523809524,46.7349369488412,,,,,,,32.41894433517583,32.58775534480957,0.06658527602195903,0.046188665221933746,705.5,47.4432,0.06724762579730686,64.0,1.4415934234518537,667.2,744.4,10.714285714285714,51.19047619047619,573.0,796.0,10.5,117.1875,,,0.016040824357387795,0.023044501319195308,0.001989243594783035,0.041074569271366136,0.6960803419089967,0.39052933827282177,0.5610406080450384,-3.7703280924798914,23.043022787963007,61.70060802662423,0.37346508446107674,4466.6175274485595,2.6776264813162793,4.356948875769176,660.8447278616193,0.4642857142857143,0.48192771084337344,0.8,0.0,52.639019792648455,52.6753866536239,52.59608077961268,45.78313253012048,0.4752957630227439,0.5247042369772561,15.90003067952248,16.706030749841034,0.5113418843072244,0.4886581156927757,44.120977690540485,43.131245733064056,0.5069229846838357,0.4930770153161644,33.162265061202675,32.706236575770916,1.295175283088356,0.2440226932478009,1.3805994068125345,1.2585880601886341,1.1708482474483568,0.1805976136109393,-1.0,0.0003455919914483768,0.013838776201214285,0.5894480424221311,1.7749523509116738,6.049997333467289,1.1647524460105614,0.8699251107875248,0.9805036445179237,1.4466917353662627,2.0910932819765504,1.7194392320361702,2.362114372353494,0.9131882032541088,Stress
84.83423287410662,707.2048192771084,45.601069477227625,,,,,,,28.50866363825257,28.682945840931705,0.0644807108693634,0.04031174966736453,711.0,45.9606,0.06464219409282701,59.5,1.599551282229893,670.4,747.0,8.433734939759036,46.98795180722892,573.0,796.0,10.375,117.1875,,,0.011411176668000919,0.01564485697805333,0.0007849205654006848,0.027840954211454938,0.7293883660303552,0.4098701711633821,0.561936809321585,-4.1576130436062835,20.281905508529285,60.71495207112077,0.33405124794912633,3868.604068898892,2.993552654388805,4.294524394221354,727.0136237343706,0.4578313253012048,0.47560975609756095,0.8205128205128205,0.0,49.44765912677537,49.50567516483473,49.38624532345734,47.5609756097561,0.4325305724360417,0.5674694275639581,13.339350494118456,15.27909085266367,0.47710511393512317,0.522894886064877,41.9375149508345,43.90387505388365,0.47263004337473663,0.5273699566252633,31.11826980936123,32.870966383960926,1.2007768880120953,0.1554052061404252,1.2819416503072927,1.2223916340657281,0.5491411800493982,-0.4425593033806323,-0.8831919001976982,6.492685231403185e-05,0.0041099448914880266,0.617773599875636,2.1145328614911056,5.971307202379133,1.1308136827917052,1.1341434759699174,1.0793876057019527,1.6160014179691076,2.124998975391212,1.7244593849396324,1.9953972850256132,0.9216924479055795,Stress
85.37474184818373,701.7261904761905,52.09753392181213,,,,,,,36.093586521040095,36.21672933859047,0.07424196877482771,0.05143542739447566,708.5,49.6671,0.07010176429075511,65.25,1.4434014167986,667.6,746.4,8.333333333333332,46.42857142857143,458.0,783.0,10.5,234.375,,,0.01327560613318521,0.01810630639712354,0.0010091485449471157,0.03239106107525587,0.7332034398409517,0.40985400578083225,0.5589908387087474,-4.011494981663834,25.6090949077151,64.01064459304071,0.40007556665816396,5149.870436448529,2.49952779759337,4.418766412897492,639.9855420087,0.44047619047619047,0.45783132530120485,0.7894736842105263,0.0,44.804575786463296,43.809700905668,45.62377205844217,48.19277108433735,0.26668393015685127,0.7333160698431488,13.260062906814694,21.988356120411748,0.42134818623213477,0.5786518137678652,41.55016617036505,48.69236400537177,0.3999103785193287,0.6000896214806714,30.840278671549253,37.77852642249081,1.1944692879530563,0.3882594724211921,1.4685664175043143,1.2744366812937182,1.5596643273586386,0.5596643273586386,-1.0,0.0005272379733367608,0.029264900476927126,0.6496778042734643,1.7391157357426332,6.008214297701493,1.0537002825141382,1.0760162733010425,1.0685490561884352,1.4033914433200116,1.9970497594625016,1.7243052178816627,2.0508906776777027,0.9892872201919511,Stress
85.8722948927466,698.9404761904761,49.04444780004638,,,,,,,28.65141557511306,28.800600362697935,0.07016970610624748,0.040992640362274485,705.5,56.3388,0.07985655563430191,72.75,1.711763513794653,656.2,746.4,8.333333333333332,48.80952380952381,573.0,783.0,12.0,93.75,,,0.011757540736232648,0.019634301143359824,0.0007826190684873415,0.03217446094807981,0.5988265459710015,0.3654308538441681,0.6102449136612997,-3.930477183978773,20.36509981870745,66.11573659816781,0.30802197580404483,4230.008660904803,3.2465216073939236,4.333311366551801,858.5846698188683,0.4523809523809524,0.46987951807228917,0.7948717948717948,0.0,47.48858447488583,47.40279469855476,47.57833047408552,48.19277108433735,0.42078227049240485,0.5792177295075954,13.221840763325343,15.512583405172686,0.49140085332959005,0.5085991466704097,46.34712443860885,47.15118961585606,0.48527163839902265,0.5147283616009772,34.079854877175066,35.09896669485337,1.215645253975584,0.40994433386149165,1.2300712420296045,1.3240788442113023,0.10340418257526984,-0.535554555315664,-0.2706820306645335,0.00010882805785893475,0.008806695469596925,0.5905255891291681,1.9278916435526352,6.017201053679629,1.0708695844443452,1.2889156055986686,1.1019836049434848,1.4363241225156342,1.908234127536314,1.6925578268790893,2.4423225743193218,0.8370891863162664,Stress
