PPG_Rate_Mean,HRV_MeanNN,HRV_SDNN,HRV_SDANN1,HRV_SDNNI1,HRV_SDANN2,HRV_SDNNI2,HRV_SDANN5,HRV_SDNNI5,HRV_RMSSD,HRV_SDSD,HRV_CVNN,HRV_CVSD,HRV_MedianNN,HRV_MadNN,HRV_MCVNN,HRV_IQRNN,HRV_SDRMSSD,HRV_Prc20NN,HRV_Prc80NN,HRV_pNN50,HRV_pNN20,HRV_MinNN,HRV_MaxNN,HRV_HTI,HRV_TINN,HRV_ULF,HRV_VLF,HRV_LF,HRV_HF,HRV_VHF,HRV_TP,HRV_LFHF,HRV_LFn,HRV_HFn,HRV_LnHF,HRV_SD1,HRV_SD2,HRV_SD1SD2,HRV_S,HRV_CSI,HRV_CVI,HRV_CSI_Modified,HRV_PIP,HRV_IALS,HRV_PSS,HRV_PAS,HRV_GI,HRV_SI,HRV_AI,HRV_PI,HRV_C1d,HRV_C1a,HRV_SD1d,HRV_SD1a,HRV_C2d,HRV_C2a,HRV_SD2d,HRV_SD2a,HRV_Cd,HRV_Ca,HRV_SDNNd,HRV_SDNNa,HRV_DFA_alpha1,HRV_MFDFA_alpha1_Width,HRV_MFDFA_alpha1_Peak,HRV_MFDFA_alpha1_Mean,HRV_MFDFA_alpha1_Max,HRV_MFDFA_alpha1_Delta,HRV_MFDFA_alpha1_Asymmetry,HRV_MFDFA_alpha1_Fluctuation,HRV_MFDFA_alpha1_Increment,HRV_ApEn,HRV_SampEn,HRV_ShanEn,HRV_FuzzyEn,HRV_MSEn,HRV_CMSEn,HRV_RCMSEn,HRV_CD,HRV_HFD,HRV_KFD,HRV_LZC,Labels
85.23519017273844,706.632911392405,139.33782754516042,,,,,,,188.3007346418666,189.4228756183524,0.19718558999834612,0.26647603247183044,677.0,72.64739999999999,0.10730782865583455,98.0,0.7399749544799715,626.2,746.2,40.50632911392405,67.08860759493672,576.0,1421.0,11.285714285714286,78.125,,,0.058430161083548496,0.12156028254081487,0.027883044293873525,0.2078734879182369,0.4806681908124891,0.28108520075696664,0.584780116782513,-2.1073449866452383,133.9421998615929,132.53628013157586,1.0106078103944167,55770.1840025338,0.9895035341253926,5.453372187323233,524.5804703601095,0.569620253164557,0.5844155844155845,0.8,0.2631578947368421,46.72714584787159,47.72632593299466,45.74270039692841,50.649350649350644,0.41252374208100123,0.5874762579189987,86.07230424731033,102.7150578877465,0.44883825765311214,0.5511617423468881,88.79320068637873,98.39528984145545,0.4304801519477034,0.5695198480522965,87.44333607134703,100.57836790251456,0.9195895610309668,2.8276161877176262,1.4357065831697975,1.6401250985133804,-1.3177334962237168,-0.8772794621037052,-0.4277064135396027,0.0021694917284327216,0.4944921682294635,0.716566906230029,0.9866943724641241,6.06637710890921,0.7245354499153677,0.8261520401551561,0.9939225399776337,0.9159989436074684,1.3713637736302078,1.9528385824260164,2.199208232810079,0.8777416231639004,Relax
85.88173713352434,699.4404761904761,121.80345131225856,,,,,,,149.00905608445657,149.72334954430386,0.17414412728251696,0.2130403674892236,677.0,65.9757,0.09745302806499262,92.0,0.8174231453638751,627.6,744.4,40.476190476190474,66.66666666666666,576.0,1420.0,10.5,85.9375,,,0.06328807314357375,0.12900142826571603,0.027347746591656487,0.21963724800094628,0.49059978633115225,0.2881481794167312,0.5873385750360534,-2.0479318028545013,105.87039576474102,110.92657996007867,0.9544186416172091,36894.36436297765,1.047758244019161,5.273930142435706,464.8969545360923,0.5595238095238095,0.573170731707317,0.8085106382978723,0.25,44.921176661790994,46.9957352589574,42.220439879869275,51.21951219512195,0.3021519805394412,0.6978480194605587,58.269663278043616,88.55441347748548,0.3764499516407498,0.6235500483592501,68.05957707754224,87.59337937119344,0.34098542196630655,0.6590145780336936,63.35400417696776,88.07520722657222,0.8099847477864702,2.6603829708507307,1.262800377963303,1.330569057758047,-0.7709909648105242,-0.002194779755031684,-0.4745267201988317,0.0020358976051136446,0.43204197069029066,0.8402114438997241,1.224723748430975,6.1124391489177246,0.8186853984520331,1.0993628134217521,1.1053720198475336,1.1589845055927432,1.495323522858454,1.911517498483756,1.8167348354073198,0.8370891863162664,Relax
86.6620703002124,694.0588235294117,90.57663854979602,,,,,,,120.69402478601673,121.41815486353232,0.13050282696385562,0.17389595909503217,677.0,59.303999999999995,0.08759822747415066,84.0,0.7504649771219658,633.8,744.2,45.88235294117647,69.41176470588235,576.0,1265.0,12.142857142857142,70.3125,,,0.0245302657523815,0.05247940240278297,0.01434000834021785,0.09134967649538232,0.4674265450682927,0.2685315010789501,0.574489198168488,-2.94733452155323,85.85560066316208,95.75059038658914,0.8966587079674764,25826.167543996402,1.1152515345183844,5.119030074091624,427.1439714387392,0.5764705882352941,0.5903614457831325,0.8367346938775511,0.2857142857142857,50.31337047353761,50.47275515760995,50.132344150639064,51.80722891566265,0.48050067340507613,0.519499326594924,59.51389429753216,61.88193188626147,0.4529963751412356,0.5470036248587645,64.44494002679947,70.81684308356732,0.465254447294392,0.534745552705608,62.02843666221007,66.49961939101043,0.6792556111609211,2.1452894082785683,1.1116921971163434,1.022167488786569,-0.4780307466572111,0.12386011062833968,-0.5417308303412596,0.0009049178633625271,0.26407061063334536,0.8637806952606879,1.8545603704670854,5.96809946549856,1.0665948676987527,0.7818815115699932,1.2439178550256114,1.7543835514212809,1.5901189563869853,1.9472435545609792,1.9840272068199283,0.980259790232825,Relax
86.23076178800018,697.6941176470589,90.18262206283899,,,,,,,122.21887080542179,122.95122383425385,0.12925810864935441,0.1751754353578317,682.0,59.303999999999995,0.08695601173020527,85.0,0.7378780499978107,637.4,745.6,51.76470588235295,72.94117647058823,576.0,1265.0,14.166666666666666,70.3125,,,0.03784594772948914,0.0363342566484252,0.013691455483910523,0.08787165986182487,1.0416051192595257,0.430695719063468,0.41349232170599204,-3.314994273402013,86.93964412838596,94.25782502735235,0.9223599643123237,25744.540524456344,1.0841754181574454,5.1176552551258645,408.7680674545643,0.5764705882352941,0.5903614457831325,0.8571428571428571,0.23809523809523808,50.44451761606849,50.57605620084499,50.28207185817431,51.80722891566265,0.48031075612115914,0.5196892438788409,60.253880542932066,62.67520022218969,0.4541246185213809,0.545875381478619,63.51918795726943,69.64086688242799,0.4661619871202495,0.5338380128797505,61.90806635339553,66.2496455199106,0.8239064178295625,2.8490596917775473,1.1382606777676512,1.6568619789925558,-1.8472032554413058,-1.4408964857959359,-0.31797457500746645,0.004076356574876704,0.5306621861666133,0.8800843246950678,2.1498223384416355,6.024039318465189,1.1713550209352503,1.0071448677636792,1.1500277888637023,1.9601181255111604,1.6671121025486895,1.9920737583079335,2.1141701956101477,1.0556643894815037,Relax
86.49783425212952,694.9411764705883,65.35732424092018,,,,,,,79.46412787571269,79.91899585128196,0.09404727544401921,0.11434655272448922,691.0,63.751799999999996,0.0922602026049204,88.0,0.8224758263646142,645.2,749.2,52.94117647058824,74.11764705882354,576.0,952.0,14.166666666666666,101.5625,,,0.04859065352513487,0.046311465914626,0.025672740840699728,0.1205748602804606,1.0492143266358809,0.4029915806007289,0.3840889038304021,-3.0723657046042425,56.511263912061025,72.77989869887476,0.7764680210105148,12921.006356963786,1.2878830459734518,4.818266450111232,374.92799048778437,0.6,0.6190476190476191,0.8653846153846154,0.3,51.539360872954006,51.60052152390405,51.48360018420851,52.38095238095239,0.5320235586005106,0.46797644139948946,41.23083709689683,38.66951415910478,0.4100574341174401,0.5899425658825598,46.6051372914455,55.90057989559669,0.4559488096327478,0.5440511903672521,44.00011789566778,48.063531694857765,0.657074634010394,1.819269349752901,0.9386978532948311,1.1658064462348123,-0.6938376087659197,-0.6744186766358786,-0.3751649430191149,0.000803979997987729,0.19690710201792488,0.5668628878921553,1.927891643552635,5.991628877263266,1.3858333929854016,0.9305650551780508,1.2719456863681395,1.4131619964326732,1.8517908151818696,1.9453810173657882,2.5467851982396246,0.980259790232825,Relax
85.84660900030863,699.8214285714286,67.27271609251937,,,,,,,82.75024114550092,83.21017719011647,0.09612840268387561,0.11824479469630139,695.0,70.42349999999999,0.10132877697841725,97.0,0.8129609673793313,646.0,754.0,59.523809523809526,77.38095238095238,558.0,952.0,12.0,85.9375,,,0.055796801929485815,0.05129464500742058,0.011838617134416248,0.11893006407132264,1.0877705055062556,0.46915641024143684,0.4313009112368682,-2.9701689180742537,58.838480554865534,73.304027572972,0.8026636803318011,13549.995737346586,1.245851811292402,4.83890926854881,365.3038221072614,0.6309523809523809,0.6506024096385542,0.9074074074074074,0.3,52.023438930598786,51.974028505641115,52.08131898976378,50.602409638554214,0.5304908410471697,0.4695091589528302,42.87709320780992,40.33744855711081,0.473064044096228,0.5269359559037723,50.418254596244836,53.211653440644724,0.4955795911812089,0.504420408818791,46.799815803499605,47.21540965609024,0.743165500069109,1.5404527997337691,0.9024957547975476,1.2555048103771558,-1.033188626321163,-1.3139854896198635,-0.2708407192738282,0.0005625619444729991,0.1319140778457535,0.5408799563945199,2.2823823856765264,6.0738068572768125,1.4653154518272944,1.0569738111494953,1.1475109161006452,1.4766808296632228,1.8801593379864345,1.9469941748809179,2.7351558499013997,0.9892872201919511,Relax
85.052791736244,706.7469879518072,63.58992928656695,,,,,,,83.59987454769441,84.10846816667258,0.08997552217499244,0.1182882643617224,704.0,65.2344,0.0926625,85.5,0.7606462286051443,655.4,754.0,61.44578313253012,77.10843373493977,558.0,952.0,13.833333333333334,101.5625,,,0.053137795998389345,0.049781243174206465,0.025347446423637454,0.12826648559623327,1.0674260546775987,0.4142765411509007,0.38810795308535656,-3.0001170089875764,59.47366819586704,67.82206614241827,0.876907348575601,12672.013133086713,1.1403713307048273,4.80981572430381,309.3693592719213,0.6265060240963856,0.646341463414634,0.9056603773584906,0.23809523809523808,50.739996345697044,50.76434360737544,50.71989003613857,52.4390243902439,0.5237840978689322,0.4762159021310677,43.045841198011736,41.04469108991645,0.4483329557075583,0.5516670442924418,45.412075160103264,50.374359405154614,0.4811340178716472,0.5188659821283527,44.2447794366257,45.9469408782911,0.7872849469538864,2.716923659943735,1.0122205152828185,1.8809536751108842,-2.602854513747957,-2.862609099071363,-0.180251170602984,0.004995609341491109,0.5618490079821757,0.5482464449120212,1.6274564179367788,6.124980545778692,1.5474766067723815,1.2124447568507641,1.0354039827678916,1.271890580840553,1.8379502302489692,1.9389140744955227,2.9002090444554285,0.998500151897711,Relax
85.12664109485651,705.3928571428571,64.85442788148522,,,,,,,85.321645158366,85.82054721237749,0.09194086277563598,0.12095620801145501,703.0,65.2344,0.09279431009957324,89.25,0.7601169405619002,653.8,755.2,63.095238095238095,78.57142857142857,558.0,952.0,12.0,101.5625,,,0.03902057000447896,0.049408811462168155,0.02460031057882411,0.11302969204547123,0.7897492137481719,0.3452240672192684,0.43713125788479773,-3.0076265010147227,60.684290899012375,68.26730383030936,0.888921745757736,13014.842153340309,1.124958417062436,4.821409015226946,307.19151221626083,0.6190476190476191,0.6385542168674698,0.9056603773584906,0.22727272727272727,48.66526167896033,48.59447938467171,48.74482199430881,53.01204819277109,0.49953990420739397,0.5004600957926061,42.90040934479786,42.93990412021967,0.4461185582766932,0.5538814417233068,45.59717074948307,50.80671994827313,0.46970467861418136,0.5302953213858186,44.269329689462964,47.03805989704461,0.8513462206734075,2.669782897561609,0.9144975999283111,2.1862376694542123,-2.0994565340661158,-3.110858907741965,-0.023654125327037513,0.014155579202752226,0.8983993513179507,0.540670249404569,1.791759469228055,6.088629625108201,1.5852519830961815,1.1902765490345888,1.1930813093076948,1.5646183000690925,1.7736104752071815,1.9520554088507556,4.0366419834400835,0.9892872201919511,Relax
84.5568195425005,710.5060240963855,63.551280137933844,,,,,,,78.27772632763671,78.75922490335526,0.08944509685017481,0.11017179822956398,710.0,69.6822,0.09814394366197182,93.0,0.8118692649801256,659.0,760.6,60.24096385542169,73.49397590361446,558.0,952.0,11.857142857142858,101.5625,,,0.05759817562507718,0.06293060413214825,0.022517100325213524,0.14304588008243896,0.9152649401573599,0.4026552571236774,0.4399330067799271,-2.7657226814234566,55.69118201015891,71.23000149880683,0.78185007494478,12462.330421504668,1.2790175917942161,4.8025693717524485,364.4176999220093,0.6265060240963856,0.646341463414634,0.9245283018867925,0.16666666666666666,50.14582928251993,50.113274506603055,50.18391971592664,56.09756097560976,0.5524503081917098,0.4475496918082903,41.3936984528435,37.25703181619661,0.41494876863831287,0.5850512313616871,45.88388615711614,54.482860650307536,0.46711415271682094,0.532885847283179,43.696506041582616,46.67155731488888,0.7727660834904442,2.7625942352747086,1.0226798567152409,1.6844589741125764,-1.936148929946114,-1.614661309556074,-0.26045012005480817,0.005561355999924155,0.556708930898304,0.5302798887033529,1.6677068205580763,6.043596359005639,1.5178131684253722,1.1539066866945489,1.0466299838799071,1.4195023739286465,1.745766175197263,1.9223580408786252,3.1506684900898505,0.998500151897711,Relax
85.4872237153047,702.5952380952381,62.2649060969976,,,,,,,75.96884269383709,76.42006573703286,0.08862130387589885,0.10812604266973323,696.0,59.303999999999995,0.08520689655172413,88.25,0.8196110917199584,651.2,755.2,54.761904761904766,71.42857142857143,558.0,952.0,9.333333333333334,101.5625,,,0.058459856791354015,0.07755061572803854,0.04409511652297464,0.18010558904236718,0.7538284028119943,0.32458657780798905,0.4305841708765401,-2.556824449635615,54.03714670137767,69.67685160597337,0.7755394432423679,11828.530671988403,1.2894250688517008,4.779900910322665,359.3723167176078,0.6071428571428571,0.6265060240963854,0.8846153846153846,0.17391304347826086,48.93009985734664,48.91047320808054,48.96291228217543,55.42168674698795,0.5491915702013507,0.4508084297986493,40.051110638965234,36.286797975532,0.4130407134108977,0.5869592865891022,44.780088715782234,53.38171320150287,0.4641837939401345,0.5358162060598657,42.481453652199576,45.64175178301431,0.9190768095216842,3.1026479140419654,1.355654433854828,2.421084554907279,-2.124150823739523,-2.9498112494139983,-0.15660617944094576,0.016955996397272854,1.1675346264183535,0.5926532012176331,1.6691571471357227,6.017201053679629,1.428455860025546,1.2984200680674072,1.0002103887691032,1.4281111480659276,1.6505343325324737,1.8742934025287266,3.460305400645718,1.141485254067636,Relax
85.79229201933065,700.2380952380952,62.260745730988255,,,,,,,75.35498320599577,75.81174582590687,0.08891367972463471,0.1076133728205312,696.0,59.303999999999995,0.08520689655172413,79.75,0.8262326269888195,647.6,754.0,52.38095238095239,69.04761904761905,558.0,952.0,8.4,101.5625,,,0.048279417003215676,0.06546958096865095,0.06542985035716188,0.17917884832902853,0.7374328090832518,0.269448193542128,0.3653867718159918,-2.726169656906257,53.60699956708968,70.45213850663926,0.760899536953557,11864.940180479622,1.3142339447382747,4.781235662936295,370.36236761931127,0.6071428571428571,0.6265060240963854,0.8846153846153846,0.12,50.38246847219351,50.3464777739857,50.423290208257335,54.21686746987952,0.554475339748146,0.4455246602518539,39.918132685199225,35.78202982694785,0.41409133071690607,0.585908669283094,45.3359008061818,53.92735779037137,0.46556777596214527,0.5344322240378547,42.71300281519157,45.7630504708073,0.8121568982637023,1.4807882733963675,1.0532515412251446,1.1209395175822152,0.2620309215163257,0.5105677604338634,-0.4542892271818036,0.0019237759283240244,0.16552040222205697,0.5695013125201607,1.6094379124341003,5.969582006060581,1.399296053341026,1.0151107526366048,1.097833884213014,1.4015850819262627,1.553529059506633,1.8965581049741203,2.9397493904082563,1.0653862371297935,Relax
86.35812690103177,695.4166666666666,52.875440887012786,,,,,,,66.82345018012691,67.22755992448292,0.07603418701547675,0.09609124052265104,694.5,56.3388,0.08112138228941684,74.25,0.7912707402039798,651.2,750.0,45.23809523809524,67.85714285714286,558.0,798.0,7.0,101.5625,,,0.044644691287328904,0.03250813190408501,0.018008831543907877,0.0951616547353218,1.3733391823022225,0.4691458068010857,0.34160956946893806,-3.4262650085109705,47.53706350522685,57.953198106158965,0.8202664401393036,8654.851697294724,1.2191160713952562,4.644229740509615,282.6067007998861,0.5833333333333334,0.6024096385542169,0.86,0.12,49.48137670909948,49.48876310873879,49.4765505767991,53.01204819277109,0.5224592985921117,0.4775407014078883,34.36151065704397,32.85119814424118,0.4832500009077606,0.5167499990922393,40.28685254279463,41.65984497002874,0.4990210889137777,0.5009789110862224,37.441580511772095,37.5149563670213,0.753127186881371,2.0210503769107193,1.17798899690568,1.6795387231111616,-0.4344393509750315,-1.2662120465238933,-0.25183709820626715,0.0073111528872177875,0.5130376085396974,0.5335642667405835,1.5960148921019595,5.89815343463201,1.446147774324465,0.8669542672508876,1.0303497809961328,1.4130855249846708,1.5188572268486817,1.863145276613822,3.3127011121054615,1.0653862371297935,Relax
86.08087126373063,697.7857142857143,53.46501421739998,,,,,,,65.44251593242932,65.83934221459137,0.0766209641768451,0.09378597840659335,698.5,58.5627,0.08384065855404438,75.0,0.8169767536535982,652.6,751.6,44.047619047619044,66.66666666666666,558.0,798.0,7.636363636363637,101.5625,,,0.040858014557715844,0.03557089601456234,0.011296659457600717,0.08772557002987891,1.1486360799286308,0.46574806574411315,0.4054792234743766,-3.3362275031629833,46.55544534879928,60.00796670588947,0.7758210768409539,8776.659901965897,1.2889569900213005,4.6502993796113925,309.3907525700868,0.5595238095238095,0.5783132530120482,0.8541666666666666,0.07692307692307693,50.363196125908,50.35284076465542,50.37415607493171,50.602409638554214,0.5354886261977236,0.4645113738022764,34.068439010106786,31.730380917517074,0.5130278196841224,0.48697218031587747,42.981282442875084,41.87559465537102,0.5214674186967851,0.4785325813032147,38.78175587192751,37.150925297438214,0.9039978819367762,0.8265804663746374,1.1686667396708803,1.200392746405714,0.7644266532947706,-0.004475586928805786,-0.4616177637562823,0.0015059924407300298,0.0931683375284207,0.5087147925907112,1.6094379124341005,5.930949714419671,1.4459193532522314,1.2477777763458813,1.0332669187261607,1.3039102534119673,1.595924544590859,1.8673135361060467,4.331935029687011,1.0653862371297935,Relax
86.08273582946128,697.3928571428571,50.40678331124269,,,,,,,56.390954585253695,56.7244034686011,0.0722788924419929,0.08085966755708013,689.5,51.149699999999996,0.07418375634517765,69.25,0.8938806530582145,655.2,741.0000000000001,33.33333333333333,60.71428571428571,558.0,798.0,8.4,101.5625,,,0.05841899640540855,0.039717850319026395,0.010423414902693402,0.10856026162712834,1.470849905928156,0.5381250517437046,0.36585993552083723,-3.2259545621401857,40.11021035140956,58.976105472894076,0.680109512654147,7431.575640282953,1.470351438105124,4.57805101246174,346.8624059836371,0.5476190476190477,0.5609756097560976,0.8043478260869565,0.08,48.77978753947746,48.814972110778406,48.74875447670148,51.21951219512195,0.5045598348078126,0.49544016519218764,28.495934669403752,28.237235406721993,0.5152125501477873,0.4847874498522127,42.33205064150983,41.0631039405763,0.5118427390491094,0.48815726095089074,36.083381245375826,35.23861496036136,1.101440905293909,1.9436070596352395,1.545340406681226,1.7903045375486528,-0.054165299719500126,-0.36564694713686663,-0.3739641690160357,0.004805814231298695,0.3964904709509569,0.4886004200030478,1.6259672143853108,5.850534387012963,1.3652586170938914,0.9658601951089731,1.0973893249314055,1.363515971428898,1.7236843238234845,1.806202896179213,2.7944153187305885,1.0653862371297935,Relax
85.77500058636554,699.9642857142857,48.271682543994956,,,,,,,53.31538352560101,53.63519695165028,0.06896306501514664,0.07616871976717324,699.5,51.891,0.07418298784846318,66.25,0.9053987677086828,659.0,734.4,28.57142857142857,54.761904761904766,558.0,798.0,9.333333333333334,101.5625,,,0.05492876803920174,0.03085206611686217,0.009391194740336273,0.09517202889640018,1.7803918814105117,0.5771524330850888,0.3241715709396748,-3.4785515578794195,37.925811474787956,57.06041387528801,0.6646606447278687,6798.602849733759,1.504527171771136,4.53938978193354,343.39577243151024,0.5357142857142857,0.5487804878048781,0.8,0.038461538461538464,50.89115213239973,50.89806899841627,50.88283218431013,50.0,0.5356970287797227,0.46430297122027714,27.760627496949528,25.844634297107387,0.5156945120788093,0.4843054879211906,40.976152013014975,39.709517723405405,0.5218241622840797,0.4781758377159203,34.99783902484624,33.50217097276435,1.0708627231538403,0.5470708867625933,1.2447717105041418,1.2451074343911366,0.5984270194397849,-0.20431914065141443,-0.49938632470650834,0.00040725365092419773,0.029283831486802202,0.5633847394020655,1.6247053845648889,5.798575720624863,1.2615294227937615,1.513009462187539,1.1820899456337945,1.3386853166957158,1.6922692325226545,1.7808750105652733,3.416243315913917,1.0653862371297935,Relax
85.9586276778523,698.1294117647059,47.11909638031569,,,,,,,44.46641322123817,44.709613198226776,0.06749335522365368,0.06369365403018562,688.0,44.477999999999994,0.06464825581395348,63.0,1.0596558833265763,659.8,732.4,22.35294117647059,47.05882352941176,558.0,798.0,9.444444444444445,101.5625,,,0.04500013100444145,0.029059380112306757,0.008497794923640391,0.0825573060403886,1.548557843647316,0.5450775123697293,0.3519904113403404,-3.5384139523714815,31.61447067669372,58.08669110308011,0.544263583900673,5769.1578939027195,1.8373450467384163,4.46808253512418,426.9011767186747,0.49411764705882355,0.5060240963855421,0.7619047619047619,0.0,47.69463340891912,47.79369874976649,47.59746330764327,50.602409638554214,0.4919983141670179,0.5080016858329821,22.18704712756891,22.545001850382157,0.5050547221726476,0.4949452778273525,41.28058618968786,40.86535069151369,0.5020685133065061,0.4979314866934938,33.138737577080484,33.00192415279853,1.1720028359312147,1.9819276897079492,1.6062548783920474,1.6978541394046522,-0.25924256427519055,-0.14302905370182906,-0.45378274319074546,0.001920727470847881,0.2917400659443734,0.6518418460373434,1.6863989535702286,5.855044871681658,1.207304858308962,1.1093687088577049,1.3782511103927326,1.492186241872656,1.7213519348039057,1.7406028686820378,2.200178478854471,1.0556643894815037,Relax
85.70566241097121,700.452380952381,43.48338687386024,,,,,,,40.317863540643216,40.53982634194971,0.062079005020637346,0.057559749437676846,691.0,45.9606,0.06651316931982634,63.5,1.0785141635797728,662.0,734.0,17.857142857142858,47.61904761904761,619.0,798.0,9.333333333333334,39.0625,,,0.056510825230630175,0.030960965737506008,0.007126433981648543,0.09459822494978472,1.8252281181970094,0.5973772262706583,0.32728907708300997,-3.475028037675205,28.66598611451767,53.9612975008507,0.5312323358063388,4859.5845495907615,1.882415531957661,4.393569252571309,406.31033816075785,0.5119047619047619,0.524390243902439,0.7906976744186046,0.0,52.365006278777734,52.47038354511204,52.26456295869808,47.5609756097561,0.551983041676858,0.448016958323142,21.309708081918565,19.19825957558933,0.5277229760659324,0.47227702393406756,39.199938460261414,37.08350647777302,0.533067252970352,0.46693274702964815,31.549475699485622,29.527611005792025,1.0942909187478629,1.6115441566050435,1.4748168391586858,1.4397604974230565,0.27034882797898696,0.4426818800314254,-0.5217532616726313,0.0015294246545869332,0.20090551174361218,0.6474390371117043,1.8787708462176849,5.817738107225302,1.225541426282382,1.3065902964315663,1.2632409328123422,1.527900267462547,1.8841241601705319,1.7236909082629583,2.417842873313977,0.9131882032541088,Relax
85.90598655554302,698.6190476190476,40.79153726369055,,,,,,,38.14540980454433,38.36410924352057,0.05838881347812021,0.05460115915039404,691.0,42.2541,0.06114920405209841,57.25,1.0693694856787457,662.0,731.4,15.476190476190476,45.23809523809524,637.0,798.0,9.333333333333334,23.4375,,,0.05431196746789149,0.02352210027037232,0.003184248011388524,0.08101831574965235,2.3089761051780355,0.6703665333616189,0.29033064996137314,-3.749814862728762,27.127521800274906,50.88636051779482,0.5331000591167939,4336.720014678019,1.875820463529372,4.344131494295132,381.8147054952505,0.5,0.5121951219512195,0.7857142857142857,0.0,48.16290393979637,48.12830292322056,48.20016265116731,47.5609756097561,0.48226809416167804,0.517731905838322,18.845326780488968,19.525936472342398,0.5001220007765433,0.49987799922345677,35.98648016728053,35.97770048122744,0.4961687715496433,0.5038312284503567,28.72431980303006,28.945268413325035,1.2199987268276988,0.6539644180760753,1.3692343640567062,1.3179787506327205,0.5035928114418091,0.05004691719683141,-0.5783767618042227,0.00014102643208075774,0.02485112707222126,0.6853890828338134,1.8718021769015913,5.850534387012962,1.2458496526366423,1.0991258997576778,1.4162969490815325,1.4525031557910264,1.8644998811729145,1.7251308887931687,3.449172716095185,0.9892872201919511,Relax
86.06369089183006,697.5238095238095,39.51954715073828,,,,,,,33.34305079240018,33.54574597725816,0.05665691494849153,0.047802025303140615,691.0,40.0302,0.05793082489146165,55.0,1.185240888627561,663.6,723.6,11.904761904761903,46.42857142857143,636.0,798.0,8.4,23.4375,,,0.04979227973887503,0.026472396865612244,0.0020802965588863163,0.07834497316337359,1.8809131636869427,0.6355516854290405,0.33789528283338716,-3.6316527165738646,23.720424460480587,50.707811075078546,0.46778640129742266,3778.7415797328517,2.137727811724461,4.284317302399168,433.5979920274602,0.5119047619047619,0.524390243902439,0.7906976744186046,0.037037037037037035,50.000000000000014,49.993169387351934,50.00752129808785,46.34146341463415,0.5211214183536346,0.47887858164636526,17.123475541902884,16.414783640097713,0.49799790826943025,0.5020020917305696,35.78397838943425,35.92755202696618,0.5021494356391887,0.49785056436081143,28.050904833976784,27.930575688674782,1.3000217558282035,1.7604183503297088,1.5848729150537082,1.7467037810553019,-0.46896068747054365,-0.35853701661490867,-0.4080724953978784,0.0008531594048316289,0.18679143826639477,0.6348826919411139,2.451005098112319,5.788092571562527,1.226036299633326,1.2725156069318944,1.1883975477765911,1.321054610542134,1.8526907061850308,1.7340352943070405,2.655338277498948,0.9131882032541088,Relax
86.86133310381194,691.0941176470589,40.288135890823035,,,,,,,29.001436746018868,29.08200317684408,0.058296163810495856,0.04196452553345256,687.0,37.065,0.05395196506550218,52.0,1.3891772412397305,658.8,722.0,8.235294117647058,42.35294117647059,601.0,796.0,9.444444444444445,156.25,,,0.05148847487337372,0.04162361194249579,0.0040605926581001334,0.09717267947396964,1.237001607272971,0.5298657518975415,0.42834685806565426,-3.1790876779643717,20.564081656835164,51.2773575583228,0.40103629820326847,3312.720759691506,2.493539872775162,4.227154939252688,511.4485425689069,0.47058823529411764,0.48192771084337344,0.75,0.038461538461538464,44.849445324881124,44.79673014129163,44.88071330931715,49.39759036144578,0.4120677697414048,0.5879322302585951,13.24309322146035,15.818625593351989,0.37090039185282464,0.6290996081471756,31.22872713230721,40.67104621054127,0.3766356854159298,0.6233643145840698,23.985546860311413,30.85743764088841,1.217082991315294,0.37544109036854056,1.3010742477556316,1.2100740832212566,0.739734197556472,0.19995621759841775,-0.7423820057763186,0.0002731529369710479,0.013947045854390586,0.6515444169078211,1.8718021769015916,5.873981818439738,1.1770425790207641,1.2151127509981228,1.114261043605167,1.1186229655864939,1.8166899326181924,1.691218927445321,2.0533020446087242,0.8294505917354672,Relax
87.79506912923382,684.0,46.750401067798336,,,,,,,37.982658581794624,38.12716449290332,0.06834853957280458,0.0555302026049629,681.5,39.2889,0.05765062362435803,51.0,1.2308354078775876,653.0,718.0,8.13953488372093,43.02325581395349,598.0,866.0,9.555555555555555,148.4375,,,0.053157575890428174,0.030897332110781137,0.00275097823535867,0.08680588623656797,1.7204584428142156,0.6123729414565315,0.3559359099978324,-3.477085438262824,26.95997656034689,57.340928426640694,0.4701698647038516,4856.619770327085,2.126890885765032,4.393304213411604,487.8315922077084,0.46511627906976744,0.47619047619047616,0.725,0.037037037037037035,55.14705882352943,54.679241470843934,55.665790034054154,45.23809523809524,0.725046482043253,0.2749535179567472,23.00504603032002,14.166736694504792,0.54413158333044,0.45586841666956,42.29769368713402,38.715464372502545,0.5769981563480152,0.423001843651985,34.0464905247792,29.15118874205598,1.3701476378771498,1.27415173055953,1.5860265839291026,1.6010960423557976,0.27511817966319363,0.3352644543726333,-0.4881729482719633,0.0005217694092165796,0.10032858816690979,0.6880398016585962,1.5339303599259555,5.981326818580116,1.038078466227917,0.7956472463783342,1.2791806385170186,1.5603482108264228,1.7370821726652421,1.7118136170573073,2.0481979103299564,0.8219640965316637,Relax
86.85489854437444,691.2674418604652,49.99892338102177,,,,,,,41.58251895151304,41.81804322891972,0.07232934802549869,0.060154024959715405,689.5,42.2541,0.06128223350253807,56.5,1.2024024672320264,655.0,726.0,12.790697674418606,48.837209302325576,598.0,865.0,12.285714285714286,179.6875,,,0.05434590311499839,0.03351497558877086,0.005552065929201956,0.0934129446329712,1.6215408831509606,0.581781286614279,0.3587829900925889,-3.395762907539754,29.56982194312132,64.37210954594356,0.4593576651704539,5979.9330777857,2.176952897104547,4.483666433730968,560.5402014750923,0.46511627906976744,0.47619047619047616,0.75,0.03571428571428571,51.744680851063826,51.738148739838586,51.752972495342966,45.23809523809524,0.6381672948956959,0.36183270510430415,23.628322391731896,17.791785156291063,0.4745236329599602,0.5254763670400397,44.343162683593675,46.66318045966545,0.5030500121992713,0.4969499878007285,35.528957878266525,35.312887375991515,1.161168320495995,2.004521599488297,1.4344900074815925,1.7722721571424578,-0.8193873454778995,-0.8645207229992575,-0.33148989277686386,0.0018019108851399183,0.2725124054389305,0.601396742786084,1.466337068793427,6.013360394186667,1.0634156375015225,1.387099824358143,1.2023560714777337,1.2822279478690295,1.7585135444699098,1.7118754215902607,2.1419573316817084,0.9714121140828752,Relax
86.94432523635189,690.3837209302326,48.494309818939804,,,,,,,41.13006628904428,41.37412146705798,0.07024254533927582,0.05957566066828033,689.5,40.0302,0.05805685279187817,54.75,1.1790476941647217,658.0,722.0,12.790697674418606,50.0,598.0,865.0,10.75,148.4375,,,0.036394175252774996,0.028567056038294673,0.003465782549888893,0.06842701384095858,1.2739911037380933,0.5318685298377059,0.4174821380440717,-3.5555011118607105,29.255921854992607,62.133724497151746,0.4708541471119073,5710.722372596162,2.1237999200680955,4.463661157365176,527.8383964823357,0.47674418604651164,0.4880952380952381,0.8048780487804879,0.034482758620689655,49.89238054240205,49.81788596842554,49.973635717501224,47.61904761904761,0.6303158011864278,0.3696841988135723,23.227011164139213,17.78810463952432,0.46438515042759504,0.5356148495724049,42.3415302234213,45.4730088978842,0.49449678143001186,0.5055032185699881,34.14893284774758,34.52688231576754,1.1464821881482063,1.5149806271080148,1.4454718134602373,1.3015600420347337,0.379112689824022,0.7334102488872696,-0.5949924829733436,0.0006273975269976504,0.14544016279635463,0.6271581405091315,1.5099083170870673,6.0045826325336025,1.0526138471082536,1.0801008934229266,0.9531233525202782,0.9336329671528503,1.7902151778877589,1.666256316351361,2.7559572991817927,0.9714121140828752,Relax
86.47517663633833,693.5714285714286,50.664805805728555,,,,,,,43.99288003729585,44.25511088955933,0.07304915358189493,0.06342948718044715,691.5,41.5128,0.060032971800433835,56.25,1.1516592176455929,660.4,725.0,13.095238095238097,50.0,598.0,865.0,10.5,156.25,,,0.04585919728717073,0.04151996117538925,0.004137368787104188,0.09151652724966416,1.1045096379895831,0.5011029009226201,0.45368811976572915,-3.1815809752070883,31.29308901217003,64.18134066966617,0.48757300308249846,6309.676493480357,2.050974917966895,4.506977202851246,526.5372796598957,0.5238095238095238,0.5365853658536586,0.8409090909090909,0.07407407407407407,51.15511551155115,51.02758213542919,51.28486171000105,48.78048780487805,0.6242685325829825,0.3757314674170173,24.72778628656731,19.18396179739478,0.470740034387992,0.5292599656120082,44.0351370265662,46.692089235836114,0.5002335011914374,0.4997664988085624,35.7110396627052,35.69436641440204,1.0614470498713948,1.9964532953141467,1.469697068401389,1.450557540765096,-0.012063387693025618,0.36915051150670086,-0.509586764529486,0.0013661164791666863,0.27486194047838713,0.6730243359276833,1.469675970058942,5.945772482251058,1.019659584965524,1.3474806772258592,1.0436868125972067,1.6226407148552278,1.802258071828015,1.6861799381684595,2.781750275180037,0.9892872201919511,Relax
86.49564697724027,694.0833333333334,51.32561030413929,,,,,,,44.26045584725974,44.52928127624056,0.07394733145031473,0.06376821589231803,692.5,40.0302,0.05780534296028881,53.25,1.159626789232831,660.4,725.0,14.285714285714285,47.61904761904761,598.0,865.0,7.636363636363637,85.9375,,,0.04136764884409813,0.033739231560735355,0.004179053836997072,0.07928593424183056,1.2260993191155096,0.5217526821078048,0.42553867698433245,-3.389093977442723,31.48695675179286,65.82172335448304,0.47836724939910463,6511.03169128217,2.090444112250866,4.5206199191645435,550.3865361783377,0.4880952380952381,0.5060240963855421,0.8095238095238095,0.07692307692307693,50.24875621890548,50.191843311036,50.309869464538515,49.39759036144578,0.6059435656473713,0.39405643435262866,24.51032634546051,19.765700767472634,0.4934945387820351,0.5065054612179647,46.239212003768266,46.84479201175593,0.5144351183721031,0.4855648816278971,37.005545694465866,35.9521728512613,1.1328230550035303,1.5441443814505327,1.2741770190824306,1.6049040990612706,-0.5668575554221409,-0.7373766923655021,-0.2858185517158941,0.0015720009336471696,0.16524408533326856,0.7663608358756524,1.7311348474116202,6.011365041826378,1.0129060113869188,1.3855266643840742,1.1173743398555118,1.6225118458184231,1.7870449866598541,1.6716690954215718,2.321272430995722,0.9892872201919511,Relax
85.67703925142372,700.5119047619048,55.93638685722759,,,,,,,47.92225128971612,48.2089651384252,0.07985072984054377,0.06841033102214629,698.5,49.6671,0.07110536864710093,66.25,1.1672320342185438,660.4,739.4,17.857142857142858,53.57142857142857,598.0,865.0,9.333333333333334,85.9375,,,0.034053115291511366,0.02827639811415461,0.0037553149948228786,0.06608482840048885,1.2042946613651277,0.5152939958494235,0.42788032894317757,-3.565727811194295,34.088886163366325,71.68786108523672,0.47551824879856175,7677.296376584539,2.1029687136646955,4.5921784165228825,603.0293160471746,0.4880952380952381,0.5060240963855421,0.8095238095238095,0.07407407407407407,51.01513473606497,50.93686399324315,51.09191890156164,51.80722891566265,0.6309957872757892,0.3690042127242108,27.081178776088,20.70951825469302,0.46889138479736536,0.5311086152026346,49.08872468801217,52.2441052701713,0.49879094416862835,0.5012090558313718,39.64273663231321,39.738713377651045,1.0169745354162136,2.11063833522047,1.4316911873515963,1.4154467456161361,-0.3404572868821578,0.18824490056363574,-0.5076964591537959,0.000878187783277787,0.2687453559300329,0.6900786497963414,1.7160476474923587,5.960595250082444,1.0673342173960916,1.233422623174099,1.1742388935213213,1.3660752236865878,1.8554883705740175,1.7142222041195034,2.6969314636243666,1.0653862371297935,Relax
85.44465243727159,702.8928571428571,57.74142983551088,,,,,,,49.8165308606285,50.07497170897276,0.08214826662234158,0.07087357675410792,700.0,49.6671,0.070953,63.75,1.159081711190485,662.6,740.8,17.857142857142858,55.952380952380956,598.0,865.0,9.333333333333334,85.9375,,,0.04727930320425431,0.04718189061361919,0.005631162969341567,0.10009235678721506,1.0020646182119501,0.47235677849773,0.47138355143262844,-3.053745133452385,35.408352063139155,72.4689766124833,0.48860013923585355,8061.348858227437,2.046663354545806,4.613377825795781,593.2783950968267,0.47619047619047616,0.4939759036144578,0.7804878048780488,0.07692307692307693,53.074204946996474,52.899879836652296,53.25279347998612,51.80722891566265,0.6618215360714631,0.3381784639285367,28.831089249576976,20.609315913902247,0.47783062571013224,0.5221693742898678,50.09439307148329,52.36701589799039,0.5133404210492712,0.48665957895072876,40.86979278463096,39.79351867138293,1.117199325406122,1.6077102753483774,1.4006275082454078,1.7119036876088927,-0.2002676579180349,-0.656408759042189,-0.3063854015637028,0.002494113805149356,0.23579140855276362,0.6534653375770043,1.7227665977411035,6.00237828584824,1.0684905177220974,0.9505520348552348,1.2576354155373537,1.4344474089848973,1.9255134923563444,1.7211311346140645,2.4907315935448078,1.0653862371297935,Relax
84.51744513018424,710.1807228915662,60.06341051253985,,,,,,,50.94952068995925,51.26093863919812,0.08457482521911626,0.07174162723329575,709.0,48.925799999999995,0.0690067700987306,68.5,1.178880776485434,663.8,757.8000000000001,20.481927710843372,57.831325301204814,598.0,865.0,13.833333333333334,85.9375,,,0.023057273993364675,0.025382751137684584,0.002336774100463239,0.0507767992315125,0.9083835660009532,0.4540907332153213,0.4998887586819738,-3.673685424710606,36.246957321764505,77.33542812476044,0.4686979590167852,8806.430727948042,2.13357020392783,4.651770033215241,660.0022606199647,0.46987951807228917,0.48780487804878053,0.775,0.07692307692307693,50.65292096219931,50.59841755645653,50.707391822558755,53.65853658536586,0.6356666353471764,0.3643333646528234,28.900425047068676,21.8795806491513,0.4341680624141284,0.5658319375858715,50.95741993811175,58.17310200162029,0.4704626985872996,0.5295373014127004,41.4239858937446,43.94784321143436,1.0084691335981357,1.8380896240493838,1.346509612915951,1.4365754657203644,-0.1826464567361139,-0.031889003063794163,-0.45100029311628737,0.0010573204973106803,0.2222628273262185,0.6031665286050631,1.5546296759391056,6.100884160236523,1.1151476616154692,1.1805868241379254,1.2642191560333949,1.4294839013939722,1.9134417040809761,1.742611219748093,2.7232284347704385,1.1521155598819743,Relax
84.79276978524373,708.7738095238095,61.69109818240582,,,,,,,52.375497812281814,52.65951655780997,0.08703918987053579,0.07389592717523007,704.5,49.6671,0.07049978708303761,70.75,1.1778618010183293,662.6,758.6000000000001,21.428571428571427,54.761904761904766,598.0,865.0,12.0,140.625,,,0.03033245424240634,0.023523781834680655,0.003084439276664415,0.056940675353751406,1.2894378317047555,0.5327027481490515,0.41312790353356504,-3.7497433765865615,37.23590125203271,77.92134475394593,0.47786522896407135,9115.241544864339,2.0926402244579,4.666738291478492,652.2453615038353,0.4523809523809524,0.46987951807228917,0.7435897435897436,0.08,52.66011521518129,52.44167783607844,52.882611641486335,55.42168674698795,0.6739135208731363,0.32608647912686384,30.587738656160266,21.277063111109726,0.4384110092368113,0.5615889907631888,51.59375828204182,58.393664678606505,0.48223822127071875,0.5177617787292812,42.41182411641428,43.94618009128713,1.1093418517356186,2.2179075075894303,1.4994930056825224,1.7439432038680396,-0.4889059151706281,-0.385003573347956,-0.3897834119100837,0.0028972651221855477,0.37187468368090865,0.5818352461108076,1.4622802680978129,6.017201053679629,1.0842788689270701,1.0207014646507522,1.3173361459285169,1.5971024791099446,1.8548718125622718,1.7195595336586207,2.7927878447532093,1.0653862371297935,Relax
83.80465551700794,716.3414634146342,65.49888690265125,,,,,,,54.2323533340399,54.569742441424964,0.0914352864490535,0.07570740506284085,712.0,59.303999999999995,0.08329213483146067,88.25,1.2077456144898604,671.2,774.4,21.951219512195124,58.536585365853654,598.0,865.0,13.666666666666666,140.625,,,0.05505895641171657,0.0555311339960133,0.004524110199488442,0.11511420060721832,0.991497065694163,0.47829856022354256,0.482400378954907,-2.890811442615086,38.58663492793493,84.81316976408851,0.45496041517214036,10281.34833637632,2.197993422398379,4.719020183439044,745.6751570968944,0.4268292682926829,0.4444444444444444,0.7222222222222222,0.04,50.31446540880504,50.23813772159558,50.391380114670255,59.25925925925925,0.6567268178631844,0.3432731821368156,31.270393345783162,22.607935553694414,0.3877553039681502,0.6122446960318496,52.81316176334497,66.36296941812394,0.4338824874191915,0.5661175125808086,43.39969789895572,49.5739975188145,1.1004716883627639,1.9926569956496896,1.4705390691749223,1.6669374627422833,-0.29358440939609487,-0.3388347432407728,-0.4014389360556623,0.002164253836663121,0.30292724035380264,0.5539917517750292,1.4403615823901663,6.05566313264048,1.0980248403559958,0.6960971100765122,1.1487374426339245,1.3499287242340192,1.810855350239337,1.6986811337747159,2.9082961747005975,1.162966830113064,Relax
83.56206795323988,718.6219512195122,66.34340892098363,,,,,,,54.88011625802033,55.186269874997436,0.09232032059192997,0.0763685497846092,713.5,62.2692,0.087272880168185,87.0,1.2088787969957704,671.2,780.6,25.609756097560975,57.3170731707317,598.0,865.0,11.714285714285714,140.625,,,0.05242517496971766,0.049891055268213004,0.0029717264516738863,0.10528795668960454,1.0507930667708127,0.49792185752327156,0.4738533906142271,-2.9979135454344528,39.022585657001564,84.9628795125361,0.45928982022371145,10415.860101590139,2.177274470209069,4.724665248091107,739.950033912376,0.4268292682926829,0.4444444444444444,0.6944444444444444,0.04,52.6178010471204,52.54095559880048,52.69161429228439,58.0246913580247,0.6742799990162242,0.32572000098377596,32.063998502993975,22.285365152942862,0.39744494654153445,0.6025550534584656,53.563347700528105,65.95194218651986,0.44572129384495934,0.5542787061550408,44.14256572112494,49.22548211127067,1.0995368028362524,1.9719206639901077,1.4939928383339733,1.457786845574241,-0.06109415687605946,0.4474316186585279,-0.5183607755732276,0.0009804818986975424,0.24755845310321556,0.5582415411382464,1.3987168811184478,5.973286455784828,1.1127589387289225,1.1092570147106482,1.0191357607318123,1.3707491532431904,1.7183786728511998,1.7070619566855723,2.581468711870267,1.162966830113064,Relax
82.03862189890238,731.6625,58.7151337423304,,,,,,,56.5630599140061,56.88181087973669,0.08024893136156411,0.07730758363863953,723.0,62.2692,0.08612614107883818,76.0,1.0380473374601047,686.8,783.6,28.749999999999996,60.0,600.0,865.0,11.428571428571429,140.625,,,0.05229983195284654,0.048802613179511414,0.0014559208884186814,0.10255836602077664,1.0716604817957442,0.5099518838107411,0.47585209352521085,-3.0199714187962394,40.221514199232544,71.86442977889432,0.5596859854448479,9080.761573024434,1.786716169434157,4.665092382832256,513.605354772464,0.4625,0.4810126582278481,0.7631578947368421,0.038461538461538464,52.73647579879787,52.774057877898805,52.70534444751418,58.22784810126582,0.67020506348145,0.3297949365185499,32.95247160101021,23.115651263447745,0.382955845685056,0.617044154314944,44.47217147427094,56.451060502072735,0.4515515328025128,0.5484484671974872,39.138468418247676,43.133835704363285,1.0932886264741382,2.1963888175105737,1.4691460161225849,1.6820365634222272,-0.5235013484429061,-0.2872914186626483,-0.40307246804282304,0.0021748787753367474,0.33758994908445505,0.49778826954850564,1.5040773967762737,5.928055907333276,1.2854944197277434,0.747914864323704,0.9490033967166391,1.1912090770929864,1.835849791188496,1.7718015039342176,2.462165755233233,0.9482892142331044,Relax
81.06865438764339,740.475,49.60756756275872,,,,,,,49.55051124415329,49.864122415989435,0.06699425039705421,0.06691719672393165,733.0,53.373599999999996,0.07281527967257843,72.0,1.001151477899477,696.2,786.4,27.500000000000004,60.0,650.0,861.0,10.0,78.125,,,0.04826928013589409,0.0574797217958802,0.0031482355926192866,0.10889723752439358,0.8397618956352315,0.44325532247851107,0.5278345264084815,-2.856323057799028,35.25925909826226,61.06371146731038,0.5774175570238279,6764.041324447765,1.7318489675899025,4.5371763621880286,423.0125026474767,0.4625,0.4810126582278481,0.7631578947368421,0.038461538461538464,50.72659682325109,50.71165339347776,50.74028541443714,56.9620253164557,0.5896991725311267,0.4103008274688734,27.07787913521918,22.586585535530734,0.3988731235586511,0.6011268764413489,38.56564368020664,47.34414415420635,0.44659229412741536,0.5534077058725848,33.32056730407063,37.09192521188485,1.0564525206311683,3.1857804602784108,1.5291057414692664,2.1792070253044225,-1.5965537163329362,-1.4293561323497124,-0.29593657129206496,0.00925026753981291,0.8841988914999411,0.3772746955770523,1.6582280766035322,5.834183719779187,1.4190373433973893,0.824990204237333,0.8877827555762234,1.3648509507215696,1.9872145977432343,1.796615328429252,3.1799692920864224,1.0273133154191965,Relax
81.06902862868334,740.65,48.68501185936833,,,,,,,48.374462349414664,48.672630829715295,0.0657328182803866,0.06531352507853191,735.0,50.4084,0.06858285714285714,69.25,1.006419699462715,697.0,783.6,26.25,60.0,650.0,861.0,10.0,62.5,,,0.053639279538980594,0.06103099267563287,0.0017874203915165452,0.11645769260613,0.8788859100500347,0.4605902653454872,0.52406149658181,-2.7963734671863456,34.4167473178811,59.48359127221053,0.5785922904416141,6431.568164344493,1.7283327422782353,4.515286986787653,411.22975369622935,0.45,0.46835443037974683,0.7297297297297297,0.038461538461538464,51.413612565445035,51.47203421420049,51.35854775725127,56.9620253164557,0.6032390853965284,0.3967609146034718,26.736966630778902,21.683622556655223,0.40654906430468046,0.5934509356953197,37.927451680384706,45.82364062000624,0.45589685153543774,0.5441031484645622,32.81277933658852,35.8467957204753,1.1092907151450049,1.6448390523135434,1.366511983656366,1.7336140017257973,-1.0137049590577671,-1.602959918822683,-0.2768158425269116,0.0006729401997442064,0.17349164258556055,0.39637846713083746,1.9740810260220096,5.849747626002143,1.4265331521648659,1.0554810006488027,0.6668070516454887,0.7225929394740411,2.085308827779719,1.783645183363062,2.5742137189274605,1.0273133154191965,Relax
80.5237473357478,745.4556962025316,47.51026811239494,,,,,,,48.07899482715652,48.37804837357089,0.06373318810818632,0.06449611301124732,748.0,51.891,0.06937299465240641,66.0,0.9881709940732716,703.2,784.2,26.582278481012654,58.22784810126582,650.0,861.0,9.875,62.5,,,0.05286916006159424,0.06269120553920114,0.0012051866813856187,0.11676555228218101,0.8433265815654937,0.4527804564639766,0.536898120326607,-2.769534103713648,34.20844606552279,57.93439628057128,0.5904686725283931,6226.151798999538,1.6935699496435426,4.501189814914807,392.46381036606454,0.43037974683544306,0.4487179487179487,0.7142857142857143,0.0,48.48812095032397,48.45182698347353,48.528088569381886,57.692307692307686,0.5705530659330909,0.4294469340669093,25.84582158698952,22.423173310187416,0.3856483176453051,0.6143516823546948,35.97760142787716,45.40932137668524,0.4334676022622044,0.5665323977377954,31.324066610273338,35.81064903900643,1.008854781038188,2.9240178608328473,1.4520318130528822,1.8351448393678764,-1.046851036967313,-0.4028307591370619,-0.36897719352306824,0.0061161477502690844,0.6563866817166906,0.39617456231232273,1.7346010553881064,5.914478374731995,1.4124453622019253,0.8735264921180148,0.8667228263646388,1.1653494045693147,2.0363809954873036,1.7934106060555046,3.199471886526296,1.1171257022086005,Relax
80.81272544802742,742.7721518987341,46.75631024657599,,,,,,,45.229755352320545,45.51737033629032,0.0629483888525623,0.06089317597152854,746.0,48.925799999999995,0.06558418230563003,64.0,1.0337511198626708,702.0,777.8,24.050632911392405,56.9620253164557,650.0,861.0,9.875,62.5,,,0.052506820264447224,0.042897765614022115,0.0006550826981811858,0.09605966857665052,1.223998954558234,0.5466063025456888,0.4465741580171284,-3.148935537993791,32.18564122657028,58.08802399349224,0.554083940437983,5873.522567047914,1.8047806966026425,4.475868751684922,419.34457762898376,0.4177215189873418,0.4358974358974359,0.6764705882352942,0.0,51.01106447920641,50.99337540864568,51.02723756170639,56.41025641025641,0.6112855414966756,0.38871445850332464,25.167103863637486,20.069036692532944,0.3777034637373706,0.6222965362626293,35.69949616930872,45.823187413426865,0.4325800465219813,0.5674199534780188,30.885572227381548,35.373229556348655,1.1052038625347007,1.4564074127755253,1.3359996217011973,1.6613643460036625,-0.6901965028567574,-1.3267461427662317,-0.27659772845950675,0.0006569847566500884,0.14363808709891213,0.44760792408428296,1.7676619176489947,5.898717457037862,1.4269997008569464,1.1708595482794626,1.1315603537771999,1.4416582203527168,2.1217306981830757,1.7941099578675568,2.9252536912029488,1.0373310091937005,Relax
80.84886687836521,742.4050632911392,45.33112333998765,,,,,,,43.22703925874317,43.50543388155987,0.06105982512973614,0.058225679478954996,746.0,47.4432,0.06359678284182305,60.5,1.048675183804519,704.0,775.4,24.050632911392405,56.9620253164557,650.0,861.0,9.875,132.8125,,,0.05508072152833074,0.05842710100968784,0.001203038401990423,0.114710860940009,0.9427255601676654,0.48017006477823077,0.509342363320277,-2.8399754384046823,30.762987316113957,56.66623939624621,0.5428803401086788,5476.49595398388,1.842026550086177,4.445472881112069,417.52286984569923,0.45569620253164556,0.4675324675324675,0.75,0.03571428571428571,50.52920423363386,50.50621791418203,50.5518533645209,53.246753246753244,0.5766283130587516,0.42337168694124827,23.360945319780324,20.01720039586734,0.42376257712480647,0.5762374228751937,36.888049551107066,43.01551449916363,0.4585613835222418,0.5414386164777583,30.874438990196214,33.54864229231988,1.0208400073824304,2.859045149538735,1.3833588719528507,1.9497052289932617,-1.4486808058844165,-1.157624363722885,-0.30191066337942135,0.006757970103569489,0.6530714046758271,0.5245191127808173,2.1282317058492684,5.898717457037862,1.4368779464813062,0.9519584407175632,1.2309545129795085,1.4107445487321932,2.0058066221168542,1.8092047599747134,3.2301825961995605,1.0373310091937005,Relax
80.8126391419263,742.7125,44.934887844186505,,,,,,,41.952052197053526,42.21999615466856,0.060501052350925164,0.05648491468374846,746.5,48.1845,0.06454722036168788,60.25,1.0711010663583813,704.8,776.2,21.25,57.49999999999999,650.0,861.0,8.0,109.375,,,0.05359659060546658,0.05374280094666764,0.0011448728233260821,0.1084842643754603,0.997279443225407,0.49404944499573344,0.4953972012075932,-2.923545556820526,29.854045582636093,56.51105512074703,0.5282868196116145,5300.129492439101,1.8929111287220437,4.431256590348381,427.88162053554754,0.475,0.4871794871794871,0.7368421052631579,0.03571428571428571,49.840510366826166,49.813204064813675,49.86951845139241,52.56410256410257,0.5711532099138364,0.4288467900861634,22.562164835212112,19.550395103883417,0.42479861738024266,0.5752013826197573,36.83197128650701,42.85913253916874,0.45673221227068556,0.5432677877293144,30.542146215527804,33.31008248809946,1.0105407576564427,3.124705006924885,1.4233655499857858,1.8719481974571663,-1.435241438981361,-0.6163836419996436,-0.3564400010633823,0.006312934466094132,0.7010583900758148,0.40553470390537294,1.9810014688665833,5.917371495179859,1.4142389836296478,1.0097371884854252,0.897609845325171,1.0708966404651572,2.060249400571778,1.8081075382599614,3.1339343166324696,0.9482892142331044,Relax
80.5576392706917,744.7088607594936,42.98036280846208,,,,,,,39.54549473512949,39.792343100533415,0.05771431639020439,0.05310195274808318,748.0,47.4432,0.06342673796791444,59.5,1.0868586446152435,705.6,776.4,20.253164556962027,58.22784810126582,650.0,861.0,7.181818181818182,109.375,,,0.05350976624778339,0.06390064556406305,0.0011435248093048854,0.11855393662115132,0.8373900729083813,0.4513537700462716,0.5390006218710621,-2.7504258149256886,28.137435645688907,53.71832407715585,0.5237958579138655,4748.504373635768,1.9091407174976989,4.383526952311139,410.2233590857409,0.46835443037974683,0.4805194805194805,0.7297297297297297,0.037037037037037035,51.395939086294405,51.31977464364046,51.472557418942245,50.649350649350644,0.5584276110837841,0.44157238891621575,21.031361863136247,18.70186461986452,0.45390577664467213,0.5460942233553279,36.19139387619114,39.696868276436305,0.47641675391366134,0.5235832460863387,29.598438915927538,31.02902746797324,1.1428450102846008,1.2551110714005098,1.319976494168161,1.5394643278984645,-0.4886614186953082,-0.9051752591040847,-0.32512477283353974,0.00026350398430388856,0.08658238950507288,0.5225572701230803,2.302585092994046,5.843470267460645,1.4277356917253305,0.8047189562170503,0.9222198635284842,1.151292546497023,1.9615362404645555,1.8088508328005874,3.333117405897379,0.9575363161788004,Relax
80.58353220574493,744.9113924050633,41.651850660216375,,,,,,,39.92765894361888,40.17733956745536,0.05591517472398541,0.053600548133256716,747.0,41.5128,0.055572690763052206,52.5,1.0431828903125073,706.6,773.2,20.253164556962027,56.9620253164557,650.0,861.0,6.583333333333333,109.375,,,0.03385486279989717,0.10045941370870623,0.0031390889645624945,0.1374533654731659,0.33700040195399994,0.24630071939931095,0.730861797111241,-2.2980014767442976,28.409669258182277,51.46617966215919,0.5520065690648231,4593.439304426438,1.8115726443149776,4.369108092145397,372.9388927334698,0.4936708860759494,0.5064935064935064,0.7435897435897436,0.03571428571428571,51.364972700545984,51.42541644461301,51.30662952145026,46.75324675324675,0.5428994201802989,0.4571005798197011,20.93729041376008,19.211738835693897,0.4906510018883367,0.5093489981116632,36.050249662934704,36.73073846600045,0.5028575327422808,0.49714246725771893,29.478726487333656,29.31073231214664,0.9886721317663038,2.671491191550094,1.280436531792631,1.9707879100503327,-1.5667779636675991,-1.6099357004542534,-0.24158575538587668,0.007445148293479015,0.6259446866988047,0.5065487209018387,1.9218125974762528,5.878342261158916,1.4429354456270704,1.216181834193403,0.8567814037240756,1.4168439682477256,1.966797295546465,1.8828157706657092,2.4326664148616195,0.8777416231639004,Relax
80.55498405661459,745.0126582278481,33.95604008461305,,,,,,,34.749285179882776,34.97304989723114,0.04557780288644201,0.04664254331267397,747.0,35.5824,0.04763373493975904,48.5,0.9771723334404313,712.8,769.4,17.72151898734177,55.69620253164557,665.0,826.0,6.583333333333333,93.75,,,0.018666726155973846,0.10806688149721341,0.004610937996820711,0.13134454565000797,0.17273308804099416,0.14212029942769622,0.8227740326970088,-2.225004970406044,24.72968074110763,41.41647428650032,0.5970976807450812,3217.670047282378,1.6747678516388844,4.214511617720015,277.45191865303696,0.5063291139240507,0.5194805194805194,0.775,0.034482758620689655,49.49817518248174,49.5106752756742,49.48581792852786,46.75324675324675,0.4582103497335059,0.541789650266494,16.740378124172096,18.203217925881756,0.6289774672360088,0.3710225327639914,32.846618704570446,25.22744501531824,0.5840938239671679,0.4159061760328321,26.06856938981977,21.997512641865306,0.9955357256227891,1.073701122056379,1.1709077737641456,1.2643278713984856,-0.04871204137906737,-0.37052602352124975,-0.41299245598680245,0.00015117992196046523,0.06070611037063211,0.3750012312712121,1.9810014688665833,5.7928373560682385,1.5593990715265544,1.1075446591658777,0.9788036278295351,1.245677152034522,1.995401165119047,1.9034212241598523,3.2816963912178565,0.9575363161788004,Relax
80.67165933953538,744.1875,33.261942273377066,,,,,,,34.96272879886939,35.17698101754329,0.04469564763366365,0.046981075063568516,745.5,34.8411,0.04673521126760563,47.25,0.9513542968777847,712.6,769.2,17.5,56.25,665.0,826.0,6.666666666666667,93.75,,,0.04364389381565246,0.12298127884616873,0.0043337430718391025,0.1709589157336603,0.3548824197075107,0.2552887846086132,0.7193615981851645,-2.0957231396966938,24.873881819175317,39.95152653621435,0.6226015368055637,3121.956284397827,1.606163719303983,4.201396927465345,256.67476981311125,0.5,0.5128205128205129,0.775,0.034482758620689655,51.39318885448916,51.39191613968311,51.39265348761239,47.43589743589743,0.4864915241951352,0.513508475804865,17.353784778942206,17.829139214449057,0.6250298370879968,0.3749701629120032,31.585208865305795,24.464240301077158,0.5863148952373223,0.41368510476267745,25.48312446717276,21.4053411399708,0.8937560405531687,1.1084571079180674,1.076124869255576,1.16594466321719,-0.0801622187046096,-0.374063431308171,-0.41896863368009274,0.00014970785807716695,0.06410273527041302,0.425893050728845,2.1400661634962708,5.862492001110317,1.5917293144301226,0.0,1.069455380418721,1.3201349465481,2.004483157449614,1.9372656872074894,3.2675285421523985,0.9482892142331044,Relax
80.26432554781286,747.632911392405,31.584716043823654,,,,,,,33.96076167186674,34.17775905642753,0.042246289004318587,0.045424380273224735,748.0,35.5824,0.047570053475935827,43.5,0.9300355613045211,717.6,775.4,13.924050632911392,55.69620253164557,695.0,826.0,7.181818181818182,70.3125,,,0.05192856515887699,0.10704693505098746,0.005157458856355363,0.1641329590662198,0.4851009058236271,0.3163810940490404,0.6521964610885931,-2.234487895360641,24.167325194559844,37.72566024903263,0.6406070837469187,2864.2789275210357,1.5610192665229174,4.16398541786605,235.56192996415078,0.5063291139240507,0.5194805194805194,0.8,0.034482758620689655,50.78413284132842,50.77387386409868,50.79362488529225,48.05194805194805,0.47477767896843037,0.5252223210315696,16.653652927936136,17.516040885762067,0.6000470597357175,0.3999529402642825,29.223316741061325,23.85839893783835,0.5635931775550359,0.4364068224449641,23.783885271256157,20.92886628784195,0.7197586957122803,1.127606922142078,0.8886587491351587,0.9878174885718558,-0.14937341930951664,-0.37653508445165107,-0.4120626722933481,0.00012505047383336618,0.0625117808495215,0.4328503619164539,2.169053700369523,5.8036570139451165,1.6232546468115423,1.3053356967509118,1.1256701965066827,1.3600863745795841,2.0112130292664423,1.9648631736298412,4.121085363832984,1.1171257022086005,Relax
80.69979896105842,743.6075949367089,29.180876123259214,,,,,,,32.56905877890225,32.77840106569533,0.03924230511086012,0.043798717227564524,745.0,32.6172,0.04378147651006711,42.5,0.895969279350564,715.6,767.8,11.39240506329114,56.9620253164557,695.0,823.0,8.777777777777779,70.3125,,,0.04092897822414086,0.11296191563256755,0.0056101505304948516,0.15950104438720325,0.3623254615942509,0.25660633371642416,0.7082205390351066,-2.180704546877391,23.17782967000552,34.376391080744106,0.6742368509703321,2503.1272094355636,1.4831583271677362,4.105453031065049,203.94252275752126,0.4936708860759494,0.5064935064935064,0.7948717948717948,0.03571428571428571,49.431818181818194,49.42581271523286,49.43836329599505,50.649350649350644,0.47458241678551566,0.5254175832144843,15.967906123660232,16.801360489130463,0.5283337963344099,0.47166620366558987,24.987020760503277,23.60900373269575,0.5115341922934986,0.4884658077065014,20.968133351109817,20.489884962294887,0.8692680594730856,0.7108055394354378,0.9616722398061731,1.1371112399524586,-0.03389595152786562,-0.8390750399337761,-0.2531828462034369,7.467843093019362e-05,0.028075892581483762,0.31235837944830314,2.03688192726104,5.737263184858579,1.6294423729472134,1.0326275017701187,0.911579959923785,0.9956980190790883,2.0647087064449656,1.9626310994606584,4.168606288475705,1.0373310091937005,Relax
80.98309851804767,741.1125,29.369317387325644,,,,,,,31.263275661121806,31.46253754973499,0.03962868982418411,0.04218425092158317,739.0,33.3585,0.04514005412719892,44.25,0.9394190712986791,712.8,765.0,8.75,53.75,690.0,823.0,8.88888888888889,15.625,,,0.05164535246956366,0.1254614094537945,0.005826080060361596,0.18293284198371976,0.41164333076127163,0.282318647157736,0.6858331620134127,-2.0757570620884684,22.247373654753993,35.28572343712131,0.6304922072633289,2466.196332748158,1.5860624262757048,4.098997757580404,223.86144051029652,0.5125,0.5256410256410257,0.7804878048780488,0.037037037037037035,49.65786901270771,49.65381235295555,49.66222821812734,48.717948717948715,0.4611857953220918,0.5388142046779082,15.108581361902605,16.33071669254928,0.5244802215426014,0.47551977845739873,25.554276144248114,24.33230875244937,0.506475901034632,0.49352409896536786,20.991549014135654,20.721408698696525,0.933521627589858,0.8493061427715838,1.043730510128547,1.1525345346467304,-0.044359501428617776,-0.5166895349574241,-0.3718906893065465,4.1554625464818646e-05,0.03259718130223731,0.2994152962947809,1.791759469228055,5.837492001110317,1.5682871794628226,1.2458898727611227,1.0789817827253791,1.4512471529765616,2.0731658467028486,1.9366438578966023,3.5078622455061312,1.1063374166052884,Relax
81.492916854045,736.4875,32.48173537407434,,,,,,,30.792486343097945,30.986888789585876,0.0441035799984037,0.0418099239200909,734.5,39.2889,0.05349067392784207,51.75,1.0548591306383752,706.0,763.4,8.75,51.24999999999999,659.0,823.0,8.0,46.875,,,0.04851183296161182,0.08623655467699416,0.0036120081990825793,0.13836039583768855,0.5625437280433655,0.3506193565572142,0.6232748479424618,-2.4506611230254007,21.911039190989584,40.63351576040346,0.5392356231291571,2797.0308021781802,1.8544768874820448,4.1536673590084545,301.4156633392225,0.5125,0.5256410256410257,0.7804878048780488,0.07692307692307693,49.25,49.2486874201051,49.252407411943835,47.43589743589743,0.4532480709155475,0.5467519290844526,14.752444386765719,16.20284083986667,0.5146572182999196,0.4853427817000806,29.15032726522287,28.307967489407666,0.5008218467076032,0.4991781532923966,23.101690360817877,23.063749420502,0.8820388690061741,1.1070962651149499,1.0217825830609892,1.3438644220711526,-0.6426130663958229,-1.4523670534150357,-0.20907512818975896,0.00028767761231017746,0.0766649627602043,0.48173551430574735,2.2772672850097555,5.853055907333275,1.502637862688695,1.1449630945009504,1.0247447159862744,1.493646502112947,1.8567579314482863,1.9116676102287873,3.4449721367871025,1.1063374166052884,Relax
81.2259720889984,738.9375,32.729943612245336,,,,,,,31.36070265293933,31.56025956438734,0.04429325025762711,0.04244026409938504,737.0,37.065,0.05029172320217096,48.5,1.0436610421156387,707.0,765.4,8.75,55.00000000000001,659.0,823.0,8.88888888888889,46.875,,,0.04545494608357302,0.10376328423236333,0.004499694437413945,0.15371792475335028,0.43806387220534615,0.29570361528434785,0.6750239726359681,-2.2656430872739888,22.31647355398588,40.781600213041955,0.5472191732890627,2859.168194726089,1.8274213492730833,4.163209814075591,298.1006675473304,0.5375,0.5512820512820513,0.813953488372093,0.07692307692307693,50.43436293436292,50.42977304193719,50.43838731062781,46.15384615384615,0.4766654654036244,0.5233345345963757,15.407915048891143,16.144579148972447,0.5341870644672128,0.46581293553278724,29.806497535021446,27.83364188587517,0.5209310788598674,0.4790689211401325,23.725841833948547,22.752571904386773,0.9933164165659126,1.3441780542163824,1.1077973071733622,1.5578142485845292,-0.9001551781591264,-1.6268943893956367,-0.16521031942192058,0.001046181968347505,0.13446926293613795,0.4830014640655791,2.0794415416798357,5.912492001110318,1.4849222742510406,0.9678002527269727,0.7945134575869863,0.9678002527269727,1.878119712625281,1.8447024172659863,3.6439809258229556,1.1853615177913803,Relax
81.02853045280868,740.506329113924,33.0030586840929,,,,,,,29.980121619294547,30.14819927315592,0.04456823309475793,0.040485976203833665,738.0,35.5824,0.048214634146341466,45.5,1.1008313809792172,710.4,767.0,6.329113924050633,54.43037974683544,659.0,823.0,9.875,78.125,,,0.027208326681163776,0.04523026433827253,0.0009672522406608893,0.0734058432600972,0.60155135237936,0.37065614224683924,0.616167083293481,-3.095988851196562,21.317996146611897,41.06790527678327,0.51909139272958,2750.418646860333,1.9264430387520386,4.146368913676894,316.459920946349,0.5063291139240507,0.5256410256410257,0.7804878048780488,0.038461538461538464,52.47322794492607,52.4469216706145,52.49907891745163,44.871794871794876,0.5123739426876062,0.48762605731239383,15.27263064286067,14.899228603757074,0.5444443509548087,0.4555556490451912,30.302558593180446,27.718726278992502,0.5376278173528574,0.4623721826471427,23.994773431378558,22.252132476649543,1.061166680487583,0.8874433884232165,1.12260532300178,1.4517560770867632,-0.7068550669203084,-1.5675301806424615,-0.12910225217880247,0.00017622503879468794,0.04560723950610272,0.5220085127361327,1.815289966638249,5.8098623936371805,1.455241420807828,1.1352762148228,0.6271092867995486,0.8003960819395348,1.8751974219748555,1.8361817138904106,2.8024223530868193,1.0373310091937005,Relax
80.8675792220991,742.1139240506329,33.19676665664438,,,,,,,32.69301658356618,32.89696981046465,0.04473270960265587,0.0440539053695691,739.0,34.099799999999995,0.04614316644113666,45.0,1.0154084916511321,714.2,768.4,8.860759493670885,54.43037974683544,659.0,823.0,7.9,78.125,,,0.02464036496392236,0.07505400307407914,0.0025630887655659347,0.10225745680356743,0.3283018087603142,0.24096399161633303,0.7339709535144703,-2.5895473835632465,23.261670433468687,40.809888136295704,0.5700008379287888,2982.3332841918373,1.7543833858800955,4.181526285429327,286.3847589037696,0.5189873417721519,0.5384615384615384,0.8333333333333334,0.037037037037037035,48.6810551558753,48.70830937357572,48.65493426456737,46.15384615384615,0.4352816994326429,0.5647183005673572,15.350663084793997,17.48468717805056,0.5573136964518839,0.442686303548116,30.46598770639821,27.152726617608085,0.5273776940365958,0.4726223059634042,24.122803154580357,22.83620862232661,0.805232244960687,1.6058543083939867,0.957936026453561,1.4287256325171436,-1.196761314952715,-1.7455791360658477,-0.2068291914137474,0.0011102981956555228,0.1727622544705387,0.5125254117255449,1.9218125974762528,5.879606381033725,1.4962815550935915,0.8270267396490358,0.7551062215360906,0.928393016676077,2.0191163258270257,1.8694154541379548,2.809934008480157,1.1969203952235006,Relax
81.13896058825881,740.05,35.179791379696766,,,,,,,39.103077026129185,39.35203016975125,0.04753704665859978,0.05283842581734908,737.0,36.323699999999995,0.04928588873812754,46.0,0.8996681093968429,711.8,768.2,13.750000000000002,56.25,644.0,823.0,8.88888888888889,93.75,,,0.017073224056464845,0.03223638799603513,0.00418267436346597,0.05349228641596594,0.5296258395501613,0.3191717012000625,0.6026361959060601,-3.4346594024825174,27.826087386488712,41.51647061149409,0.6702421226236145,3629.296447760954,1.491998139546306,4.266792553601454,247.7699876515123,0.5625,0.5822784810126582,0.8695652173913043,0.07692307692307693,50.43914680050187,50.439188592301576,50.43836152232796,44.303797468354425,0.4594229893621425,0.5405770106378575,18.861166181962073,20.459309209583136,0.5687580387457309,0.431241961254269,31.310081656175957,27.263457570870337,0.5348657402284999,0.4651342597715001,25.84632278545631,24.10269126106025,0.8623024190627734,1.4026787382297279,0.85332998526059,1.5223571423388673,-1.0952081302031402,-2.0126388385256,-0.023036074587803868,0.0011073989893861788,0.15611793005096322,0.5922275521022065,1.8908503718722856,5.878055907333273,1.4917096227511504,1.0279194151480568,1.1468804931085035,1.5277858287364696,2.0398959393766,1.879557093207481,3.6257926891126866,1.1853615177913803,Relax
81.08735091165123,739.7341772151899,33.61879391236453,,,,,,,34.784317126382085,35.00351535554804,0.04544712810069984,0.047022725457043835,736.0,31.1346,0.04230244565217391,44.5,0.9664928533803653,712.6,768.4,11.39240506329114,54.43037974683544,659.0,823.0,7.9,78.125,,,0.02225901289670525,0.030849929828903916,0.0008565248034275724,0.053965467529036734,0.7215255600306207,0.4124677115922054,0.57166056816435,-3.4786208032231514,24.75122307327546,40.22543450462132,0.6153127586585027,3127.859817927372,1.6251897688261623,4.202217390901766,261.4958584139898,0.5569620253164557,0.5769230769230769,0.8888888888888888,0.07692307692307693,51.15420129270546,51.106223433868834,51.20369583083371,46.15384615384615,0.4601381707213698,0.5398618292786301,16.792468936610035,18.18912190965127,0.5623573150283283,0.43764268497167175,30.165249259128284,26.610962369298882,0.5342777922559554,0.46572220774404444,24.412386977233016,22.79240524894638,0.899911975263148,0.9676727709835812,0.967890852598968,1.3837483607549386,-0.8392244561062601,-1.830862976532128,-0.07024986067007294,0.0003900110063839891,0.06746342488756184,0.4882749158023043,2.0281482472922856,5.939794830428198,1.482998481221316,0.9935145990868998,0.9352778642913991,1.3690594785321302,2.0157091420155724,1.8449958198829404,3.5122863744795754,1.0373310091937005,Relax
80.9149909862093,741.8481012658228,34.267083932257535,,,,,,,35.7613170181384,35.98745480159584,0.04619150992472349,0.04820571348382304,742.0,37.065,0.04995283018867924,49.5,0.958216497308447,714.2,772.4,11.39240506329114,60.75949367088608,659.0,823.0,8.777777777777779,70.3125,,,0.023049636363208573,0.02963616283561109,0.0011002502108912301,0.05378604940971089,0.7777537359024062,0.42854302586214926,0.5510009223741273,-3.518759945922269,25.446973327852795,41.42759251085465,0.6142518014095389,3311.8884691258954,1.6279968535790614,4.2270458130568915,269.77596103610745,0.5569620253164557,0.5769230769230769,0.8888888888888888,0.07407407407407407,51.05540897097626,51.0667916084628,51.042868667292666,47.43589743589743,0.46648688748095285,0.5335131125190473,17.382817310848598,18.589726250752648,0.5409791065505154,0.4590208934494847,30.470525341824363,28.06764162943977,0.5205679806639034,0.4794320193360966,24.805395101359487,23.805151004736164,0.845493178346435,1.7459521521622023,1.0494128971787349,1.569738528931343,-1.4007703694840128,-2.0602701598906052,-0.2019817346608082,0.0011924744729684606,0.210927212968885,0.41544204012271946,1.6739764335716716,5.930239292426128,1.4967761769263142,0.8864446526183158,0.9171171142134522,1.3888717720202326,2.0077118484935825,1.8456488616820588,3.375063907222606,1.0373310091937005,Relax
80.58377574543877,744.375,37.51198120837148,,,,,,,38.68028641261625,38.923226058190764,0.050393929415108625,0.05196344102450545,745.0,38.547599999999996,0.051741744966442946,51.5,0.9697958491883425,712.8,776.0,13.750000000000002,62.5,659.0,845.0,8.0,93.75,,,0.020048789959727958,0.028166929426594083,0.007311805840829023,0.05552752522715106,0.7117847194518369,0.3610603908190164,0.5072606659736641,-3.5696067045758118,27.52287709140362,44.7700660271347,0.6147606991404093,3871.0736867512364,1.6266492008976052,4.29480154825178,291.30076850868676,0.5375,0.5569620253164557,0.8636363636363636,0.07692307692307693,49.0923759580476,49.02930641186421,49.15256534081377,46.835443037974684,0.4415086677326836,0.5584913322673164,18.289866887684852,20.57070358917862,0.5093888636932515,0.4906111363067484,31.95306022458461,31.358583423969748,0.4907681529257664,0.5092318470742333,26.033798114039776,26.51899885470713,0.8389484121428346,1.6505224789349298,0.8654945935311034,1.626847741396099,-1.4699797568436601,-2.395255936415259,-0.038719915916388424,0.0015619457030074842,0.2182197793979362,0.3742050207731711,1.580450375560848,5.918619813556231,1.4863583889542071,1.2078128439455467,1.3092681179842065,1.7282660344604228,2.1248209311245394,1.871503999203042,3.0414370717643426,1.1853615177913803,Relax
80.68767689143351,743.8227848101266,36.294648716838964,,,,,,,36.66497665102915,36.901099471304946,0.04879475253786934,0.04929262372675033,744.0,34.099799999999995,0.04583306451612903,45.5,0.989899681712199,716.8,773.8,13.924050632911392,59.49367088607595,659.0,850.0,6.583333333333333,93.75,,,0.022771543146939348,0.026379139799802984,0.006125574433791599,0.05527625738053393,0.8632405499101764,0.41195884500962193,0.477223695124711,-3.635181740268482,26.09301766939905,44.53182382671221,0.5859409165664414,3650.435366277161,1.706656715253657,4.269314773293953,304.0021447054048,0.5443037974683544,0.5641025641025641,0.8636363636363636,0.08,50.505050505050505,50.51938429873667,50.490674523699106,47.43589743589743,0.4707554097485147,0.5292445902514853,17.903420553974247,18.98307516861119,0.5193183432667401,0.48068165673325997,32.09130024206796,30.874451932087506,0.5069060562123563,0.49309394378764365,25.984457073017886,25.628001531176057,0.9224884951474138,1.3838079036479884,1.0804223194469667,1.4205905535968442,-0.8021094117755734,-1.2984715424563849,-0.2541795842810787,0.0005442317572909005,0.11618558761787381,0.4335329838974644,2.0476928433652555,5.8385290076433884,1.4609249759981173,0.8584968011212866,1.2957529083468122,1.7935119553971295,2.0297218172065965,1.8459642361735207,2.9955193694865296,1.1969203952235006,Relax
80.84353661481428,742.9873417721519,38.2436499407673,,,,,,,45.067328549228456,45.345767109385136,0.05147281493322571,0.06065692645817514,743.0,35.5824,0.047890174966352624,47.5,0.8485892368568632,713.2,773.8,18.9873417721519,59.49367088607595,643.0,850.0,7.181818181818182,109.375,,,0.03454372146378994,0.047415933942261054,0.008559040766019547,0.09051869617207053,0.728525594494337,0.3816197418279692,0.5238247560716766,-3.0487969476504926,32.064299421152135,43.439342078655386,0.7381396192210619,4375.773834004116,1.354757249116735,4.348024976947511,235.39905431168003,0.6075949367088608,0.6282051282051282,0.8979591836734694,0.13043478260869565,51.62151850438763,51.6576044611118,51.58404143138357,44.871794871794876,0.455104372471169,0.544895627528831,21.637359466333333,23.675841158139544,0.5679882629955691,0.4320117370044308,32.7380584427021,28.55163689928586,0.5281603950512599,0.4718396049487404,27.748475591220345,26.22728945367893,0.905510622112472,1.8826371104467161,1.1611349202708028,1.5569633895422557,-1.1884276008450492,-1.4315833864703986,-0.28974786639708283,0.0011003853745326284,0.22188600151146962,0.3827822441065143,2.3025850929940455,5.8036570139451165,1.4683511456669254,1.451302258504148,1.2658288879812922,2.0049031986000667,2.054875840213516,1.8772190218545632,2.8618308408355206,1.1171257022086005,Relax
81.22447758166531,739.2875,44.22474069876971,,,,,,,52.46240365698425,52.766631779999344,0.059820760798430524,0.0709634663875478,742.5,37.065,0.04991919191919192,49.25,0.8429796886152037,703.8,773.4,23.75,61.25000000000001,612.0,850.0,7.2727272727272725,117.1875,,,0.04451771114689801,0.06476779689379787,0.017403977561285058,0.12668948560198093,0.6873432983971236,0.3513923111722061,0.5112326140251149,-2.7369467606656737,37.31164315201112,48.543662608904775,0.7686202718697771,5690.190267949379,1.3010325600278003,4.4620968984902465,252.62754254875676,0.6,0.620253164556962,0.8979591836734694,0.125,47.62382864792504,47.43565705984954,47.795536935337445,49.36708860759494,0.4369504028845799,0.56304959711542,24.678314990477585,28.013847308530135,0.4840184760018716,0.5159815239981285,33.77252334862371,34.86981282074577,0.4665255946561284,0.5334744053438716,29.577039778370015,31.628147963321275,0.7815390083489595,2.084691660351594,1.0749060259452523,1.4297439032007735,-1.1107190658010229,-1.0524332659000142,-0.3297887961063384,0.0014803810237384535,0.27275891054353063,0.4627507531953454,1.9218125974762528,5.828055907333274,1.419172335563614,1.356070115983074,1.5013106271803003,1.7009923764624701,1.9811352799480986,1.89281531791728,3.3028929680464127,1.1063374166052884,Relax
81.29329083849251,737.075,58.35287135126008,,,,,,,74.18382914307614,74.6013314210211,0.07916815975478761,0.10064624243540499,743.0,37.065,0.04988559892328398,49.25,0.7865982657583857,703.8,773.4,28.749999999999996,66.25,458.0,907.0,8.0,273.4375,,,0.035555531608629794,0.04798244967608231,0.022021719199984788,0.10555970048469689,0.7410111790593523,0.3368286518943308,0.4545527266159531,-3.0369199666821167,52.751107333349076,55.405234585499194,0.9520960921471351,9181.893504751233,1.0503141523717776,4.669902361301061,232.7716080025123,0.6125,0.6329113924050632,0.94,0.12,46.89542483660132,46.44063713086198,47.20414494473106,45.56962025316456,0.2731095143022753,0.7268904856977246,27.588552066540302,45.00854619701941,0.6062512588556441,0.39374874114435593,43.139700406537145,34.76645320288533,0.44772482098733524,0.5522751790126649,36.20885220698101,40.214894622997875,0.6909889726407329,1.9942135614173622,1.0210049451804355,1.0667442527586382,-0.42729013787289816,0.20999655218961966,-0.4770639872964789,0.0007376622435205206,0.21869223767817642,0.6088253839610518,1.5960148921019597,5.903055907333275,1.2451754741240353,1.3159804724124957,1.5185810865023595,1.6034338085688264,1.7834754156339578,1.9333084647073426,2.747559014064123,1.1853615177913803,Relax
81.51142530573175,736.2375,47.31773659213352,,,,,,,51.088282983751256,51.405850892719826,0.06426966378666331,0.06939103615851035,739.0,40.771499999999996,0.05517117726657645,54.75,0.9261954763127004,695.6,772.6,28.749999999999996,67.5,610.0,850.0,8.0,117.1875,,,0.029800641158024593,0.05350575757172309,0.0124353682354119,0.09574176696515958,0.5569613908947575,0.31126061386426096,0.558854920561408,-2.927966012707547,36.349425758906726,56.00490600756852,0.6490400279217405,6395.485221848343,1.5407370223405963,4.512843609703294,345.1553284742644,0.6,0.620253164556962,0.9387755102040817,0.11538461538461539,48.818153167349514,48.772616695495195,48.865032080044394,48.10126582278481,0.4378610123623242,0.5621389876376757,24.056956987266272,27.258026340878022,0.5799682973101092,0.4200317026898908,42.6509000040514,36.2966971742746,0.537838103443129,0.4621618965568712,34.625398558303786,32.09712000913005,0.775242788182591,1.7590252655654695,0.9864729196886766,1.4474003167537202,-1.2899552644392394,-1.7797177632069743,-0.237964311207963,0.0010062012751506618,0.20004474449303286,0.44115331876710506,1.7707060600302225,5.818619813556231,1.4545528323347512,1.56400517326181,1.5949108198543602,1.804376491776921,2.0803344733251614,1.9146909312813727,3.876040919306512,1.1063374166052884,Relax
82.2142486718029,730.0617283950618,48.084910751454125,,,,,,,50.44427618669932,50.750469225242426,0.0658641713176255,0.06909590548951797,731.0,51.891,0.07098632010943912,67.0,0.9532282825010127,687.0,770.0,28.39506172839506,64.19753086419753,610.0,850.0,9.0,148.4375,,,0.020519390703426687,0.02982083128340004,0.012426288338541156,0.06276651032536788,0.6880891584953549,0.32691622645673063,0.4751073642427365,-3.5125480933271835,35.886000937568106,57.83943291561562,0.6204417838937616,6520.771216762437,1.611754762427848,4.521269073082817,372.89192583147803,0.5802469135802469,0.6,0.8958333333333334,0.11538461538461539,48.60050890585242,48.61775208601998,48.588527664005866,48.75,0.4384044800314388,0.561595519968561,23.766533219336445,26.89924943661374,0.5816549344537332,0.4183450655462668,44.111998568660646,37.41031384897059,0.541824618462618,0.4581753815373823,35.431035258564926,32.58144565954406,0.811225439303797,1.5817456228249664,1.0108560759417933,1.4003288685651087,-0.99134943960577,-1.5077084197721722,-0.253770273169636,0.000755361235278305,0.15965446269489275,0.4717368675248106,1.992430164690206,5.901457718880588,1.3953704190158467,1.6090939847201877,1.4870437712696085,1.9631190488927137,2.2091870947568477,1.8954113992601866,3.0542710199673704,1.2523160499525183,Relax
82.40405196126326,728.4691358024692,49.68980942299766,,,,,,,51.659945799429565,51.9855810096549,0.0682112761967056,0.07091576466382732,730.0,53.373599999999996,0.0731145205479452,70.0,0.9618633673352855,683.0,771.0,28.39506172839506,65.4320987654321,610.0,850.0,9.0,117.1875,,,0.01694295043034139,0.025426804576025412,0.009181286720904906,0.05155104172727171,0.6663421028655983,0.32866358976754045,0.49323551424129686,-3.671951363124711,36.75935685584959,60.39951116827923,0.608603549016055,6975.112245403802,1.6431057650201446,4.55052131074861,396.97114001999284,0.5555555555555556,0.5750000000000001,0.8478260869565217,0.12,49.78042659974906,49.790266254294814,49.77288448896299,50.0,0.4764355971896956,0.5235644028103045,25.373039613741717,26.598396258878164,0.5614833502327682,0.438516649767232,45.2586780964488,39.996912459952625,0.5384960145902021,0.46150398540979776,36.68882038358879,33.96489135764619,0.752211493938392,1.5918384955521967,1.0606218006457246,1.3584964894217193,-0.47843976361147256,-1.0666593363065595,-0.3128737999437159,0.0013827040862353873,0.2024971325202313,0.45264497550719973,2.0794415416798357,5.984851391746803,1.3887913934721343,1.0063379226837874,1.1509023008383243,1.51038404885813,2.0659039763221267,1.8907864462405437,3.860275094155222,1.017506790586421,Relax
82.78954411972441,724.939024390244,50.365417186986065,,,,,,,50.535893612460015,50.84415185424748,0.06947538412537399,0.06971054380051679,729.5,57.080099999999995,0.07824551062371486,69.5,0.9966266268727477,677.4,765.4,28.04878048780488,60.97560975609756,610.0,850.0,10.25,148.4375,,,0.018056860734582177,0.03007689496531914,0.009994291704516392,0.05812804740441771,0.6003565446301241,0.3106393822065639,0.5174248286040537,-3.503998011115653,35.95224455981697,61.74467788330894,0.5822727689625816,6973.895112532282,1.717408151821475,4.550445521256552,424.1632525135436,0.524390243902439,0.5432098765432098,0.8409090909090909,0.07142857142857142,48.933419521654805,48.91885078925991,48.952955436927375,50.617283950617285,0.47628393533915997,0.5237160646608399,24.815065988225783,26.021385435829508,0.5434324985804765,0.4565675014195236,45.51686400589967,41.720742299029325,0.5264273689719808,0.4735726310280191,36.65768956802628,34.76875636244425,0.8931019157686674,1.4529543855025429,1.1746712559356975,1.4732911791617274,-0.41864768211844705,-1.117387214731604,-0.2944739861033255,0.0011945592148752836,0.1719609505558485,0.5722394941184397,1.8405496333974871,5.906094077683281,1.30598743697483,0.0,1.3839069201799539,1.7410348858015892,2.0198543248262366,1.8319542243859503,3.480741047839956,1.0854357081055264,Relax
83.50719077792702,718.939024390244,55.413228255562785,,,,,,,51.87615832411972,52.17515313766,0.0770763950427654,0.07215654814136374,723.0,60.0453,0.08305020746887966,76.75,1.0681829581393367,670.2,765.4,29.268292682926827,63.41463414634146,599.0,850.0,10.25,164.0625,,,0.03653514359371033,0.04304740191137894,0.011415741362000888,0.09099828686709016,0.848718899898412,0.40149265279106466,0.4730572782568193,-3.1454534004201786,36.893404593085954,68.92121217487633,0.5352982547589987,7988.247541722498,1.8681174300675027,4.6094216243901,515.0116710610682,0.5365853658536586,0.5555555555555556,0.8444444444444444,0.07407407407407407,48.019801980198025,48.038757144918506,48.00609431076393,54.32098765432099,0.5098127368314814,0.4901872631685185,26.354553686222804,25.84231026824034,0.45370124837437836,0.5462987516256215,46.42350151909812,50.941063930395245,0.466207641503294,0.5337923584967063,37.7472117731476,40.390698151682244,0.8864119074440614,1.796748855017464,1.1464425009923653,1.4791894257584977,-0.7646920346229251,-0.9672614779646111,-0.31480610167807893,0.0013716562752122841,0.22002708395175424,0.6236290746258208,2.3826278006675823,5.997676699687267,1.2944060129292951,0.9043322580733999,1.2989711619000692,1.5493737110201664,1.954407407105516,1.8247413483738044,2.769740639994329,0.7753112200753761,Relax
84.16398010570569,712.4457831325301,56.169658724879824,,,,,,,53.198546651705236,53.462080655842335,0.07884060802200168,0.07467030883079727,715.0,56.3388,0.07879552447552447,70.5,1.0558494970290575,668.2,753.0,30.120481927710845,60.24096385542169,566.0,850.0,11.857142857142858,132.8125,,,0.04042630285809215,0.03710205586362622,0.010610096895863865,0.08813845561758224,1.0895973799048944,0.4586681554019394,0.42095196249643546,-3.2940828967901385,37.80339976808826,68.08462074988614,0.5552413944841057,8085.925847683239,1.8010184577991255,4.614699864262235,490.4866346511931,0.5421686746987951,0.5609756097560976,0.8260869565217391,0.1111111111111111,46.76390154968096,46.55604856051265,46.95415187090533,52.4390243902439,0.4732469502341994,0.5267530497658004,26.03712923433442,27.46962407667022,0.46859847646348424,0.5314015235365155,46.606818596158874,49.63184504932861,0.46969586694087817,0.530304133059122,37.75001747298067,40.1117207927692,0.9634245182603558,1.1470583370588854,1.2557478380861327,1.367385446411463,0.33384914122881604,-0.3265992813216747,-0.4026748642866983,0.0011091381365656596,0.12652770421599793,0.6038310448678774,2.065455299705096,6.052691389152187,1.2995537339295613,1.137590487373274,1.212188856629901,1.4664050890118079,2.0616759193148946,1.803195646150974,2.6402327856029384,0.8448847439134477,Relax
84.5889677689707,709.2857142857143,56.17991139243602,,,,,,,57.5821048172149,57.92070536941641,0.07920632019074564,0.08118322934954768,709.5,53.373599999999996,0.07522706131078223,72.5,0.9756487987156789,663.0,750.8,33.33333333333333,60.71428571428571,597.0,849.0,10.5,85.9375,,,0.02815866320072589,0.04142805282696625,0.016924648589807193,0.08651136461749934,0.6797003788311509,0.32549091469342073,0.4788741110504489,-3.183797023105061,40.956123537822414,68.17284130434562,0.6007689096451331,8771.626115228475,1.6645335401771837,4.650050221846246,453.903923521039,0.5119047619047619,0.5301204819277108,0.7954545454545454,0.07407407407407407,48.683845940703776,48.63512963012932,48.736476280080616,54.21686746987952,0.5170038117317035,0.4829961882682963,29.454491561911773,28.469281690973517,0.42966677309122703,0.5703332269087729,44.68659666159857,51.48440900225135,0.45283569475160035,0.5471643052483997,37.84480806112725,41.600146455938706,0.8292257291063722,1.5792283559542204,1.2019093730649328,1.3696750676407317,-0.07359030102934305,-0.536395131776088,-0.39376729847633124,0.001718096829275253,0.21746767853499901,0.5312650304218427,1.9459101490553132,6.064820101298676,1.3574827725719965,1.4882695044262562,1.3702145848234148,1.6408833706049641,2.2005379547446786,1.8326382979717095,3.756193613808519,1.0653862371297935,Relax
85.08476198541679,705.1666666666666,52.402481623691116,,,,,,,58.13217179488791,58.477115385443966,0.07431219327396518,0.08243749250043192,706.0,51.149699999999996,0.07245,68.5,0.9014368465122327,663.0,741.8,33.33333333333333,58.333333333333336,597.0,825.0,10.5,101.5625,,,0.04606288628313084,0.053973662613821916,0.013912532740100403,0.11394908163705317,0.8534326568257528,0.40424096115007596,0.47366474427356103,-2.91925908077019,41.349564833275615,61.315451814430574,0.674374298968209,7965.091127010973,1.4828560363732686,4.608160858803477,363.6879513839306,0.5476190476190477,0.5609756097560976,0.8043478260869565,0.07692307692307693,48.840497737556554,48.724572970512924,48.95494596348264,52.4390243902439,0.5475389145982331,0.45246108540176694,30.601390849946995,27.817896503036646,0.44716424778694047,0.5528357522130596,41.00185158752418,45.58983217343971,0.4785487207825485,0.5214512792174516,36.17731993636745,37.76419046832632,0.9352336362792999,3.603383683977518,1.514090230689258,2.2629194409792093,-1.6228099437172414,-1.4231943384153602,-0.2921872118088263,0.016950427370220147,1.2939704478651208,0.4554707476395965,1.6677068205580763,6.064820101298676,1.3351853000488985,1.221536137143243,1.4078116166772934,1.6495019469834662,2.10800483983629,1.782294075682824,4.16764206928085,1.0653862371297935,Relax
85.36975619338958,702.722891566265,52.073426876467714,,,,,,,58.474405491300004,58.82917282120206,0.0741023631098793,0.08321118636247815,695.0,48.925799999999995,0.0703968345323741,63.5,0.8905336692001999,663.0,740.6,31.32530120481928,54.21686746987952,597.0,831.0,9.222222222222221,93.75,,,0.04513782435042996,0.04885190419699493,0.011448113182716746,0.10543784173014163,0.9239726698965927,0.4280989027256081,0.46332420500437443,-3.018961920761869,41.598507033467314,59.168643808333435,0.7030498648611664,7732.487592925471,1.4223742155152441,4.595289341795323,336.63981327991667,0.5060240963855421,0.5185185185185185,0.7857142857142857,0.038461538461538464,50.915963943006695,50.762226672607135,51.0805052859277,53.086419753086425,0.5909251406132412,0.40907485938675864,31.980221511134573,26.60826939130014,0.45721607433760814,0.5427839256623918,40.00850839772581,43.591830265619,0.5014496008505636,0.4985503991494368,36.21750482924059,36.112654748069524,0.9128530951188711,1.197004601930567,1.2824259734992993,1.3030852544416602,0.6101541609061565,0.028068865603724014,-0.4827408508630284,0.0019924957982516522,0.16579373024805213,0.5036419980761817,1.6582280766035322,6.052691389152187,1.2960073235382104,1.4548345837844736,1.3762585013566766,1.5891203168053145,2.1212914547134045,1.7903706802567434,3.1354578972062037,1.1521155598819743,Relax
85.36635221252563,702.952380952381,51.0324500501219,,,,,,,57.88855100405777,58.23779114429932,0.07259730734673892,0.08235060094060515,698.0,47.4432,0.0679702005730659,61.25,0.8815637835976361,663.0,739.4,30.952380952380953,54.761904761904766,597.0,836.0,10.5,62.5,,,0.03620132521013849,0.04231702051170826,0.011491003743358279,0.09000934946520503,0.8554790666351927,0.40219516556036056,0.4701402772393859,-3.162565897698168,41.180337039459914,59.32640304408057,0.6941317006672761,7675.16617841852,1.4406487976830469,4.592057897314777,341.87404486525816,0.4880952380952381,0.5,0.7560975609756098,0.037037037037037035,49.32590855803048,49.297700970035486,49.35748516605034,54.87804878048781,0.5998310203494644,0.4001689796505358,31.895121578194445,26.05142662635374,0.43694456468945986,0.5630554353105401,39.2158098927841,44.5167648487815,0.4899109688161236,0.5100890311838765,35.74338068814132,36.472038480663514,0.8288557924410106,0.8441405101670459,1.2696839161587574,1.0686915083296418,0.9668951962544545,0.32256626788865583,-0.7381030236178827,0.0022412881507010273,0.11438585890781804,0.5193786044184057,1.5939337258981352,6.049997333467289,1.2587385007962295,1.4209009219162645,1.3480089238195996,1.6930424535510673,2.0785689167930923,1.8281911715937924,3.0999612860322454,1.2175842710054783,Relax
84.90623461014829,707.4698795180723,50.80458433064577,,,,,,,58.452607444605675,58.78195537430871,0.07181165700687328,0.08262204390160544,708.0,45.9606,0.06491610169491525,62.0,0.8691585636926842,668.6,741.0,27.710843373493976,54.21686746987952,587.0,837.0,9.222222222222221,148.4375,,,0.049983918858601095,0.058787175876839834,0.010354994495605004,0.11912608923104594,0.850252084966937,0.41958834694604064,0.4934869956388954,-2.8338315451968934,41.565119256578704,57.47065810663627,0.7232407044905421,7504.557230676558,1.3826655410724011,4.582295183896651,317.8507943471969,0.4939759036144578,0.5061728395061729,0.7560975609756098,0.037037037037037035,52.32909860859044,52.41118706768958,52.25540959236826,55.55555555555556,0.6615768997394441,0.33842310026055605,33.825441517106036,24.192642489345474,0.41179219012234,0.5882078098776599,36.879516881761056,44.076952909403545,0.4976350406508054,0.5023649593491946,35.38544375346492,35.55321172830284,0.8930262942566595,1.2851587639602462,1.2602169824055538,1.3825825253925754,0.2538395280981369,-0.45893529674522604,-0.4047856604035835,0.0018941941459740483,0.175746722563025,0.5388515192074905,1.6422277352570913,6.0676927445478075,1.216575526405792,1.4924095614248198,1.3040521069956206,1.496527441494118,2.1165693418465543,1.826843659918,2.41505635532918,1.2289232638741059,Relax
84.53340373054854,710.144578313253,48.282484964976504,,,,,,,52.3225223155709,52.6423351225463,0.06798965512016983,0.07367869010539828,712.0,42.9954,0.06038679775280898,59.5,0.9227858831761231,672.8,741.6,22.89156626506024,51.80722891566265,597.0,837.0,8.3,140.625,,,0.04127639326722779,0.03712787399176357,0.012730293413357375,0.09113456067234874,1.1117359770285937,0.4529170159235926,0.4073962031292108,-3.2933872709360186,37.22375214264725,57.655262146979936,0.6456262751481927,6742.313955776286,1.5488836785189182,4.535779081535442,357.2051780807473,0.4819277108433735,0.4938271604938272,0.75,0.037037037037037035,49.33378886231637,49.259780845507805,49.41075029310762,56.79012345679012,0.6344420835059492,0.3655579164940509,29.65064069842607,22.506926231608386,0.40713501222162246,0.5928649877783775,36.788169350252936,44.39324102939644,0.4740128026547552,0.5259871973452446,33.41055146185146,35.19461306428265,0.8849880547128328,2.8431769511670453,1.3892909591734282,1.8542714574425294,-0.830037875723443,-0.7758213770424458,-0.3364574184950959,0.009137475647653624,0.7688222981228422,0.4969560695482209,1.4213856809311607,5.90372117256664,1.2087244310820882,1.0851701941878311,1.0835582831896147,1.3014195535594824,2.0745914087837174,1.7995369359164644,3.258830090643217,0.9216924479055795,Relax
84.04783632211522,714.4096385542168,48.35287873100298,,,,,,,52.031416400891175,52.35031859186415,0.06768228775420344,0.07283134716125822,714.0,41.5128,0.05814117647058823,57.0,0.9293016042164636,676.4,745.6,21.686746987951807,50.602409638554214,597.0,837.0,8.3,140.625,,,0.032903589529625465,0.05159097707830534,0.017877320134555317,0.10237188674248612,0.637777987412102,0.32141235818378155,0.5039564935252305,-2.964408484608446,37.017265273583334,57.92258536887416,0.6390817163605975,6736.000988336809,1.56474512476235,4.5353722521750575,362.5363322783075,0.5060240963855421,0.5125000000000001,0.7804878048780488,0.07692307692307693,50.524475524475534,50.43881326753633,50.606623806186654,57.49999999999999,0.6486828591506154,0.3513171408493846,29.81475730383227,21.941420326084767,0.38151011046207123,0.6184898895379289,35.77675642250572,45.552712275990864,0.4589895247086878,0.5410104752913121,32.930958482875376,35.75245111614821,0.8750749414045852,1.0770911211280692,1.1787152983205014,1.1753335871567383,0.4514095420829136,-0.06622610593108291,-0.5031396704488857,0.0008321182882017954,0.10328513133545929,0.4660091221741123,1.4469189829363254,5.971307202379132,1.1885424958841542,0.708303336014054,1.0283120340968,1.191783576265421,2.0678952702321443,1.8122869178978425,3.4099039651017913,0.8448847439134477,Relax
83.7349216551081,717.277108433735,47.36992800650807,,,,,,,52.064219256887625,52.37757553141068,0.06604132133806177,0.07258592062219359,722.0,37.065,0.051336565096952905,49.0,0.9098365188726316,683.8,748.4000000000001,21.686746987951807,51.80722891566265,597.0,837.0,8.3,140.625,,,0.02810912237531026,0.044182886699224766,0.011849705300975967,0.08414171437551099,0.6361993177734913,0.33406880979229575,0.5251008614115422,-3.1194177436221007,37.03653884037107,56.04211862986569,0.6608697127419758,6520.708885973018,1.5131575569577225,4.521264921726118,339.20222125080977,0.4939759036144578,0.5061728395061729,0.8048780487804879,0.037037037037037035,51.22206703910616,51.14129191381341,51.296631092967225,56.79012345679012,0.6496202918893628,0.3503797081106372,29.855102754702205,21.925941566560986,0.3609191073120334,0.6390808926879666,33.66816775000071,44.80149038683591,0.44869610011857664,0.5513038998814234,31.81880481834614,35.26982034588493,1.0281686023487173,2.7916922414198626,1.5639906919779463,1.9081565966858485,-0.5584362467187649,-0.3331614562937899,-0.37671782025197076,0.008512647667193141,0.7227255468540366,0.4507720576269043,1.33828514193353,5.912816202713189,1.1992907927712717,1.2359367078477224,1.0689098261945595,1.2311397760042733,2.155782022128716,1.8355195499129713,2.9964936867086402,1.0753078558898426,Relax
83.90277122665988,715.4756097560976,45.489986853642804,,,,,,,50.615471211141816,50.92908407715843,0.06358006650869641,0.0707438108594595,715.5,37.8063,0.052838993710691826,48.0,0.8987368044818131,683.8,745.6,20.73170731707317,50.0,597.0,837.0,8.2,140.625,,,0.04556570774357252,0.12971435365994374,0.04023217866020204,0.2155122400637183,0.35127729860202334,0.21142979039195442,0.6018885684710642,-2.0424205256261554,36.012300710578536,53.706351786564525,0.6705408115169642,6076.120706754123,1.4913335367875677,4.4905965028280725,320.37633423125834,0.5,0.5125000000000001,0.7560975609756098,0.038461538461538464,49.383164005805504,49.31397516488013,49.45324192945085,58.75,0.6349148981283372,0.36508510187166304,28.69614521150881,21.760198758283437,0.36088420423793177,0.6391157957620685,32.26335962268438,42.93539155614585,0.44588335410992475,0.554116645890075,30.531894177586338,34.03640769881246,0.6779460801183507,1.3086756468471956,1.0484631638037267,0.966960333839782,0.5976758019618558,0.38979008078085586,-0.5622788619627008,0.0013145642515090435,0.1564259334730371,0.4317632040840609,1.133098464739279,5.773719041436045,1.1830130914895385,0.3846408932118608,1.0215776311729716,1.2070576745839408,2.140697016278537,1.9096634934534282,3.0459329426139217,1.0854357081055264,Relax
83.22903025870049,721.4512195121952,42.345770246314906,,,,,,,49.35772670195808,49.642502821873855,0.058695264629182745,0.0684145031112859,723.5,33.3585,0.04610711817553559,43.25,0.8579359925147242,693.0,750.0,18.29268292682927,56.09756097560976,617.0,837.0,7.454545454545454,125.0,,,0.04825163463574343,0.10005158762546051,0.037604860616845065,0.18590808287804902,0.4822675559769394,0.2595456522855721,0.5381777170554323,-2.30206934975785,35.102550380419316,47.51256331581686,0.7388056532983084,5239.586390142268,1.353535934024897,4.4262671153484625,257.23984706236496,0.5609756097560976,0.5750000000000001,0.8260869565217391,0.13043478260869565,52.1880650994575,52.27420336691121,52.10821922474578,56.25,0.6480532709001627,0.3519467290998374,28.271120423499315,20.834166650000668,0.40170080116540385,0.598299198834596,30.113401202212305,36.75087401510479,0.4887394142903667,0.5112605857096334,29.20679015199549,29.872137861844642,0.9193413838660806,3.347907581678556,1.4764903420155313,1.9566106064014268,-1.1808349223710675,-0.6337689023997655,-0.3565909444414307,0.01084234935889781,0.9701663435057973,0.5422908085434504,1.6863989535702286,5.826944992370194,1.2575418372255873,1.0302923789251857,1.109257014710648,1.586127176283775,1.9328532226121151,1.9514094370616728,2.3584470924463,1.0854357081055264,Relax
81.66527773755864,735.15,54.84779861269026,,,,,,,54.6564645208968,55.00156676532679,0.07460762920858365,0.07434736383173067,731.0,58.5627,0.08011313269493844,78.5,1.003500667184946,689.8,779.4,30.0,61.25000000000001,619.0,891.0,10.0,148.4375,,,0.05296419532208217,0.04300850895487033,0.004630332051591759,0.10060303632854427,1.2314817837014191,0.5264671649582663,0.42750706662983146,-3.146357300193365,38.89198083564722,67.18187322173522,0.5789058710417824,8208.46677798115,1.727396542378174,4.621232154773577,464.198942054857,0.575,0.5844155844155845,0.8,0.2777777777777778,49.154704944178626,49.06434948221035,49.2435181615983,57.14285714285714,0.5589049106140279,0.44109508938597214,29.077813376683444,25.83205125023702,0.40006901633514236,0.5999309836648576,42.493212804420914,52.03586220232642,0.43994297595573373,0.5600570240442663,36.40873772332016,41.07934899030397,1.179840130746484,1.1957438226035961,1.3439790109540999,1.4704705048026643,-0.3419996552975402,-0.5812505976937068,-0.39421522281156884,0.00010364658912820113,0.06724473871510411,0.5259162155137465,1.7707060600302222,5.909183719779189,1.259645368630879,1.3559108052283602,1.1843284451597424,1.502886046148265,2.099589689127489,1.7647843812631583,2.9676592062215517,1.0273133154191965,Stress
82.31602436534673,729.4320987654321,54.249870569339826,,,,,,,53.40704541537568,53.72586152126862,0.07437274924034469,0.07321729535314857,727.0,57.8214,0.07953425034387895,76.0,1.0157811604706652,679.0,773.0,27.160493827160494,58.0246913580247,619.0,891.0,10.125,54.6875,,,0.059702319540095736,0.04307316471315132,0.0057745732035339,0.10855005745678097,1.38606763486471,0.5499980464208056,0.3968046238050204,-3.1448551042511994,37.98992100677844,66.52767519202587,0.5710393591407502,7940.001976094383,1.7511927750561922,4.6067907204753835,466.0111365502431,0.5802469135802469,0.5844155844155845,0.7777777777777778,0.35294117647058826,51.82625863770978,51.76261152450054,51.882927985678386,55.84415584415584,0.5766242303394175,0.42337576966058243,28.857682214356892,24.727374263651278,0.4110351391866208,0.5889648608133793,42.652237894963676,51.0560297027405,0.45177440865609597,0.5482255913439038,36.414140249588385,40.11334694949927,1.1358765739605676,1.424811142879311,1.3525831256753376,1.4939228569136769,-0.31068010093083664,-0.40848488434721997,-0.40080107672886756,0.0003640431025590958,0.11226123208699777,0.521287769445506,1.4190841839428812,5.833435805246921,1.2477033908358741,1.0939445750914794,1.0280591189841217,1.0980540847026292,1.813951460809278,1.7562260664911336,2.678922203040276,0.8609672843423565,Stress
81.36703630513801,737.575,54.642399033643265,,,,,,,52.58471164449014,52.91733247810689,0.07408385456888217,0.07129405368198508,737.0,56.3388,0.07644341926729986,75.75,1.039130905634028,691.6,779.4,26.25,60.0,619.0,891.0,10.0,164.0625,,,0.0623114605018743,0.06317129006567465,0.0059362476951467765,0.13141899826269574,0.9863889187175622,0.4741434748826713,0.4806861329090369,-2.7619053521544488,37.418204637572515,67.53480355830283,0.5540580954717572,7938.9023382193645,1.804864883615755,4.606730569390331,487.5647814570765,0.5875,0.5921052631578947,0.8222222222222222,0.3333333333333333,49.211673934921166,49.23910340717577,49.183943899817585,55.26315789473685,0.5354571131670381,0.46454288683296174,27.38249955813534,25.5049014897137,0.4340486328629188,0.5659513671370812,44.49352737445016,50.806256636733295,0.45786954320656753,0.5421304567934323,36.94235550335298,40.198107626091094,1.1567101932035362,1.698850202057284,1.3957370528230284,1.687645389003133,-0.8781809931411075,-1.1103848869479345,-0.3281729985218192,0.0005942359794009518,0.166905741289644,0.5217170848553017,1.6945957207744071,5.849747626002143,1.241339565515093,1.0326780515982439,1.345220444778839,1.5283224928901908,1.8814378403216505,1.7346464734357574,2.6603502293230235,0.9482892142331044,Stress
82.32882239802919,729.6666666666666,54.13293821694884,,,,,,,51.68546700959565,52.0111219240411,0.07418858595287643,0.07083435405609272,727.0,56.3388,0.0774949105914718,74.0,1.0473531797032771,684.0,773.0,24.691358024691358,56.79012345679012,613.0,891.0,11.571428571428571,93.75,,,0.043512205110124116,0.02573554531723948,0.0029477482121806806,0.07219549863954428,1.6907434668181125,0.602699696380943,0.35647022047359506,-3.659882156389873,36.77741700960976,67.58063573205986,0.5442005185542043,7808.243884255034,1.8375579697291238,4.599523479673198,496.7333431552296,0.5679012345679012,0.5714285714285714,0.7954545454545454,0.29411764705882354,50.28941096356827,50.224735849342665,50.35111864413609,57.14285714285714,0.610380373495047,0.38961962650495297,28.73327802083822,22.956480566497994,0.41224550939837035,0.5877544906016295,43.39105800341649,51.81079435111482,0.457517312784125,0.5424826872158748,36.79935584000513,40.070927187260786,1.2079460879256758,1.5043463860408774,1.4070146066515297,1.60833221819781,-0.44969484258644243,-0.5355687125107416,-0.36617602607062744,0.0005877999347151852,0.12974116799370683,0.5254238687888173,1.4954936530848824,5.848807564479471,1.2130052311210084,1.1360769906635004,1.4492156603016904,1.7435708739574767,1.96296327909079,1.7132062142998203,3.158637885315597,1.017506790586421,Stress
82.2144128567209,730.0123456790124,53.82204330642801,,,,,,,51.77789103468777,52.10354223969855,0.07372757957451537,0.07092741833910655,727.0,57.8214,0.07953425034387895,75.0,1.0394792493647682,684.0,774.0,25.925925925925924,55.55555555555556,619.0,891.0,11.571428571428571,85.9375,,,0.04853343965463271,0.020353335985080746,0.0030636814052383806,0.07195045704495184,2.3845447100273063,0.6745396992309709,0.28287987069164516,-3.894510450057866,36.842768041530555,66.67946897117943,0.5525354147234577,7717.813096823313,1.8098387421926556,4.594464366964577,482.71634501149435,0.5555555555555556,0.5584415584415584,0.813953488372093,0.35294117647058826,49.55540355677156,49.45793836507598,49.650565778804065,59.74025974025974,0.6243822152595162,0.37561778474048385,29.112940269564675,22.580516974494696,0.3751866769612094,0.6248133230387908,40.84283091830053,52.70687568863852,0.43347275148766096,0.5665272485123389,35.46618198058628,40.54561931758496,1.1772387511259979,2.101189636669969,1.4789976436227925,1.840653753032233,-1.1582191752465114,-1.1697821205092938,-0.32788030975509447,0.0013832848404391354,0.27668820677538997,0.5279481194955427,1.5293952047605641,5.833435805246921,1.2001939825489336,1.2055296132361273,1.2207230763022903,1.2696770133041515,1.9819947560799842,1.7066732206461015,2.609229067439972,1.0957765437084537,Stress
82.89634248092365,724.5679012345679,58.35900493317311,,,,,,,55.94729662816604,56.29216281985183,0.08054318281797618,0.07721470483696455,717.0,62.2692,0.08684686192468619,79.0,1.0431067888951924,675.0,773.0,27.160493827160494,59.25925925925925,567.0,891.0,13.5,93.75,,,0.03933418780321635,0.03672838188018434,0.0037695807657876267,0.07983215044918832,1.0709480186612275,0.49271111428035286,0.46007005540407275,-3.30420547456737,39.80457005757447,72.63846445917852,0.5479819865953238,9083.421448526913,1.8248775041185512,4.665219574818834,530.2251989010791,0.5555555555555556,0.5584415584415584,0.813953488372093,0.29411764705882354,48.80050505050505,48.72617018676279,48.881251250929125,62.33766233766234,0.634596338775119,0.365403661224881,31.71351187495699,24.064785975583348,0.3859379605991752,0.6140620394008249,45.12585085017823,56.921033933290516,0.4433752147288358,0.5566247852711643,39.00057211372398,43.69850127913681,1.175534169880271,1.4992248918172733,1.4108953454625917,1.6414292912681447,-0.3584149407687178,-0.6523503584897368,-0.34623124451588233,0.0008749550531500409,0.15162906908219495,0.4610220960862712,1.442383827770934,5.926149076905279,1.1829689455530439,1.0960033418574742,1.250640124449825,1.3254403613823473,2.020835100663811,1.724862640682388,2.7399901533630233,0.9392370374643888,Stress
83.39140290431826,719.439024390244,65.72691305904304,,,,,,,58.41074228953793,58.72055080139961,0.09135855969830033,0.08118928819442842,709.0,67.4583,0.09514569816643159,89.75,1.125253857128529,665.4,771.8,30.48780487804878,60.97560975609756,544.0,969.0,13.666666666666666,117.1875,,,0.03847142933585112,0.015482446116462933,0.00678187303232272,0.060735748484636774,2.4848418038376594,0.6334231535087205,0.2549148813137497,-4.168048405444701,41.52169966667883,78.79371802371048,0.5269671327628451,10278.188763236998,1.897651557046988,4.718886699384055,598.0920867728621,0.5609756097560976,0.569620253164557,0.8444444444444444,0.3125,46.98186143324413,47.42718514842711,46.43846084836636,62.0253164556962,0.585698932902007,0.41430106709799286,31.80624938593043,26.750584105772344,0.3625975236458394,0.6374024763541605,47.44648138354426,62.90692652101983,0.41115639513356367,0.5888436048664364,40.39063069375751,48.336710450345024,1.196899176035783,1.514301071451328,1.401545975406318,1.7308185251377193,-0.6797010312885412,-1.1095453403261946,-0.28255806857759025,0.0009187650964571815,0.15415550869176226,0.5336752522104646,1.4170660197866443,6.006882644835603,1.1156056792420792,0.929324850524386,1.3027571813095737,1.6549649469828858,1.8864413498903816,1.6914918430018104,1.889313995570508,0.9303734640904512,Stress
84.5092272063713,710.2530120481928,56.15762732408292,,,,,,,54.250323141669945,54.57887281194494,0.0790670738053448,0.07638168683751939,699.0,51.891,0.07423605150214592,77.0,1.0351574713653264,665.8,762.2,27.710843373493976,59.036144578313255,544.0,852.0,11.857142857142858,117.1875,,,0.046471169494322714,0.014154806601829795,0.006858263767195754,0.06748423986334826,3.2830663675980833,0.6886225522940496,0.20974981166702733,-4.257701023398946,38.59309107484436,69.73175902990255,0.5534507032626952,8454.541451145076,1.8068456578062209,4.634060167710123,503.9781040574766,0.5662650602409639,0.5750000000000001,0.8695652173913043,0.2777777777777778,49.02454373820013,48.92482958811872,49.12669440161687,61.25000000000001,0.6304374849793232,0.36956251502067683,30.645926964380973,23.46365721443576,0.44463279109321713,0.5553672089067829,46.49768861724345,51.9661733309108,0.4882074174227299,0.5117925825772702,39.37770870843239,40.31765358087452,1.2034456061405028,2.0653680989038135,1.5435655609614178,1.9015068470065963,-0.8894589033543205,-1.0363244308572925,-0.32669370838294903,0.002051846726286803,0.30938372852738316,0.5201666080883718,1.400893160541043,5.889923015606078,1.2167867820286853,0.8700836755552197,1.3828184463318451,1.5351934111796006,1.928559168453667,1.670503657635775,2.890608329421716,1.1521155598819743,Stress
84.55435322584181,709.6024096385543,56.4483229587429,,,,,,,55.64620382380095,55.974379274809664,0.07954922671062466,0.07841884845366451,701.0,51.891,0.07402425106990014,75.0,1.0144146245354273,665.8,760.2,27.710843373493976,60.24096385542169,544.0,852.0,10.375,179.6875,,,0.0295677825987411,0.01391599700119296,0.0026395469846401632,0.04612332658457422,2.1247333264160932,0.6410591947335805,0.30171277814655967,-4.274716237185928,39.57986315792565,69.30297840220896,0.5711134509720304,8617.39619363349,1.7509655888825735,4.642346170500877,485.3885215573604,0.5783132530120482,0.5875,0.8723404255319149,0.23529411764705882,48.43417452113106,48.304348397437785,48.566808720464074,61.25000000000001,0.6185465100250873,0.38145348997491263,31.136596704215886,24.45151412918792,0.45248452946115486,0.5475154705388454,46.61801390537391,51.2802456598582,0.49334303702103277,0.5066569629789671,39.64042680649783,40.17175710710998,1.1762782544577637,1.2733779815047699,1.3871157874439506,1.584683010765692,-0.05337812072192705,-0.48208422446620247,-0.34484793502690125,0.0008069584021308276,0.11889517840379195,0.5242245229300031,1.5234954826333758,5.932209461441343,1.2358719776137188,0.6940646127821859,1.372178794084459,1.8630159958697596,1.881790397674587,1.6813026177498362,2.8142202101586835,1.0753078558898426,Stress
85.10703571053536,705.9166666666666,57.76817157039286,,,,,,,57.99345621581302,58.3436751114198,0.08183426500350777,0.08215340273754648,697.5,48.1845,0.06908172043010753,78.75,0.9961153436935747,663.6,760.4,29.761904761904763,63.095238095238095,544.0,852.0,10.5,187.5,,,0.042278240839624066,0.0124021447938422,0.006776783324517026,0.06145716895798329,3.408945915598056,0.6879301724511363,0.20180143348811322,-4.389885854082916,41.25520831062973,70.94921159476196,0.5814752184459161,9195.518678068329,1.7197637462051387,4.6705463408354975,488.0635276900356,0.5476190476190477,0.5609756097560976,0.8478260869565217,0.21052631578947367,50.618705035971225,50.52212568009972,50.709467076326334,60.97560975609756,0.6468266051463554,0.35317339485364446,33.181044397623666,24.518285858995416,0.43363913713804997,0.5663608628619499,46.72096556747109,53.39421319170728,0.48751038862872453,0.5124896113712756,40.520552383166574,41.54568776554856,1.2346161543340617,1.4507157227738947,1.4473623350666873,1.7011297567043373,-0.37117351750437777,-0.711873481079282,-0.3250743287234631,0.0008747856988744232,0.1432974317404329,0.5350599674625598,1.778856064392147,5.921962958441534,1.2490547676492905,1.355827287514673,0.9379758523934228,1.5027111262215267,1.862796235343666,1.7139908182816301,3.3114935499155314,1.141485254067636,Stress
85.32837717472724,703.6867469879518,56.89483831679057,,,,,,,58.003994816168884,58.33914282595321,0.08085250796653798,0.0824287157097219,695.0,44.477999999999994,0.06399712230215826,77.0,0.9808779291341304,663.4,756.6,30.120481927710845,62.65060240963856,544.0,852.0,9.222222222222221,140.625,,,0.0484848682107226,0.010361150890503544,0.005818699735922538,0.06466471883714868,4.679486740721162,0.7497885876968964,0.16022880910681783,-4.569691958503872,41.252003500842044,68.89497088284388,0.5987665423502567,8928.580931377344,1.6700999960265586,4.657752549517174,460.2459623907497,0.5301204819277109,0.5432098765432098,0.8409090909090909,0.2,48.136467889908246,48.092859358598254,48.184852064849075,60.49382716049383,0.5733853838179536,0.42661461618204627,31.248604907131057,26.954121973420406,0.4734666362566062,0.526533363743394,47.40587984686287,49.991995048134534,0.4998502595194585,0.5001497404805416,40.14842931359316,40.16045480476244,1.122786451457828,1.724947448725425,1.3436455674582717,1.7660916937262305,-0.9565947824624601,-1.3810861492150055,-0.25509623404463305,0.0014217771786301898,0.21163966011896082,0.5130500115992533,1.6341305250244718,5.9472108168369635,1.216780778457423,1.2428627367512484,1.0233179056434585,1.3427355385281943,1.7968083328714777,1.731291676833181,2.6315283994995227,1.0753078558898426,Stress
85.56672985993815,701.3928571428571,55.65686999176787,,,,,,,55.14122066900106,55.47553354602092,0.07935192014713073,0.07861674111370384,694.5,44.477999999999994,0.06404319654427645,69.0,1.0093514310439757,662.2,751.8,29.761904761904763,64.28571428571429,544.0,843.0,9.333333333333334,140.625,,,0.044717347625668466,0.010881211438273359,0.006948517531928887,0.06254707659587071,4.109592748871743,0.7149390516617792,0.1739683456123627,-4.520717698323246,39.22712596033319,67.0284971041244,0.5852305758757563,8260.300458645354,1.7087282196484186,4.623965954516861,458.13393808975866,0.5238095238095238,0.5365853658536586,0.8636363636363636,0.13043478260869565,50.38123167155425,50.29224844453696,50.47341021341,58.536585365853654,0.5914505123511091,0.4085494876488909,30.16842963001991,25.073550343524712,0.4954215592915313,0.5045784407084688,47.17880461257993,47.61281150452701,0.5199208792613575,0.4800791207386425,39.59781402434645,38.05037940806167,1.1585006942666725,1.1727803452417318,1.1628777253165214,1.7340521808275215,-0.495058020779199,-1.4733806486591652,-0.012974055347704237,0.0014043911983568872,0.13648552616812606,0.4826370670768281,1.55814461804655,5.978568762038718,1.2463239067587517,1.2231480223064797,1.155407902610847,1.7081158798215903,1.810139368505797,1.730552506747869,2.4918591249269912,1.0653862371297935,Stress
85.83260604847494,699.964705882353,56.09843539512946,,,,,,,57.992199803898096,58.33448076897869,0.0801446629004152,0.08285017703970517,697.0,50.4084,0.0723219512195122,72.0,0.9673444977915574,660.0,747.8,30.58823529411765,68.23529411764706,544.0,843.0,9.444444444444445,140.625,,,0.054097370174784803,0.025627067655516804,0.019079613049517115,0.09880405087981872,2.1109465547120108,0.547521783702843,0.25937264137771576,-3.664106155782969,41.24870692874108,68.08115664297348,0.6058755309498444,8822.407972947,1.6505040209038944,4.652557246866311,449.47289114806244,0.5176470588235295,0.5301204819277108,0.8636363636363636,0.08695652173913043,50.96048298572996,50.907744404147856,51.010543561170486,57.831325301204814,0.5800176991150443,0.41998230088495564,31.41780248924186,26.734414443983066,0.5120490435022296,0.48795095649777037,48.71724325519696,47.55706150992784,0.5303025178688782,0.4696974821311219,40.990536125056025,38.57721487563423,1.0339144916257945,1.0649192257936066,1.2163394664200977,1.5169400825795338,-0.044442177315104914,-0.9455741334289771,-0.21772449132428753,0.0010411612705054423,0.11074937860190787,0.4368637274033138,1.3581234841531942,6.000509906700483,1.2855770212689188,0.9914921930161793,1.170321519141336,1.6149780347224811,1.896410424110937,1.7853508065983656,3.301732243168194,0.980259790232825,Stress
86.51320363637909,694.0117647058823,56.00903288493636,,,,,,,61.79882877607987,62.14540257644495,0.08070329025138734,0.08904579420533283,693.0,45.9606,0.06632121212121211,62.0,0.9063122067875736,644.8,738.4,32.94117647058823,67.05882352941175,544.0,843.0,9.444444444444445,140.625,,,0.05690859302948433,0.01752631161292047,0.015902978012835182,0.09033788265523998,3.2470376132951486,0.6299526993195849,0.19400843918167557,-4.044052006469997,43.943435581372164,64.88036565394462,0.6772994439605239,8956.888530203532,1.4764518248420186,4.659127279351117,383.1709370647359,0.5764705882352941,0.5952380952380952,0.9,0.13043478260869565,48.11076604554866,48.22708653441389,47.98624980057005,60.71428571428571,0.5670347003154574,0.4329652996845427,33.10325212429768,28.92626688085849,0.413507626727319,0.5864923732726808,41.72103280496844,49.68719421617914,0.4618141421063161,0.5381858578936838,37.65946016287323,40.65431210055679,1.018704811870207,2.845857602982895,1.3431178556452616,2.2670617158159585,-2.0902855737666997,-2.650888041960492,-0.17533728349504843,0.009346874883377206,0.796142575796599,0.48242660570061213,1.3723081191451507,5.991628877263266,1.2598471932531055,1.31450346833628,1.243894648148696,1.615154246221821,1.8436702029691776,1.8051877525179958,2.4531856148103763,1.0556643894815037,Stress
87.65937865454408,685.5930232558139,51.49948666950946,,,,,,,64.87336079760684,65.25355201381889,0.07511670177876585,0.09462371785746829,685.0,48.925799999999995,0.07142452554744524,65.25,0.7938464423043929,634.0,731.0,37.2093023255814,70.93023255813954,544.0,821.0,9.555555555555555,140.625,,,0.05377645189197931,0.02174639502680522,0.01080453227394533,0.08632737919272986,2.4728904181908287,0.6229362271258219,0.2519061186631809,-3.8283072810788257,46.14122912548043,56.41046920931047,0.8179550670687363,8177.089364292569,1.2225610430945173,4.619568853978672,275.860968311943,0.5930232558139535,0.611764705882353,0.9230769230769231,0.16666666666666666,50.80859280714458,50.714146469658225,50.902028439143045,58.82352941176471,0.6010141812052208,0.39898581879477935,35.7736768082476,29.14740860816667,0.34574313274804264,0.6542568672519572,33.169314294631945,45.62825468543028,0.4480793588784708,0.5519206411215293,34.49608211925687,38.28517372436698,0.9073766813691667,1.7890294977611787,1.0275386874042338,1.7653791428429717,-1.2731048607812028,-2.2000802859676343,-0.08757501966173072,0.00251116352823213,0.2897122699431537,0.5104550483363739,1.6094379124341005,6.091905597700197,1.3712877899927112,1.2354106056523262,1.1689799917812354,1.5237905360702544,1.9098028512888778,1.8605246187797122,4.127628791666023,1.1955841404096927,Stress
87.20226578963981,689.7325581395348,54.60972212917762,,,,,,,67.4426117699555,67.81610700820195,0.07917521289190747,0.09778081514938675,689.0,45.2193,0.06563033381712627,60.0,0.8097213422791151,641.0,731.0,36.04651162790697,70.93023255813954,544.0,879.0,12.285714285714286,140.625,,,0.03353984961619196,0.026987434082756317,0.010661593180866265,0.07118887687981454,1.242795054666658,0.4711389066134027,0.37909621931974247,-3.6123839256543815,47.95322913917215,57.4007034478021,0.835411872308828,8647.387984653464,1.1970143508211102,4.6438550549804285,274.8378630969836,0.6162790697674418,0.6352941176470588,0.9259259259259259,0.17391304347826086,51.89992919518528,51.58348392918707,52.25618412894374,56.470588235294116,0.6164946213753447,0.3835053786246551,37.66637694789548,29.70810375253575,0.40867078920608396,0.5913292107939162,36.69475673971039,44.13995450967297,0.49413474662395,0.5058652533760498,37.18374056336636,37.6225132911627,0.8372574511220944,2.0399804326643753,1.057608966656867,1.8237802945051786,-1.1550291561635886,-2.0880944102653816,-0.12442221720350952,0.007452544741917067,0.5019395048355184,0.5052526234148691,1.6094379124341003,6.004582632533604,1.3277552969366584,1.0199468427802603,1.3788591468613007,1.8181560238115015,1.9220507722169795,1.880222966267518,3.553848623795757,1.1208601316340867,Stress
87.69951753794938,684.9651162790698,49.89576138414933,,,,,,,61.80919406195356,62.16916472027597,0.07284423717108056,0.09023699542207218,692.0,51.149699999999996,0.0739157514450867,67.0,0.8072546834074075,638.0,731.0,36.04651162790697,68.6046511627907,544.0,800.0,12.285714285714286,171.875,,,0.03131607658801664,0.044501230687788676,0.015229755156726338,0.09104706243253166,0.7037125963487096,0.34395482678227757,0.4887717351755889,-3.1122384342869966,43.96023795441061,55.39056639842541,0.7936412427741534,7649.723068602443,1.260015163154229,4.590615823291255,279.1718142308686,0.6046511627906976,0.6235294117647059,0.9056603773584906,0.13043478260869565,50.98734177215189,50.952798076458336,51.01860221420983,54.11764705882353,0.5405195669044012,0.45948043309559883,32.32314517935583,29.80172574101804,0.41537435120179284,0.5846256487982072,35.698966561291954,42.352079434121464,0.4637436099387068,0.5362563900612931,34.05291417654262,36.61858469095298,0.7864776556903572,1.7785246130889265,1.0576854594289486,1.5306006234759835,-1.2030049334130695,-1.9135958079046704,-0.23409692473938853,0.0012448987486946468,0.22952561250180817,0.37812100710154173,1.363304842895192,6.123939173306748,1.3298182017212623,0.7025559564578794,1.1749218544675615,1.7140661889213136,1.7876718585809754,1.896672744521333,3.8577641212060105,1.1955841404096927,Stress
