Subject_id,PPG_Rate_Mean,HRV_MeanNN,HRV_SDNN,HRV_SDANN1,HRV_SDNNI1,HRV_SDANN2,HRV_SDNNI2,HRV_SDANN5,HRV_SDNNI5,HRV_RMSSD,HRV_SDSD,HRV_CVNN,HRV_CVSD,HRV_MedianNN,HRV_MadNN,HRV_MCVNN,HRV_IQRNN,HRV_SDRMSSD,HRV_Prc20NN,HRV_Prc80NN,HRV_pNN50,HRV_pNN20,HRV_MinNN,HRV_MaxNN,HRV_HTI,HRV_TINN,HRV_ULF,HRV_VLF,HRV_LF,HRV_HF,HRV_VHF,HRV_TP,HRV_LFHF,HRV_LFn,HRV_HFn,HRV_LnHF,HRV_SD1,HRV_SD2,HRV_SD1SD2,HRV_S,HRV_CSI,HRV_CVI,HRV_CSI_Modified,HRV_PIP,HRV_IALS,HRV_PSS,HRV_PAS,HRV_GI,HRV_SI,HRV_AI,HRV_PI,HRV_C1d,HRV_C1a,HRV_SD1d,HRV_SD1a,HRV_C2d,HRV_C2a,HRV_SD2d,HRV_SD2a,HRV_Cd,HRV_Ca,HRV_SDNNd,HRV_SDNNa,HRV_DFA_alpha1,HRV_MFDFA_alpha1_Width,HRV_MFDFA_alpha1_Peak,HRV_MFDFA_alpha1_Mean,HRV_MFDFA_alpha1_Max,HRV_MFDFA_alpha1_Delta,HRV_MFDFA_alpha1_Asymmetry,HRV_MFDFA_alpha1_Fluctuation,HRV_MFDFA_alpha1_Increment,HRV_ApEn,HRV_SampEn,HRV_ShanEn,HRV_FuzzyEn,HRV_MSEn,HRV_CMSEn,HRV_RCMSEn,HRV_CD,HRV_HFD,HRV_KFD,HRV_LZC,Labels,HRV_DFA_alpha2,HRV_MFDFA_alpha2_Width,HRV_MFDFA_alpha2_Peak,HRV_MFDFA_alpha2_Mean,HRV_MFDFA_alpha2_Max,HRV_MFDFA_alpha2_Delta,HRV_MFDFA_alpha2_Asymmetry,HRV_MFDFA_alpha2_Fluctuation,HRV_MFDFA_alpha2_Increment
01,60.24742448453163,997.5084745762712,102.91381946700908,,,,,,,113.10926971982325,114.02012775900698,0.1031708723183786,0.1133917882430729,1013.0,97.85160000000016,0.0965958538993091,121.0,0.9098619390075742,909.8,1080.6,52.54237288135594,86.4406779661017,782.0,1246.0,11.8,242.1875,,,0.0055796147269116,0.0464537110569856,0.0135787797474928,0.0656121055313902,0.1201112806696336,0.0850394097510293,0.7080051871641465,-3.069298923329421,80.62440553015034,119.72783021204268,0.6733973662377524,30325.747189288133,1.4850072930741698,5.188781620116629,711.1868041953173,0.7288135593220338,0.7543859649122807,0.9534883720930232,0.4166666666666667,52.528856243441766,52.870823549715794,52.19977540109616,50.877192982456144,0.4651842568072936,0.5348157431927065,55.02654861638679,59.0013380758169,0.4824800567087613,0.5175199432912386,83.16388998991061,86.13083494910383,0.4770789516944282,0.5229210483055717,70.5129550185125,73.82302697589218,0.5461467691778351,1.79573932936697,0.8319596012468342,0.909895149491404,-0.6719203165003407,-0.3507379620542441,-0.4565997430862956,0.0002553616376677,0.1569285133868249,0.3639143302573626,1.421385680931161,5.814846439192349,1.1523194707153677,0.6299994923998176,0.9213587938586364,0.9976223120664994,2.00194570252294,1.920874470972458,2.4065952445971424,0.9970581439596342,Relax,,,,,,,,,
01,58.97392475942212,1021.5,93.3637011999545,,,,,,,120.18450727724304,120.99095069622332,0.0913986306411693,0.1176549263604924,1020.5,84.5082,0.0828105830475257,109.75,0.7768364102419791,949.2,1093.8,58.620689655172406,89.65517241379311,806.0,1275.0,11.6,195.3125,,,0.0042350132645757,0.0261945536641348,0.0074880498173354,0.037917616746046,0.1616753359830762,0.1116898589101684,0.6908280612564175,-3.642203765238875,85.55352169950673,92.49971042425716,0.924905832754598,24861.546331019235,1.0811911489645956,5.102498247225727,400.0394727699799,0.7413793103448276,0.7678571428571428,0.9767441860465116,0.3333333333333333,54.43087829854273,54.45602533789984,54.44586424621052,50.0,0.5085251771473269,0.4914748228526731,61.14108391954745,60.10734445259461,0.5904242330641746,0.4095757669358255,71.07591514912569,59.198063433576216,0.5525768682435088,0.4474231317564911,66.2948635157463,59.65443642944156,0.424214324164831,2.1134254177712406,0.7870129645679863,0.8785313712874177,-0.8631637916305959,-0.4125540950316656,-0.4566966470877671,0.0005050028864037,0.2337374376149124,0.3795519328177374,1.6094379124341005,5.754532719265503,1.2026775341817018,1.0018332963081178,0.9985774245179968,1.020278350460487,1.9059536810598052,1.9898658885721556,2.4962868262962075,1.110996395627643,Relax,,,,,,,,,
01,58.2630710634705,1031.107142857143,83.76779128724152,,,,,,,109.46290363738429,110.36310745994555,0.0812406274823443,0.1061605521750808,1024.0,79.31909999999999,0.0774600585937499,98.75,0.7652619152579537,967.0,1096.0,55.35714285714286,89.28571428571429,806.0,1246.0,11.2,195.3125,,,0.0049857004571797,0.0458088298850429,0.0169753176311477,0.0677698479733703,0.1088371056342488,0.0735681221999913,0.6759470657665211,-3.08327841419419,78.03850167774715,86.39111790297225,0.9033162618105474,21180.09427932392,1.107031991205014,5.032897998920179,382.5509250982181,0.7321428571428571,0.7592592592592592,0.951219512195122,0.3636363636363636,53.00607971177661,53.26404421517429,52.7556008033982,50.0,0.4627771362498996,0.5372228637501004,53.14010133948157,57.25503374279757,0.5536507596438985,0.4463492403561016,64.2816541526901,57.71736473470693,0.5127739494767852,0.4872260505232146,58.97457685722056,57.4866640222238,0.3572829779991946,2.06575950247348,0.7523868449970861,0.7151711459743788,-0.4423330780888275,0.1787958933788426,-0.5180155042143804,0.0006263617442696,0.2370186682968884,0.3500457382968451,1.5686159179138452,5.700212064914747,1.3216854463630854,0.840093846785475,1.0593512767826485,1.0871134767536177,1.8733550598784496,1.990814873465,2.5404578560443563,0.9333248981878292,Relax,,,,,,,,,
01,57.850080833060346,1038.6607142857142,81.14863507186041,,,,,,,107.45705273186206,108.38409999309462,0.0781281451736299,0.1034573188856576,1036.0,71.9061,0.0694074324324324,90.5,0.7551727225792324,982.0,1096.0,53.57142857142857,89.28571428571429,806.0,1246.0,11.2,195.3125,,,0.007782074785497,0.0775891653522784,0.0320784363182194,0.1174496764559949,0.1002984727334559,0.0662588013889746,0.6606162544972941,-2.5563274832899774,76.63913207791803,84.5526094868974,0.9064076501363844,20357.64167958456,1.1032563547422984,5.015697575921946,373.132814905854,0.7321428571428571,0.7592592592592592,0.926829268292683,0.5,52.33041070604523,52.42605533522142,52.231146022667374,48.14814814814815,0.4429856743811073,0.5570143256188925,51.03865637381576,57.23182227992991,0.5462640571618751,0.4537359428381249,62.492561810218,56.954573911494165,0.4996530873588605,0.5003469126411395,57.05376729913793,57.09336638752936,0.4129993234676954,1.648444142577888,0.7403945510273175,0.5752780635076061,0.2808875143992599,0.9369308642642152,-0.6001650485175052,0.0004861278774404,0.1590003015015859,0.4029357165056142,1.9095425048844383,5.664497779200461,1.3620585071225455,0.8439698934194664,0.9536419996606896,1.0986122886681098,1.915360402640573,1.9874289766552733,3.035715060327321,1.0370276646531436,Relax,,,,,,,,,
01,58.02282112409341,1033.2105263157894,87.2798734863283,,,,,,,110.4029955597738,111.35901925228676,0.0844744331027577,0.1068543077599563,1030.0,71.1648,0.0690920388349514,83.0,0.7905571134532641,977.2,1094.4,59.64912280701754,87.71929824561403,741.0,1246.0,11.4,265.625,,,0.0075298742930422,0.0603866972630776,0.0132362357098757,0.0811528072659956,0.1246942560915025,0.0927863686632733,0.744111008571119,-2.8069864422874176,78.74271765957525,86.3973604695415,0.9114018904239,21372.766782548308,1.0972108029476353,5.036830856768553,379.1844690133676,0.7719298245614035,0.8,0.9545454545454546,0.6666666666666666,48.12227074235807,47.79267671597695,48.37366715046845,47.27272727272727,0.3849838991816272,0.6150161008183729,48.87646765989837,61.776282592181694,0.5055947006930214,0.4944052993069784,61.433001010633866,60.74940561792645,0.4508447698461514,0.5491552301538488,55.51091200872867,61.26499560858731,0.4557873640845284,1.804487739879136,0.774561262077726,0.710409176349821,-0.3862731805757704,0.1829040640796089,-0.5355514112454995,0.0003183991718777,0.1615044432567444,0.4407060868153487,1.7346010553881064,5.69253913697176,1.2358377333638522,0.8482072829979097,1.1634077423416398,1.2658978798089953,1.8528578417412291,1.9631267394471148,2.866978125331709,1.0233140375727616,Relax,,,,,,,,,
01,58.29403807372753,1032.842105263158,93.13062820455168,,,,,,,122.1228158161166,123.18580491463916,0.0901692792441134,0.1182395791126282,1042.0,62.2692,0.0597593090211132,85.00000000000011,0.7625981073412261,983.2,1095.8,61.40350877192983,85.96491228070175,800.0,1246.0,11.4,203.125,,,0.0074564584480886,0.0380212448011667,0.0081274958349636,0.053605199084219,0.1961129491441531,0.1390995383931656,0.7092827832134649,-3.269610201764322,87.10551800106447,98.77980809362298,0.8818150154584864,27031.09996110113,1.1340246905186402,5.138833828517226,448.0749652114458,0.7543859649122807,0.7818181818181817,0.9534883720930232,0.5,51.78180370296636,51.787370028441735,51.7649614690232,47.27272727272727,0.475003681827815,0.5249963181721851,60.05414223848344,63.13535243643396,0.4234816180616368,0.5765183819383632,64.28141971360438,75.00233040790413,0.4460282747071331,0.5539717252928668,62.20370133841139,69.32323670274329,0.5481184085003902,1.05856430910866,0.7327210725078972,0.7564439357972348,0.2047731290966385,0.0401733224417792,-0.4775895870612595,0.0001799728139329,0.0610646081994871,0.3715774973348513,1.642227735257091,5.69253913697176,1.3206898658819728,0.7443072004973579,1.2053685431802494,1.32974388696683,1.85674630931504,1.962502779876258,3.5472503487469904,1.227976845087314,Relax,,,,,,,,,
01,58.577160978913625,1025.8245614035088,85.21949031073851,,,,,,,90.660571836462,91.47158915956706,0.0830741371547423,0.0883782424866318,1030.0,68.19959999999999,0.0662132038834951,79.0,0.939984036990872,962.8,1090.8,57.89473684210527,82.45614035087719,800.0,1187.0,9.5,203.125,,,0.0117632675239358,0.025059135482229,0.0064672797705657,0.0432896827767306,0.4694203250657978,0.2717337427628111,0.5788708503934565,-3.686516828025121,64.68018098063975,102.06261685720318,0.6337303801560803,20738.999372045768,1.5779581211708862,5.023757908413924,644.2021405511053,0.7192982456140351,0.7454545454545454,0.926829268292683,0.4166666666666667,49.10385465259023,49.07628815280502,49.13445100965369,47.27272727272727,0.4534688441676101,0.54653115583239,43.56019868057204,47.821543262425145,0.4169170809255138,0.5830829190744861,65.90093001043857,77.9348778372016,0.4273920551752095,0.5726079448247904,55.85885554382417,64.65580091337334,0.7448086117685611,0.821321702016403,0.8565286153814223,1.0916742781273394,-0.142006460338588,-1.013788417325206,-0.2136984665465215,0.000195663383681,0.0450524354656986,0.3902953827746258,1.475906519809578,5.69253913697176,1.3373648945050027,0.981829160280792,1.04733625829906,1.297637466339349,1.801963398728876,1.895246891641712,3.9599277789964074,1.125645441330038,Relax,,,,,,,,,
01,58.62324462046247,1024.6491228070176,87.95158798778982,,,,,,,92.01436223298435,92.81182610494778,0.0858358105522475,0.0898008500518809,1030.0,83.0256,0.0806073786407767,109.0,0.9558463032661422,954.8,1094.4,56.14035087719298,80.7017543859649,800.0,1187.0,11.4,203.125,,,0.0041264631997849,0.0277314485324244,0.0046734004752131,0.0365313122074226,0.1488008531166408,0.1129568841205364,0.759114492656791,-3.58518818370381,65.6278716131152,105.68116408120436,0.6209987577605353,21788.92384209908,1.6103091793713575,5.045205890874428,680.7173944264559,0.7192982456140351,0.7454545454545454,0.926829268292683,0.4166666666666667,51.74876847290643,51.677177954167874,51.81656945506072,47.27272727272727,0.4900259843250402,0.5099740156749597,45.95818257344981,46.88428695881344,0.4167639045608303,0.5832360954391697,68.22485753905602,80.70859468070269,0.4371647682993682,0.5628352317006318,58.16693962930762,66.0000515869886,0.7405348091381936,0.6045893735418244,0.872120523791444,0.9275330041881772,0.4797668308036122,-0.2579525508079734,-0.4083469164002768,0.0001378503783811,0.0252954633520762,0.3591998691105664,1.6094379124341005,5.622363698375269,1.3308452179762005,0.7155502202323671,0.7489330683884978,0.9780057513570364,1.9487155947499253,1.8757641847692328,3.9095530091648474,1.125645441330038,Relax,,,,,,,,,
01,58.74470223812367,1022.4561403508771,86.17674325300437,,,,,,,90.1256067940738,90.93622533359344,0.0842840488232884,0.0881461837210399,1030.0,72.64739999999999,0.0705314563106796,103.0,0.9561848881628936,955.6,1085.4,57.89473684210527,82.45614035087719,800.0,1187.0,11.4,226.5625,,,0.0068391069416319,0.0178173647916002,0.0048922555537357,0.0295487272869679,0.3838450310483686,0.2314518278642821,0.6029824776736962,-4.027581747133934,64.30162158889182,104.56153271340574,0.6149644130135037,21122.42315153807,1.626110355068695,5.031713848680401,680.1143643484927,0.7368421052631579,0.7636363636363637,0.9285714285714286,0.4545454545454545,50.65805810777253,50.66161359819807,50.6515614441053,45.45454545454545,0.4570434874369871,0.5429565125630129,43.47350290171537,47.383637375248966,0.4235163748864078,0.5764836251135922,68.04669617073156,79.38993175223649,0.4327171526868642,0.5672828473131359,57.09771586629936,65.37572314909357,0.8167448310081272,0.9432843791611444,1.012877913083884,1.1369347631554203,0.1821156949301698,-0.5121052488486559,-0.3684841466559011,0.0003455113808107,0.0653271174610144,0.3905710195837062,2.079441541679836,5.727626856270007,1.3273526153289614,0.9878109296453568,0.8958797346140276,1.0789817827253791,1.90390497169486,1.854542497747282,3.5427548548929355,1.125645441330038,Relax,,,,,,,,,
01,59.09976667836033,1016.103448275862,85.94422705068318,,,,,,,89.35656937924638,90.14185770926954,0.0845821625706659,0.0879404252892437,1023.0,75.6126,0.0739126099706744,105.0,0.9618120709840532,954.4,1083.2,53.44827586206896,81.03448275862068,800.0,1187.0,14.5,203.125,,,0.0135245796462152,0.0236215611190099,0.0047516546823786,0.0418977954476039,0.5725523210797047,0.3227993144204613,0.5637900721662162,-3.745595377297483,63.73991885497736,104.06185955495454,0.6125195064510319,20837.852582753425,1.6326010673424085,5.025823071253702,679.5660119162184,0.6896551724137931,0.7142857142857143,0.925,0.3333333333333333,50.90225563909775,50.87856960878512,50.92317458986496,46.42857142857143,0.4639041839330992,0.5360958160669007,43.41792338917848,46.67411717735767,0.4300394130325828,0.5699605869674172,68.24105188715538,78.56226480550094,0.4392798287275631,0.560720171272437,57.19246993308649,64.61618475914284,0.8928926693077825,0.8843490523527151,1.0724779312774495,1.2420739361831576,0.109993693436893,-0.7101817474373653,-0.308225039135264,0.0003753491926913,0.0604732748967379,0.3402847532569226,2.302585092994046,5.789015477886193,1.3628543146917544,0.9780057513570366,0.9134398205569988,1.09654186866835,2.0892527302790413,1.8675230771478428,3.3741521583179663,1.110996395627643,Relax,,,,,,,,,
01,60.24211180351972,998.6101694915254,98.1538231463586,,,,,,,120.05695487473062,121.09516513867804,0.0982904301849206,0.1202240459216047,1007.0,78.57780000000017,0.0780315789473685,106.5,0.8175604924243988,930.4,1073.0,61.01694915254237,83.05084745762711,737.0,1187.0,14.75,250.0,,,0.0158039363990368,0.0303606833286098,0.005238751983956,0.0514033717116026,0.5205395487309168,0.3074494118343913,0.5906360286820811,-3.494606819178031,85.62721243846404,110.25890514851534,0.776601330505929,29660.28736202398,1.2876619711023858,5.17914546431217,567.9047965405131,0.711864406779661,0.7368421052631579,0.9285714285714286,0.3076923076923077,49.14841849148419,49.1983072511644,49.09700991469901,49.122807017543856,0.4784107043958501,0.5215892956041498,59.23103738306197,61.84622979900131,0.4307790525043442,0.5692209474956558,72.36706579954081,83.1867414442604,0.4487005770544476,0.5512994229455525,66.12604631273804,73.29730585930533,0.6467187244398972,1.520540324865027,0.9327982422878304,1.2660187850872398,-0.6691679259499992,-1.3899024014332553,-0.2808538600717555,0.0010349424804629,0.1750725730002414,0.3159131555784005,2.833213344056216,5.780948134107604,1.325779567928076,1.1106628141225792,0.9515421046459682,0.9829564081810817,2.1365599816337384,1.933423218556188,3.095531307439265,0.9970581439596342,Relax,,,,,,,,,
01,61.07028139192355,984.4067796610168,96.33528351437722,,,,,,,127.05184931276328,128.16137551157428,0.0978612556361614,0.129064378606285,1003.0,77.09520000000016,0.0768646061814558,112.0,0.7582359803140595,912.0,1057.0,55.932203389830505,77.96610169491525,779.0,1168.0,14.75,210.9375,,,0.0151241378982781,0.0352416080907664,0.0117897175604847,0.0621554635495293,0.4291557257922277,0.243327569847923,0.5669913162611002,-3.345527846413677,90.6237777104297,103.30926090036552,0.8772086540995578,29412.45591680359,1.139979633496076,5.175501399228629,471.0818135117967,0.7288135593220338,0.7543859649122807,0.9302325581395348,0.25,50.09448223733938,50.14252023041061,50.04582706647581,47.368421052631575,0.4662417783360356,0.5337582216639645,61.87969369048355,66.20866800728017,0.5045349026270511,0.4954650973729489,73.38120888900059,72.71864664423187,0.487882468550382,0.5121175314496178,67.87451034533954,69.53987808828434,0.6933600433929746,2.146112104485642,1.1073303734314153,1.5638296837573282,-0.7645219608578806,-1.356258435253765,-0.2872900910573251,0.0039419922737692,0.4350890237189725,0.3741351629569913,2.3513752571634776,5.814846439192349,1.303760606123386,0.0,0.8589755268370598,0.8624968864578968,2.333844780797381,1.9018659733416896,5.077473909248561,1.0967639583555977,Relax,,,,,,,,,
01,61.27957261806869,980.9666666666668,94.95546978946422,,,,,,,128.389040664349,129.48092882459997,0.0967978556418473,0.1308801257239617,1001.5,79.31909999999999,0.0792002995506739,116.75,0.7395917073460258,901.4,1055.2,55.00000000000001,76.66666666666667,779.0,1168.0,15.0,250.0,,,0.0224550273173606,0.0398291202333076,0.0101580675720574,0.0724422151227256,0.5637841656010865,0.3099715722292478,0.5498053885546205,-3.223156970074015,91.55684280620731,99.21083259654807,0.9228512694630177,28536.438857165664,1.0835982276774383,5.162369885286336,430.01872947209023,0.7,0.7241379310344828,0.9047619047619048,0.3,49.12183398040304,49.19614754082435,49.05204543368971,51.72413793103448,0.4759768482768334,0.5240231517231665,63.17101856236684,66.28270175335446,0.4949386217028524,0.5050613782971476,69.79668023682036,70.50682755889204,0.4862165565641256,0.5137834434358745,66.56633592998733,68.42736763950326,0.8086338619608826,1.417807664188907,1.0910858993738002,1.4064824022883935,-0.0970695281638462,-0.8763450713315684,-0.2775463408183618,0.0021259490222509,0.2068736226641814,0.2890681446434118,2.70805020110221,5.873557262275184,1.2677204710585246,0.0,1.0793720283840775,1.1968729356955117,2.32558010658296,1.8578123325744256,3.617516565942055,1.0829299425282284,Relax,,,,,,,,,
01,61.71556983144943,973.8833333333332,90.54993784060731,,,,,,,123.84626883796194,124.89193458495112,0.0929782189933161,0.1271674589748552,984.0,89.6973,0.0911557926829268,119.75,0.7311478875401657,901.4,1050.4,46.66666666666666,73.33333333333333,779.0,1142.0,15.0,250.0,,,0.0331158022815889,0.059927689250868,0.0189078683792008,0.1119513599116579,0.5525960152236192,0.2958052703220492,0.5353011280806026,-2.8146166227246483,88.31193386052564,92.7531272069183,0.9521181281954514,25733.43898758056,1.0502898436513326,5.117467938672257,389.6706698893055,0.6833333333333333,0.706896551724138,0.926829268292683,0.1818181818181818,48.77362283876157,48.89688729252495,48.65153535015324,53.44827586206896,0.4838994138812026,0.5161005861187973,61.440888328707366,63.452262805769294,0.4188450682488457,0.581154931751154,60.02819214537633,70.70897223422602,0.4497820604921465,0.5502179395078535,60.73864754364765,67.17867373502159,0.8010029246162688,0.9368339503771734,1.102456889115712,1.0425743077706708,0.65365350429414,0.122358676806038,-0.5639201657037859,0.0010014079206604,0.091260732750747,0.3547739458568855,1.9459101490553128,5.740223928941852,1.1534943055599538,0.8425502901803043,0.934417404570842,1.0357836815978831,2.141223782131133,1.7921373406034953,3.049768637629258,1.0829299425282284,Relax,,,,,,,,,
01,62.107000275787584,967.5,90.2535975150397,,,,,,,127.11625534478804,128.1950748130056,0.0932853721085681,0.1313863104338894,974.0,82.2843,0.0844808008213552,108.0,0.7100083090886946,901.4,1046.4,48.333333333333336,73.33333333333333,779.0,1170.0,15.0,164.0625,,,0.0387994268430024,0.0784965350417583,0.0328234367496766,0.1501193986344373,0.4942820319694622,0.2584571161085228,0.5228940147362889,-2.5447007947633904,90.64760671499302,86.40728486562466,1.049073661508548,24606.881268170844,0.9532219106159036,5.098026683686811,329.4612686829736,0.7,0.7241379310344828,0.9285714285714286,0.1666666666666666,51.01167315175098,50.88918026559258,51.15400206372343,51.72413793103448,0.511052557601898,0.4889474423981018,64.8083381182944,63.39123185316774,0.4675334930519606,0.5324665069480395,59.08220875907848,63.05165728192939,0.4903367618554799,0.5096632381445201,62.01140250593636,63.22167255720125,0.9056658334034574,1.552709367625258,1.2763729718044845,1.4565493259257922,0.0502335171835994,-0.4945066916029184,-0.3839600263397181,0.0019172595901234,0.225707916560309,0.3450220111975035,2.03688192726104,5.806890595608518,1.2221214361137465,0.0,0.9571603491222738,1.1086943000148528,2.091752922383152,1.8337395574781044,3.420146613059596,1.1813781191217037,Relax,,,,,,,,,
01,62.361351459138056,963.7049180327868,88.55983744758777,,,,,,,133.35947660365198,134.4838836877914,0.0918951805583447,0.1383820649954542,974.0,81.54299999999999,0.0837197125256673,104.0,0.6640685739251214,895.0,1030.0,52.459016393442624,77.04918032786885,779.0,1142.0,15.25,210.9375,,,0.0277549006407314,0.082089902022917,0.0229239909990628,0.1327687936627113,0.338103712597721,0.2090468691855448,0.6182921434946526,-2.4999402661551757,95.09446611594022,81.80303873874523,1.1624808513488587,24438.500446168942,0.8602292234230545,5.095044663908162,281.47745795150746,0.7049180327868853,0.728813559322034,0.9069767441860463,0.2727272727272727,49.72551797414556,49.797094646505634,49.6539018730303,52.54237288135594,0.476599333698815,0.5234006663011851,65.65007390239427,68.79797247702254,0.4218892279434168,0.5781107720565832,53.13352819550782,62.19779198966656,0.4533321208691012,0.5466678791308991,59.72061629744227,65.58096654266001,0.590714867735092,1.9809243077383505,1.03764574685753,1.3287272651975686,-0.3476070244922695,-0.8389755910743182,-0.3530577280500079,0.0030895176451398,0.3667645030444056,0.342125958393765,1.992430164690206,5.799589796579279,1.2197246977037053,1.0097673083242684,1.2279514287290618,1.497574214603861,2.364967744254097,1.8904154574006105,3.780258160334443,1.2639276293166808,Relax,,,,,,,,,
01,62.53332433376032,962.0491803278688,88.87039743910009,,,,,,,135.62183944090026,136.7663220100555,0.0923761479728227,0.1409718361744042,974.0,83.0256,0.0852418891170431,109.0,0.6552808736813146,891.0,1030.0,52.459016393442624,77.04918032786885,779.0,1142.0,15.25,195.3125,,,0.0261643047323653,0.0624577562051963,0.0148319847383843,0.1034540456759461,0.4189120186515532,0.2529075065302041,0.6037246373219242,-2.773264851480508,96.7083937312532,78.64370325809239,1.2297029479127686,23893.40246496791,0.8132045236594302,5.085248108457748,255.8136609872424,0.7049180327868853,0.728813559322034,0.9069767441860463,0.2727272727272727,49.95672494374242,49.99431798657663,49.918000417627866,52.54237288135594,0.4831292582346635,0.5168707417653364,67.21959964378831,69.5272779050162,0.4941982808041114,0.5058017191958887,55.28592381587868,55.93119603559136,0.4875354182323802,0.5124645817676198,61.54270041380345,63.09651758557324,0.6427296925338258,1.8786413076180903,1.0429299631560125,1.3993709083450174,-0.3754346761610421,-1.0133656670924087,-0.3102666305996791,0.0032115753677875,0.3462470369078755,0.3785393260160599,2.120263536200091,5.799589796579279,1.2768243359279308,1.1968729356955117,0.8432566261738648,1.0165434213138511,2.14884971385692,1.867822283412196,3.59211315010342,1.36115283157181,Relax,,,,,,,,,
01,62.74652918187799,957.758064516129,86.71541649838034,,,,,,,127.3381969145261,128.37912602911734,0.0905400013960623,0.1329544502231457,964.5,83.0256,0.0860814930015552,119.0,0.680985113654364,883.8,1027.6,48.38709677419355,79.03225806451613,779.0,1142.0,15.5,218.75,,,0.0258763206310103,0.0537744632457933,0.0246397878263655,0.1042905717031692,0.4812009096722063,0.2481175451282335,0.5156215213667219,-2.9229565853603843,90.7777505779913,83.20512542010174,1.0910115226634831,23728.99633357699,0.9165806036206684,5.0822494791944095,305.0568163275611,0.6935483870967742,0.7166666666666667,0.9069767441860463,0.2727272727272727,48.86701337295691,48.910037721756304,48.829318905482495,55.00000000000001,0.4724592464382339,0.5275407535617664,62.40439354190804,65.94183042652061,0.5056898043497203,0.4943101956502798,59.16872055538809,58.49919148170561,0.4876288621843832,0.5123711378156167,60.808082626797805,62.3316950034782,0.6621164623520787,1.5434061416331624,1.0074610084936435,1.2058770095000848,-0.1390064383276694,-0.6710730829233644,-0.3714427812264072,0.0013922854179676,0.2003108607890792,0.3526180534807599,1.992430164690206,5.825164052322358,1.2563868804366156,1.2279514287290618,0.9460474084795653,1.1393448805379356,2.3568029000704804,1.8342069116953812,4.126759640612487,1.152425092332943,Relax,,,,,,,,,
01,63.20501026691189,952.2786885245902,95.15060538387569,,,,,,,138.00712541990964,139.16493892496305,0.0999188646459126,0.1449230430996314,966.0,105.2646,0.1089695652173912,142.0,0.6894615411658213,856.0,1037.0,50.81967213114754,80.32786885245902,768.0,1142.0,15.25,289.0625,,,0.0239294381941065,0.0670687550332358,0.0210694302393393,0.1120676234666817,0.3567896583475922,0.2135267747622122,0.598466827068709,-2.702036991242923,98.4044720172531,92.42032757544492,1.064749223453284,28571.44541678504,0.9391882876953092,5.162902321666027,347.2003568152867,0.6885245901639344,0.7118644067796611,0.9047619047619048,0.25,50.69280162216966,50.66218749245439,50.71761316371074,55.932203389830505,0.5081793345572728,0.4918206654427272,70.15273893199763,69.01436843764823,0.4259847712915679,0.574015228708432,60.32044548963309,70.02114541397296,0.46965909719681,0.5303409028031899,65.42156725319569,69.51957945763266,0.6324167771717197,1.1647753823467366,0.6273724224476918,1.143132995378356,0.0100378760460984,-0.8466191780204375,-0.0572016881988583,0.0013108701606864,0.1350823947030716,0.371884424792094,2.9957322735539917,5.897950452316984,1.1831374224621567,1.133732460554052,1.1968729356955117,1.2168836126138958,2.3489531157817325,1.866542146720354,5.596419625090839,0.972252022551293,Relax,,,,,,,,,
01,63.50456664166732,946.5645161290324,90.13407517215164,,,,,,,129.69529232959468,130.7609632428452,0.0952223262506756,0.13701685423407,956.0,87.47339999999991,0.0914993723849371,128.2499999999999,0.6949679788152516,856.4,1012.8,48.38709677419355,82.25806451612904,779.0,1142.0,15.5,210.9375,,,0.0244292509403026,0.075446925113909,0.0160963539193447,0.1159725299735563,0.3237938577804144,0.2106468742716305,0.6505585859954262,-2.5843258485562126,92.46196382350072,88.29265482572637,1.0472214705289338,25647.058450655408,0.9549078472339926,5.116007671538041,337.2453957848334,0.6451612903225806,0.6666666666666666,0.9,0.1428571428571428,49.09869712653936,49.172677048409504,49.025259281539206,58.333333333333336,0.4896133121132707,0.5103866878867293,64.70310399560957,66.06146128164791,0.4141636043782779,0.585836395621722,56.82121832683175,67.5791539161995,0.4536309332486569,0.5463690667513431,60.88982886661838,66.82461638758598,0.7005682146562462,1.845526941497416,0.9987581565306234,1.5382603751805763,-0.7726117139020712,-1.6024690934533157,-0.2076703642092518,0.0035549800210372,0.3452201130162286,0.4528579780755373,3.1780538303479453,5.921938245870746,1.2719594811934278,1.3343945946083746,1.242453324894,1.3579778549873245,2.2864337662169487,1.8647545894051576,3.825749206929234,1.056389667971865,Relax,,,,,,,,,
01,63.868533565609305,941.758064516129,88.92134772616973,,,,,,,130.30871289264468,131.38753215795393,0.0944205853674925,0.138367504141944,946.0,91.1798999999999,0.0963846723044396,118.75,0.6823898859274891,856.4,1007.8,50.0,80.64516129032258,779.0,1142.0,15.5,210.9375,,,0.0192528300455247,0.0467813164049921,0.0152562339096225,0.0812903803601394,0.4115495570678336,0.236840201266487,0.575484038796936,-3.0622713778844526,92.9050149522548,86.11033873559242,1.0789066251095107,25132.999806216285,0.9268642686279718,5.107214437851388,319.25038453388714,0.6451612903225806,0.6666666666666666,0.9,0.1333333333333333,50.4395218002813,50.46819315240947,50.40481613359679,56.66666666666666,0.4949565650578006,0.5050434349421993,65.3628972226089,66.02556323122128,0.422169173431462,0.577830826568538,55.94980235762577,65.4569328131183,0.4613223165789978,0.5386776834210022,60.83867485896911,65.74186281700985,0.6579167457667894,1.3291754448537751,0.8893009790299908,1.213901267960686,-0.4907799556766949,-1.2778167676955252,-0.2557882293210697,0.0008024029550794,0.1358939610270168,0.3710068599510352,2.3978952727983707,5.857422116838488,1.2597119512770725,1.0474136855066063,1.106048193531495,1.3144721664925096,2.3165685136940297,1.9004478803614384,5.123874178466758,1.152425092332943,Relax,,,,,,,,,
01,63.68357152567005,943.1612903225806,82.9918411056837,,,,,,,111.8191602104216,112.69719329712332,0.0879932647334357,0.1185578345482957,948.5,85.2495,0.0898782287822878,113.75,0.742196962931124,875.2,1006.8,46.774193548387096,80.64516129032258,779.0,1127.0,12.4,210.9375,,,0.0243362812475941,0.0590105791203173,0.0103534127379438,0.0937002731058553,0.4124053959540827,0.2597247632362921,0.6297802254391694,-2.8300385440259963,79.68894960108703,85.25172465925277,0.9347488267199298,21342.78790780107,1.0698061034310566,5.036221258597188,364.81126147397015,0.6129032258064516,0.6333333333333333,0.8947368421052632,0.125,47.88409422555765,47.972091360585054,47.796883308768095,58.333333333333336,0.4799708934529936,0.5200291065470064,55.23291591071396,57.49159358839631,0.4056078656549177,0.5943921343450823,54.29456497775631,65.72637804757878,0.4403006671952088,0.5596993328047911,54.7657501825904,61.74641732354428,0.7501863454568167,1.585075849323898,0.9798372602591408,1.4706325161658895,-0.6641841188335942,-1.5200006109278426,-0.1903648136989191,0.0023650455167161,0.2423449685783152,0.3839220289706686,2.079441541679836,5.889680181354617,1.2997039807227846,1.2228228189512695,1.0593512767826485,1.2972040027226728,2.168619908280546,1.8986371526492625,3.077988756853497,1.152425092332943,Relax,,,,,,,,,
01,63.22113995492419,949.6612903225806,72.97808868294626,,,,,,,88.75154120111814,89.4706014542775,0.0768464392795847,0.0934559954222953,950.5,71.9061,0.0756508153603366,92.25,0.8222740438678359,885.4,1005.2,45.16129032258064,83.87096774193549,792.0,1127.0,12.4,195.3125,,,0.014060537040157,0.054944280839014,0.0090098193972772,0.0780146372764482,0.2559053795126413,0.1802294739938725,0.7042816932458017,-2.901435682911942,63.2652690051586,80.27396225672084,0.7881169338923693,15954.74736009003,1.2688472446102357,4.909860041588312,407.4215832935452,0.5806451612903226,0.6,0.8888888888888888,0.0555555555555555,51.32919254658387,51.212340854610815,51.44857344460608,55.00000000000001,0.5343287123272846,0.4656712876727155,46.25454932580506,43.180724866542015,0.4111450853703978,0.5888549146296019,51.47214317146857,61.59973614983495,0.4583537348173974,0.5416462651826028,48.9329380683272,53.1935263623746,0.7329697090604405,1.2125387590226475,0.9228359950060364,1.1983896284076965,-0.4676766148466118,-1.186771319153888,-0.2727465358519619,0.000394997447193,0.0958340383838586,0.3395277633788294,1.9459101490553128,5.825164052322358,1.3679419888876585,1.0438997104319372,0.6597643324038146,0.833051127543801,2.169496061064392,1.900157464155279,3.775918432409168,1.248460516694022,Relax,,,,,,,,,
01,63.59574202141177,943.190476190476,66.94023746376367,,,,,,,82.99183791970341,83.60861073162086,0.0709721303952661,0.0879905385123326,950.0,59.304,0.0624252631578947,84.0,0.8065882036319034,882.8,995.2,46.03174603174603,84.12698412698413,792.0,1124.0,12.6,132.8125,,,0.0170048408781924,0.0584289709699531,0.010806163139772,0.0862399749879176,0.2910344063210891,0.1971804940872823,0.6775160936461213,-2.83994343390147,59.120215613915455,72.7052756864233,0.8131489091506922,13503.669730096482,1.229787052219584,4.837421917490508,357.6480266688748,0.6031746031746031,0.6229508196721311,0.8947368421052632,0.1052631578947368,47.47942386831277,47.461612707372026,47.49212340486082,55.73770491803278,0.4515097158540069,0.5484902841459929,39.754368767037086,43.8163080651373,0.4404465202325457,0.5595534797674538,48.251688685602126,54.38595086625358,0.4448538486954135,0.5551461513045867,44.20766504282848,49.384716786094685,0.7284741863949992,0.6439551784934829,0.9111194138943562,0.8370127250857468,0.7712138553154038,0.2111606583639247,-0.615080507593681,0.000245625648651,0.0346838573268567,0.3733510810204787,inf,5.755057701277694,1.4223414016039773,0.5994738181995927,0.0,0.0,2.1607172021535384,1.898558499419783,3.134202357709561,1.2334069683412527,Relax,,,,,,,,,
01,63.801467642398286,941.904761904762,70.74162763312935,,,,,,,97.62461019706572,98.4123048997676,0.0751048625023112,0.1036459461141749,947.0,75.6126,0.0798443505807814,93.5,0.7246290406725292,878.4,1000.4,53.96825396825397,88.88888888888889,792.0,1124.0,12.6,195.3125,,,0.0196247539803733,0.0539148524001067,0.0058212745839392,0.0793608809644193,0.363995320523857,0.2472849814907154,0.6793630784451468,-2.920349284292454,69.58800814682375,72.25464052735055,0.9630939637777676,15796.105405158276,1.038320286088667,4.905520133021098,300.0938360943697,0.6190476190476191,0.639344262295082,0.9230769230769232,0.1052631578947368,50.89536138079828,50.86778922326349,50.91570244877608,52.459016393442624,0.4954568916643397,0.5045431083356602,48.98669943271821,49.43384385249427,0.469500334663239,0.5304996653367611,49.50894795069672,52.62696220144052,0.4819920226488434,0.5180079773511566,49.248515959855446,51.05537223732991,0.711600247273382,0.7195077732628257,0.8954561788206528,0.8944478061363966,0.5740639599490436,-0.0679894564484144,-0.5014014757334495,0.0002438164374748,0.039999166192485,0.3159859124548347,1.6094379124341007,5.774821391719543,1.465758128616462,1.0357680164036986,0.7489330683884978,0.8888370153723535,2.3661622638058906,1.9658673052934363,4.582249526949762,1.328284427444426,Relax,,,,,,,,,
01,64.19271939442322,934.3968253968254,79.7549755111968,,,,,,,111.60168226272832,112.4526999689266,0.0853545017956647,0.1194371376586522,947.0,84.5082,0.0892378035902851,112.0,0.7146395456964596,856.8,1002.6,61.90476190476191,90.47619047619048,744.0,1124.0,12.6,242.1875,,,0.0211987439951887,0.0579960924628975,0.0109357514580839,0.0901305879161702,0.3655202117065123,0.2352003297138763,0.6434673711086764,-2.8473796420346207,79.51606671076425,77.34650448265147,1.0280499066198836,19321.70528544561,0.9727154232112052,4.993015563478975,300.9445513669988,0.6507936507936508,0.6721311475409836,0.951219512195122,0.1578947368421052,47.92355751561926,47.78021617127919,48.049868125241545,54.09836065573771,0.439455274887789,0.5605447251122111,52.74047190772168,59.56509044734171,0.4982382003113593,0.5017617996886408,54.59579602266045,54.78850985687488,0.468018194084278,0.5319818059157221,53.67615075802812,57.22665817753503,0.5876441407045833,0.930916049855851,0.7669505892595534,0.9155535048870432,-0.0257545969770074,-0.7470037269457477,-0.3403691550376637,0.0002265342354579,0.0556381639757244,0.3296915943803924,1.5260563034950492,5.711329328227483,1.482871681646251,0.6267213891266938,0.728087666153735,0.829453943180776,2.235752279836438,2.004580672973657,4.363793995765904,1.2334069683412527,Relax,,,,,,,,,
01,64.49131986451985,932.6984126984128,74.76514517423011,,,,,,,105.34704552098268,106.20703069283148,0.0801600433283951,0.1129486703169147,947.0,84.5082,0.0892378035902851,108.0,0.7097032935711389,860.0,1002.6,61.90476190476191,88.88888888888889,781.0,1077.0,12.6,171.875,,,0.0241008639370487,0.0718897041925667,0.0321310475859645,0.1281216157155801,0.3352477828047699,0.1881092726035457,0.5611051951776527,-2.632622220717777,75.09971161258892,72.39313683794508,1.0373871736032467,17079.908401340806,0.9639602507582714,4.939455647222335,279.13642535793355,0.6666666666666666,0.6885245901639344,0.9523809523809524,0.1666666666666666,49.9808355691836,49.98504453601739,49.97614723326922,54.09836065573771,0.4936867439061964,0.5063132560938035,52.76719671519729,53.43772229366092,0.482868908002517,0.5171310919974832,50.305099956765375,52.05922761218499,0.488476272612396,0.5115237273876041,51.55084931812706,52.752977847282274,0.5835162312440774,0.7061195055010256,0.7362574928437235,0.8345338396705839,0.3676031261343597,-0.4296947306962499,-0.3608219344441865,0.0002147782033377,0.0373060831615589,0.3206259458814764,1.7047480922384255,5.711329328227482,1.54282975331328,0.7271802241410904,0.7008400952266338,0.772760613339579,1.9364454750505664,2.001428457721897,3.5072708568302486,1.2334069683412527,Relax,,,,,,,,,
01,64.61171953057115,929.8571428571428,70.17141618757302,,,,,,,97.62386672755136,98.40737591286567,0.0754647278096498,0.1049880269001166,943.0,77.09519999999999,0.0817552492046659,101.5,0.7187936571228772,867.4,988.6,57.14285714285714,87.3015873015873,781.0,1072.0,10.5,171.875,,,0.0366761616130014,0.0774401004213823,0.0052473201466668,0.1193635821810506,0.4736068446894034,0.3072642504760879,0.6487749362608878,-2.558250539250938,69.58452282676103,71.27458986365814,0.9762879444114648,15581.069079557568,1.0242879733630528,4.899567363004603,292.0228208149167,0.6349206349206349,0.6557377049180328,0.95,0.1,51.03476821192052,51.01878969629545,51.04780243902456,52.459016393442624,0.5031021212213522,0.4968978787786476,49.36282533030462,49.05751057954628,0.4630672344593191,0.5369327655406808,48.50167678293767,52.22695194510327,0.4826071280353167,0.5173928719646831,48.93414541680848,50.66702011041512,0.6035986278801933,0.9508336415072836,0.790332799169184,0.8604577950751324,0.172374503910957,-0.3240194322617404,-0.426248932678923,0.0002065358059599,0.0553375358452424,0.2778064993236793,1.504077396776274,5.743075359973512,1.4809018440572232,1.1968729356955117,1.1675559345535005,1.3182176424678524,2.2110394518556977,1.9776574678033736,4.8980033236822615,1.1385295092380794,Relax,,,,,,,,,
01,64.18893250373364,936.190476190476,70.44097440819537,,,,,,,100.50252765237364,101.32239464858776,0.0752421395001069,0.1073526490691681,947.0,75.6126,0.0798443505807814,95.0,0.7008875901294979,876.0,1003.6,61.90476190476191,87.3015873015873,781.0,1072.0,10.5,171.875,,,0.0390196129650787,0.08469160965438,0.0403827713681723,0.164093993987631,0.4607258395998703,0.2377881847888955,0.5161164500680253,-2.468738741801335,71.64575234207595,70.34511228823972,1.0184894161303897,15833.402329730705,0.9818462363598854,4.906544357373692,276.2723349860868,0.6190476190476191,0.639344262295082,0.9487179487179488,0.1,49.79318495174316,49.80181455740495,49.78518487462408,52.459016393442624,0.4855049205824539,0.514495079417546,49.9217420355986,51.39058088092299,0.4781649003743458,0.5218350996256541,48.64327131345762,50.81601104740912,0.4819021604506672,0.518097839549333,49.28665220900837,51.10410346561758,0.4955708298495745,0.7723665658181491,0.6822951249676956,0.6739922651264314,0.6443925317645651,0.120186734210586,-0.5107498954624857,0.0003070029703957,0.0465708328646388,0.2261810159782684,1.223775431622116,5.711329328227482,1.5334544328636266,0.9753783304540272,1.069455380418721,1.2715006482754927,2.237229012053806,1.987207006347148,5.561028688384794,1.1385295092380794,Relax,,,,,,,,,
01,63.89452423676538,939.6507936507936,76.42857908513582,,,,,,,118.67514618731524,119.63175584632478,0.081337215486394,0.1262970743910412,951.0,78.5778,0.0826264984227129,101.0,0.6440150405587197,878.0,1006.6,71.42857142857143,90.47619047619048,781.0,1093.0,12.6,210.9375,,,0.0262137157651375,0.0983930108008891,0.0465277053643533,0.17113443193038,0.2664184737489569,0.1531761637295857,0.5749457294538887,-2.318785505892817,84.59242580418966,67.03436157628988,1.2619263287518214,17814.712970301356,0.7924392868394351,4.9577489393758265,212.48264672500792,0.6666666666666666,0.6935483870967742,0.9767441860465116,0.1052631578947368,49.13065076999503,49.113430629253045,49.14727776983536,48.38709677419355,0.4472483236848584,0.5527516763151415,56.57832232734591,62.8985652316229,0.609828873789347,0.390171126210653,52.34816579193494,41.87212879900977,0.5099533731616239,0.4900466268383761,54.50429808353171,53.42988245522156,0.4094158545670521,0.8425535200484722,0.5943124741019996,0.5859922331704367,0.5617445703866393,0.1583005810368387,-0.509875029578043,0.0002503639021959,0.0491222375293296,0.3085746992182927,1.2729656758128876,5.774821391719544,1.5243629868962916,1.0242692044892068,1.1080406805828422,1.4551919721922288,2.1196745537058743,2.035205402035168,7.921455190228664,1.0436520501349065,Relax,,,,,,,,,
01,63.50483838079236,946.4354838709676,73.2323096677295,,,,,,,114.39541719583802,115.34363484111576,0.0773769696041041,0.1208697466920356,955.5,74.13,0.0775824175824175,94.24999999999989,0.6401682118293273,886.8,1013.2,67.74193548387096,88.70967741935483,781.0,1123.0,12.4,210.9375,,,0.042675236361126,0.0968579732514268,0.0361679848089089,0.1757011944214618,0.4405960080369263,0.2428852945572991,0.5512653090968154,-2.334509566741494,81.56026636285787,65.11792161799234,1.2525010678523016,16685.108639989234,0.7984025129134044,4.929299148737693,207.9612490220128,0.6612903225806451,0.6885245901639344,0.9523809523809524,0.1666666666666666,49.73113616652212,49.75494464497008,49.71002132215233,45.90163934426229,0.4630479853181586,0.5369520146818412,55.50037537410594,59.76551402495143,0.6243338894853836,0.3756661105146163,51.45279666713616,39.91182069233795,0.5258347103301045,0.4741652896698953,53.51486686677041,50.817664732079145,0.5051075749302257,0.6164865543436898,0.6434593764357971,0.729312722864401,0.56505798298255,-0.2658658854982461,-0.3607376822354169,0.0002546056221597,0.0335168541329636,0.2898349814186454,1.504077396776274,5.748472318416495,1.636904170568735,1.2166985644675914,0.981017338575026,1.4289919208724744,2.1817610933843223,2.022435451707911,5.7996935758788135,1.248460516694022,Relax,,,,,,,,,
01,63.3947376544004,948.8225806451612,80.33159233861436,,,,,,,116.70349145605192,117.612689828705,0.0846645031192155,0.1229982230995158,958.0,85.9908,0.0897607515657619,115.74999999999989,0.6883392376385375,879.6,1018.8,72.58064516129032,88.70967741935483,781.0,1188.0,10.333333333333334,242.1875,,,0.0329400819170187,0.0988893591700067,0.0266341254854834,0.1584635665725089,0.333100367860504,0.2078716428608603,0.6240510756443025,-2.3137536379517254,83.16473053146738,72.33989481961983,1.1496385326359595,18900.22308598575,0.8698386245867565,4.983437040295925,251.696138450595,0.6290322580645161,0.6557377049180328,0.95,0.1111111111111111,51.87770023263545,51.661101062609184,52.12778728350364,44.26229508196721,0.4787759297642519,0.5212240702357481,57.5737208571179,60.07176263991815,0.6935221702161523,0.3064778297838479,60.24320205096208,40.04768394252806,0.5712193409227867,0.4287806590772133,58.92358070707505,51.05111975180998,0.6034592282962418,0.8899547399006477,0.7265333083273087,0.9885023248343408,-0.2799577179776653,-1.163093718852192,-0.2056378209342671,0.0002297252176948,0.0527806184600476,0.3837186844508422,1.5404450409471488,5.792905987806229,1.628389408865749,1.3721803479421673,0.7384694664738856,1.3427730194983518,1.954678544497391,2.019523084021248,4.959441158603717,1.3444959410551007,Relax,,,,,,,,,
01,63.07448327960286,953.5645161290324,82.48469723306792,,,,,,,117.66059830479624,118.63276669341118,0.0865014331362833,0.1233902859372704,959.0,89.69729999999991,0.093532116788321,121.74999999999989,0.7010392469651887,879.6,1022.0,70.96774193548387,88.70967741935483,781.0,1133.0,10.333333333333334,242.1875,,,0.0191144243207426,0.114356408096115,0.0389522415805104,0.1724230739973681,0.1671478200388839,0.1108576936810346,0.6632314657483754,-2.168435320764601,83.88603379983265,82.16452241186214,1.0209520038264346,21653.288833790422,0.979477973746162,5.042493978960201,321.9133597031674,0.6451612903225806,0.6666666666666666,0.95,0.1052631578947368,50.507403094327074,50.51895932521757,50.493572447911625,41.66666666666667,0.4472358893289994,0.5527641106710006,56.10139629872563,62.3699313237824,0.6979777855925833,0.3020222144074167,68.6444035087606,45.154785018820014,0.5700030508386217,0.4299969491613782,62.68740224215792,54.44705200205602,0.6377229093074537,1.0948572945381556,0.867260469816741,1.1851515565765314,-0.9108334584580478,-1.9015080115170544,-0.2096506655747435,0.0006858731529048,0.0949762549193118,0.3367143098298992,1.5260563034950494,5.857422116838488,1.6408818198019317,0.91653061674783,0.5548008710137486,0.9571603491222738,1.9808843171023165,1.9917850584111083,6.312045096866486,1.3444959410551007,Relax,,,,,,,,,
01,63.33227713711217,949.6774193548388,89.47584602974867,,,,,,,125.64365431191682,126.66977634951898,0.0942170933057815,0.1323014022985537,959.0,94.1451,0.0981700729927007,132.75,0.7121397934480661,863.2,1025.2,72.58064516129032,88.70967741935483,776.0,1133.0,10.333333333333334,242.1875,,,0.0390773476291578,0.1023926641530677,0.0450173110091932,0.1864873227914188,0.3816420634464663,0.2095442577234313,0.5490596498486455,-2.2789402080731325,89.56905782812822,89.26207652755411,1.0034391010439845,25117.410552994752,0.9965726858357362,5.10694497430592,355.8245893933585,0.6612903225806451,0.6833333333333333,0.951219512195122,0.1111111111111111,50.96633416458855,50.891060008366615,51.04466849854858,43.333333333333336,0.4796597179962741,0.5203402820037261,62.04138403786083,64.61875372779431,0.6586710467692697,0.3413289532307303,72.44380827222497,52.14990842780109,0.5688463767936824,0.4311536232063175,67.44345294510144,58.716251082478735,0.8814514972751434,0.6228699676455087,1.3127281533542536,1.1367675759845737,-0.4345526503571477,-1.4345526503571475,-0.7824996973843886,0.0005101390425084,0.0492327310465537,0.3573341530291505,2.03688192726104,5.857422116838488,1.593366806988473,0.984680489694822,0.0,0.0,1.9504310696468856,1.988552875021885,7.65126105057662,1.248460516694022,Relax,,,,,,,,,
01,63.539234895288615,945.516129032258,92.24410629100214,,,,,,,135.37470766509463,136.48046358322026,0.0975595269701158,0.1431754610084246,955.5,98.5929,0.1031846153846153,150.7499999999999,0.681398378485929,850.6,1022.0,74.19354838709677,87.09677419354838,776.0,1133.0,12.4,242.1875,,,0.0491200636966268,0.0702730603367041,0.0109933347909813,0.1303864588243122,0.6989885378731837,0.3767267256089307,0.5389598043412832,-2.655366763613444,96.50626129917868,87.2692711271276,1.1058447040149482,26458.59097797736,0.9042861048837492,5.129536822572803,315.6655570543762,0.6612903225806451,0.6833333333333333,0.951219512195122,0.1111111111111111,49.03971119133574,49.00067159747932,49.07749616053282,41.66666666666667,0.4412539527061783,0.5587460472938219,64.11448094359547,72.14712976503868,0.7056401600314227,0.2943598399685772,73.30827386988427,47.34788976584015,0.5601748958655015,0.4398251041344982,68.86497543907434,61.02061536321754,0.7502046385285285,0.7675547428065398,0.9596900296158944,1.1339820099317983,-0.7679794737109891,-1.786917511464264,-0.2729256682349315,0.0003200590433645,0.0455213873926927,0.3720648684942746,2.3513752571634776,5.889680181354617,1.556953213330017,0.8624968864578968,0.0,0.0,2.141193951461792,2.003127035207481,7.1338594141469285,1.152425092332943,Relax,,,,,,,,,
01,63.46998582093783,947.8225806451612,91.06609456936395,,,,,,,132.48649792015615,133.58586604337066,0.0960792625423392,0.1397798497583541,955.5,100.8168,0.1055120879120879,143.25,0.687361323598768,858.2,1025.2,72.58064516129032,85.48387096774194,776.0,1133.0,12.4,257.8125,,,0.0446485536901077,0.0945017851659416,0.0071807417275756,0.1463310805836249,0.4724625424980757,0.3051200982869258,0.6458080182899759,-2.359136554015981,94.45947174994517,88.06232579283672,1.0726433909110855,26132.775438397683,0.932276289094194,5.1241556465001015,328.39367319659897,0.6290322580645161,0.6499999999999999,0.9230769230769232,0.1052631578947368,50.08183306055645,50.09811793940975,50.06660116238471,45.0,0.4644456544377439,0.535554345562256,64.37442556378011,69.12699665591342,0.6762118160478204,0.3237881839521795,72.41549921966168,50.10956691901151,0.5629156218844472,0.4370843781155526,68.51303231466072,60.37180783891417,0.6955443230519437,0.9375613256324536,1.0029443022524882,1.1643249858681706,-0.915578199214922,-1.9448680396098887,-0.3278718637345464,0.000792328412217,0.0824268100657415,0.3967218749988035,2.3978952727983702,5.889680181354617,1.6225332596928852,1.0582539221364795,0.0,0.0,1.93426688713124,1.994965815093544,5.280366503995176,1.248460516694022,Relax,,,,,,,,,
01,63.87022211594126,940.1428571428572,93.0287602326009,,,,,,,129.12303460078735,130.1238487874844,0.0989517279483674,0.1373440574693073,949.0,105.2646,0.1109216016859852,143.0,0.7204660308690859,852.2,1022.6,71.42857142857143,85.71428571428571,774.0,1133.0,15.75,125.0,,,0.0382531413003118,0.0879632331297945,0.0141630639503219,0.1403794383804283,0.434876481221049,0.2724981788048318,0.6266105217732395,-2.430836357152146,92.01145587172311,92.74002331737606,0.9921439803485964,26807.664271169768,1.0079182253856374,5.135229085886761,373.8974388970892,0.6349206349206349,0.6557377049180328,0.925,0.1052631578947368,48.273782602140805,48.21083326337803,48.33514816319246,47.540983606557376,0.4517935864085804,0.5482064135914195,61.871363115503534,68.15405644447044,0.6335112967700249,0.3664887032299752,73.81495894934534,56.143243228494704,0.5433318490768423,0.4566681509231578,68.10548340061918,62.43812605311749,0.7973620447949888,0.7283599649163611,0.9873856037634424,1.1615420272531694,-0.5042308347532609,-1.5058984932818666,-0.2608923720708269,0.0002356526993286,0.0386033011638625,0.3291059381467955,2.833213344056216,5.9137878600078535,1.62542402692058,1.4836500411109528,0.0,0.0,2.3356294456693973,1.9654510820564983,5.42299108055157,1.1385295092380794,Relax,,,,,,,,,
01,63.34633299723611,950.516129032258,93.59342521665909,,,,,,,133.15798579254593,134.24637858778323,0.0984658990604911,0.1400901907136674,956.0,103.0407,0.1077831589958159,138.9999999999999,0.702875044704216,866.6,1030.8,75.80645161290323,87.09677419354838,725.0,1133.0,15.5,281.25,,,0.0393719014352089,0.076989034443717,0.0151819445326902,0.1315428804116162,0.5113962231074848,0.2993084940211792,0.5852770914154187,-2.5640922770915515,94.92652464915804,92.28408118058206,1.0286337950681357,27521.002291004308,0.9721632759827428,5.146634356441177,358.8607787262882,0.6129032258064516,0.6333333333333333,0.8947368421052632,0.1052631578947368,50.94478889873045,50.87520035481561,51.01673290339483,45.0,0.4901330813595491,0.5098669186404509,66.46584335832453,67.79067044955373,0.6299202625190311,0.370079737480969,73.24358306609608,56.140263438855925,0.5580453220469562,0.441954677953044,69.93686722213631,62.23867037053467,0.7434779764517778,0.8026395514631757,0.8388255398512596,1.0787656402456194,-0.3105917349186349,-1.160350007855787,-0.2010612049244772,0.000108539869926,0.0368013526752543,0.3140761942906884,inf,5.921938245870746,1.6733548125974935,0.9985774245179968,0.4479398673070137,0.6770125502755524,2.278533360830971,1.9859218679737245,5.749660110086073,1.248460516694022,Relax,,,,,,,,,
01,63.16188486046912,953.6612903225806,97.14784128924444,,,,,,,145.1349852186792,146.33254104369954,0.101868286230202,0.1521871409602738,966.0,120.0906,0.1243173913043478,155.0,0.6693619814882602,862.4,1044.6,75.80645161290323,88.70967741935483,725.0,1133.0,15.5,296.875,,,0.0362058592943182,0.0802792442652281,0.0189686983565228,0.1354538019160691,0.4509990051064831,0.2672930459106076,0.5926688149733244,-2.52224416883488,103.47273208025872,90.62465225107576,1.141772459369966,29459.280937406504,0.8758312497323708,5.17619225203637,317.4876097504848,0.6451612903225806,0.6666666666666666,0.95,0.1111111111111111,50.58503401360546,50.50426249675921,50.66451384108087,45.0,0.5034656015889003,0.4965343984110998,73.42286201631387,72.91570475556001,0.6334323276834092,0.3665676723165908,72.12676688138352,54.86854376477447,0.5598804668946574,0.4401195331053428,72.77769976932531,64.52618497504315,0.6295211893046708,1.2828174568951438,0.8142697747800591,1.2709299177522428,-1.6155359728954144,-2.623443036748923,-0.1440178292572841,0.0010329700720987,0.130325828143218,0.3575975989887761,inf,5.889680181354617,1.5428420299416266,0.0,0.4479398673070137,0.7489330683884977,2.26774820999669,1.9875321591878976,5.241005674901271,1.056389667971865,Relax,,,,,,,,,
01,63.18626768335591,953.983870967742,105.084274054791,,,,,,,159.98457917490202,161.3067183258316,0.1101530929953681,0.1677015555961236,954.5,124.5384,0.1304750130958617,164.5,0.6568400191865263,856.2,1047.6,75.80645161290323,90.32258064516128,725.0,1227.0,20.666666666666668,164.0625,,,0.0395447790780801,0.0856593751211198,0.0306370603447558,0.1558412145439557,0.4616515007512597,0.2537504548703726,0.5496580309117087,-2.457376601695208,114.06107437914386,92.45213353154982,1.2337311214156013,33128.69042705101,0.8105493836068473,5.2271743785770335,299.7480793885426,0.6612903225806451,0.6833333333333333,0.951219512195122,0.1666666666666666,50.50454715335741,50.42574976172285,50.586600966886174,46.66666666666666,0.4921299507653564,0.5078700492346437,80.01885194544262,81.288426810545,0.6403833299025252,0.3596166700974749,73.98385330164609,55.44173919689052,0.5509094033374642,0.4490905966625359,77.06045424219272,69.57583912001837,0.6161255650469051,0.9316146153702114,0.6086966890003871,1.043268678319862,-0.5741756135544716,-1.4968472247301738,-0.033528154078195,0.00021374112797,0.0551247810082112,0.3052349099086915,1.897119984885881,5.857422116838488,1.5002211006206931,0.8699839100151439,0.6475667913614566,0.8208535865014429,2.13190126660088,1.9992663180243015,4.252276951091221,1.248460516694022,Relax,,,,,,,,,
01,62.87383120328207,958.2295081967212,105.63181235508914,,,,,,,163.47344330706034,164.84185538914437,0.1102364427848565,0.1705994669426312,959.0,124.5384,0.1298627737226277,163.0,0.6461710857626926,862.0,1048.0,78.68852459016394,91.8032786885246,725.0,1226.0,15.25,164.0625,,,0.0431798720439518,0.0799627550509395,0.0291153640000941,0.1522579910949855,0.5399998038642424,0.283596753992467,0.5251793648128139,-2.526194314579083,116.5607937690362,93.79845565085746,1.2426728453068157,34347.731313192366,0.8047170289241334,5.242868166911943,301.92485819612045,0.6885245901639344,0.7118644067796611,0.9761904761904762,0.2352941176470588,50.69580078125,50.665932995805086,50.71640158670837,45.76271186440678,0.4750756822629713,0.5249243177370286,80.34580980077537,84.45593575791912,0.6517611089199582,0.3482388910800416,75.7251093400164,55.35212821498769,0.544515369868018,0.4554846301319821,78.06965267342942,71.40260213281515,0.5127502850906296,1.191686926213546,0.6396666605804822,0.9611400768012952,-0.8212869834123957,-1.4403878159339656,-0.2302366845273201,0.0002475326572199,0.077789726169019,0.3429945584127489,2.03688192726104,5.83237668182518,1.6117090038382105,0.888786465544228,0.7838735539822873,0.911579959923785,1.8296689082266904,2.0082594616115563,6.68071426037232,0.972252022551293,Relax,,,,,,,,,
01,63.05993626001122,954.655737704918,103.67800879741432,,,,,,,160.23461964673345,161.566638050909,0.1086025094728556,0.167845447650011,950.0,120.0906,0.1264111578947368,157.0,0.6470387549581449,857.0,1046.0,75.40983606557377,88.52459016393442,725.0,1226.0,15.25,164.0625,,,0.0421444963897566,0.108326066576537,0.0343976924018793,0.1848682553681731,0.3890522172701597,0.2279704338953385,0.5859635899132657,-2.2226094653253647,114.24486537931024,92.79909652784438,1.2310988970138417,33306.60073819936,0.8122824270459538,5.229500420948543,301.51630142123673,0.6557377049180327,0.6779661016949152,0.95,0.25,50.96593797661413,50.97946362487674,50.94027295644455,44.06779661016949,0.4804532011518278,0.519546798848172,79.19842063140196,82.3575297824334,0.6694306199399144,0.3305693800600855,75.92705142092942,53.35499207110539,0.5555639576382059,0.444436042361794,77.5799812064457,69.38846406562162,0.5623176927200005,2.162341760885034,0.5694423345532944,1.626250332720492,-1.966187611345852,-2.9317111304618004,-0.0112668971741765,0.0052925131390685,0.4651027749617278,0.4104678850086376,3.044522437723423,5.766802911333378,1.5835545491234553,1.477681324672668,1.0357836815978831,1.1634900875393808,1.833033260545245,1.9920622030376964,4.195077336091373,1.2639276293166808,Relax,,,,,,,,,
01,62.676570919263376,960.7540983606556,108.57895065154278,,,,,,,167.9264223799618,169.32298808426845,0.1130142987022508,0.1747860588536612,972.0,127.5036,0.1311765432098765,171.0,0.646586458001616,857.0,1056.0,75.40983606557377,90.1639344262295,725.0,1226.0,20.33333333333333,179.6875,,,0.0282867781015594,0.1297320462360337,0.0498553430099307,0.2078741673475239,0.2180400211224195,0.1360764469318098,0.6240893127386422,-2.042284138487043,119.72943308515518,94.871285833524,1.26201971474542,35684.99051376926,0.7923806485081133,5.25945569560516,300.69668397426534,0.6721311475409836,0.6949152542372882,0.926829268292683,0.2666666666666666,50.93955715140635,50.83701525560477,51.04278229168074,44.06779661016949,0.4924049488255314,0.5075950511744685,84.02622673701953,85.31243675107856,0.6709567481024266,0.3290432518975735,77.71091980064172,54.42034380123342,0.5612619683063147,0.4387380316936856,80.93019781244448,71.55342648626697,0.490268264937495,1.260457932406253,0.6450946254386681,1.051051100180063,-0.9184123572861562,-1.779479002918194,-0.1779293744723303,0.0005012943876576,0.1074163407455813,0.3507425693677026,2.9444389791664407,5.799589796579279,1.5024101493710054,1.136998617702687,1.0107628169586376,1.0826833350715828,1.9576995656461371,2.008257865441775,6.218245319481476,1.2639276293166808,Relax,,,,,,,,,
01,63.0227341886194,956.2096774193548,103.09777900595049,,,,,,,163.99395230752452,165.34682377096797,0.1078192173124556,0.1715041754755253,972.0,113.4189,0.1166861111111111,153.25,0.628668176815567,858.0,1045.4,74.19354838709677,87.09677419354838,725.0,1226.0,15.5,304.6875,,,0.0166693509470345,0.1293883803721009,0.0589241734274254,0.2049819047465609,0.1288319005083462,0.0813210852325941,0.6312185484473685,-2.044936697144313,116.91786033610848,86.97672416484818,1.3442430886970689,31947.271918932296,0.7439130678137,5.211403888226507,258.8124868074328,0.6774193548387096,0.7049180327868853,0.9302325581395348,0.2666666666666666,49.39434724091521,49.48117709002943,49.29841451768596,44.26229508196721,0.4664716083472769,0.5335283916527231,79.85732068299478,85.40452759270632,0.6510466385925797,0.3489533614074203,70.17931051516625,51.37912924587143,0.5322229743593656,0.4677770256406344,75.17422194825429,70.47605357636485,0.4709679804070883,2.219672010732667,0.7225483714557199,1.4727213145847655,-1.4790240575574425,-2.210627034331382,-0.1620343278188072,0.0057186200984983,0.491718875214392,0.3995071051102035,2.3513752571634776,5.825164052322358,1.6012617550109307,1.2257619008159346,0.934417404570842,1.0357836815978831,2.032320012124463,2.0084190259063104,4.004598452569959,1.248460516694022,Relax,,,,,,,,,
01,64.35181740881671,938.015873015873,110.45265984377316,,,,,,,170.61657636065806,171.9609589145121,0.1177513760920164,0.1818909266557485,950.0,134.9166,0.1420174736842105,172.0,0.647373556542904,831.2,1038.6,76.19047619047619,85.71428571428571,686.0,1226.0,21.0,125.0,,,0.0337914857081638,0.1566195633132393,0.0575721769001301,0.2479832259215333,0.2157552032026855,0.136265207384858,0.6315732152093093,-1.85393557785606,121.59476014779278,97.1984217130134,1.2509952117001617,37129.91423745395,0.7993635712169934,5.276694056057233,310.7875099886789,0.6984126984126984,0.7258064516129032,0.9333333333333332,0.2857142857142857,51.45743816049239,51.48119127672768,51.415142059317766,43.54838709677419,0.5127982220951551,0.487201777904845,87.09844627926662,84.89685158965594,0.5519972918771561,0.448002708122844,72.21504505442064,65.05782390526744,0.5280753250393357,0.4719246749606641,80.00360015797507,75.63066792355087,0.47443647385311,1.4134790347764936,0.7102771626248692,1.0332145576000586,-0.5326190664206614,-1.2089619277429,-0.2715301132667639,0.0009174029099999,0.150206431514382,0.4177037033619659,3.1780538303479458,5.818549764769758,1.5714856929329704,1.1442212525609734,0.9917737587646211,1.6215223608985585,2.0211473406096063,1.973038410264446,3.517359527361956,1.1385295092380794,Relax,,,,,,,,,
01,64.77619250997127,929.8888888888888,106.02116512846447,,,,,,,152.35066723336533,153.59318842451052,0.114014874675132,0.1638374961286041,944.0,126.021,0.1334968220338983,164.0,0.6959022041305867,831.2,1027.2,68.25396825396825,84.12698412698413,687.0,1226.0,15.75,218.75,,,0.0195166548332389,0.0876710594026219,0.0344216693776461,0.141609383613507,0.2226122846720757,0.1378203501436426,0.6191048726114199,-2.434163429473566,108.60678507903452,104.25018023640588,1.0417899022596342,35569.98199185215,0.9598864395124276,5.258053755275735,400.2733373026098,0.6349206349206349,0.6612903225806451,0.8780487804878049,0.2,50.24696302229341,50.297787769518166,50.18618498075315,40.32258064516129,0.4681331281074865,0.5318668718925136,74.30960928969338,79.20667093945734,0.6624415316096419,0.3375584683903582,84.84975463861795,60.56912759062522,0.5613112849558409,0.4386887150441591,79.75399330134057,70.5064392038093,0.5268434673651403,1.2266448702154311,0.7622515870815962,0.9774502965556352,-0.1434223991001335,-0.7928937962218172,-0.3245631521401591,0.0006878512031143,0.1143719584249799,0.4250840438336949,3.1354942159291497,5.818549764769758,1.5270265805713417,1.2246036356346055,1.100205019788146,1.5793089199428172,2.046229303989941,1.9564739901210608,3.5453389486571463,1.2334069683412527,Relax,,,,,,,,,
01,65.29972307359351,920.25,110.0236626785636,,,,,,,156.2308527950845,157.44603509855042,0.1195584489851275,0.1697700111872692,900.5,129.7275,0.1440616324264297,184.4999999999999,0.7042377399224264,817.8,1025.8,65.625,85.9375,725.0,1226.0,16.0,164.0625,,,0.0173597550804173,0.0627292789513888,0.0164149662576306,0.0965040002894369,0.2767408675918318,0.1798863780605117,0.6500173957892917,-2.768926971417645,111.33115908912016,107.66831332292897,1.034019719016172,37657.76257571559,0.967099545211246,5.282824622937008,416.5039073930661,0.65625,0.6825396825396826,0.9069767441860463,0.2857142857142857,48.5462439152743,48.44828251134512,48.62686719619554,39.68253968253968,0.4424465227165869,0.5575534772834131,74.07243621247794,83.15138739555974,0.689060357687183,0.3109396423128167,89.37510032133815,60.03796412566918,0.5615988315820021,0.438401168417998,82.08116216252323,72.52141188008405,0.5607466181403042,2.241010646545164,0.8860630782940143,1.535479360778245,-1.450858916937371,-2.142970833930004,-0.2102127633862879,0.0037957660174938,0.4433487991114,0.4152928481626414,2.4849066497880004,5.812500000000001,1.398030351412618,1.5377678907400092,0.9678002527269728,0.9678002527269728,1.897990839858673,1.9587452697225007,5.006806338737752,1.3125,Relax,,,,,,,,,
01,65.03575329245858,927.953125,115.04939307628798,,,,,,,163.69212293543973,164.98757265183426,0.1239819016464737,0.1764012842086605,933.5,147.5187,0.1580275307980717,191.75,0.7028401306864567,815.6,1036.4,67.1875,87.5,725.0,1226.0,21.33333333333333,109.375,,,0.0080612075257804,0.0327535266621212,0.0087640633839405,0.0495787975718421,0.246117238272941,0.1625938489956177,0.6606357609754387,-3.41874463835884,116.66383143362016,110.9826656452832,1.051189667821593,40676.2829522022,0.9513031098111202,5.316311369672101,422.3126198539428,0.671875,0.6984126984126984,0.9090909090909092,0.2857142857142857,50.959902794653686,50.87732249310769,51.04870017917861,36.507936507936506,0.4639225824184939,0.5360774175815062,79.47123642774686,85.42814373457662,0.7189136271439546,0.2810863728560456,94.10084204411172,58.84032291143421,0.5850435586405998,0.4149564413594,87.09375951457632,73.34899911470276,0.5846868507179862,1.1795455801508958,0.8387211004407606,0.9548478674734848,0.1559733331723372,-0.3397289857384469,-0.401549572151448,0.0006882889692483,0.1075571982630192,0.4058051698868761,2.120263536200091,5.78125,1.3435368534550995,1.3175493768466495,0.8685721591877991,0.8548866300825879,1.9143363781610685,1.959391228133209,5.5123395787884,1.03125,Relax,,,,,,,,,
01,64.45516783276963,933.2857142857144,103.6453986609848,,,,,,,135.68916090497711,136.79608821693057,0.1110543074585785,0.1453886616156191,955.0,126.021,0.1319591623036649,158.5,0.7638443481389608,823.2,1026.8,57.14285714285714,82.53968253968253,745.0,1226.0,15.75,242.1875,,,0.0085279110790202,0.0297578188506012,0.0113517602689618,0.0496374901985834,0.2865771554640661,0.1718038330484255,0.5995028904876123,-3.514663363013626,96.72944161798478,109.2652616744152,0.8852716786256897,33204.019757986985,1.1295967375262883,5.228160773576526,493.7027324495024,0.6507936507936508,0.6774193548387096,0.9047619047619048,0.2,50.21868166198063,50.29462842374814,50.13685524584157,38.70967741935484,0.420038790520676,0.5799612094793238,62.691084941541256,73.66489254348113,0.7061312505982805,0.2938687494017193,91.81736523133998,59.23232943885579,0.580430175898785,0.4195698241012149,78.61488627853132,66.83930447048266,0.6168853199795219,1.5537536485671988,0.9383566843599068,1.0776629530131585,-0.2481197266486017,-0.5023041806863444,-0.4103421132547535,0.0008803431419755,0.1666831071158092,0.3812423957965318,1.5755363607584192,5.67958329648145,1.2794058493136111,0.5909984302806723,0.6463535756254107,0.8598425498690881,2.1825311291026166,1.889138519160295,3.8575714243514,1.1385295092380794,Relax,,,,,,,,,
01,64.43272944662809,933.4603174603176,104.7024702233206,,,,,,,131.94378079440722,132.9787082912331,0.1121659574219357,0.1413491053946343,955.0,99.3342,0.1040148691099476,152.0,0.7935385024813437,823.2,1013.6,52.38095238095239,80.95238095238095,745.0,1226.0,15.75,250.0,,,0.0163053381887726,0.0421616848326133,0.0152747084595465,0.0737417314809325,0.3867335533080964,0.2211141216963248,0.571747963953289,-3.166243412724626,94.03014638615868,110.19608022658072,0.8532984675391149,32552.40884633864,1.1719228828383668,5.219553241420984,516.5652320664897,0.6190476190476191,0.6451612903225806,0.9,0.125,51.70812603648424,51.54978015894201,51.89055708152941,40.32258064516129,0.4426794198086287,0.5573205801913712,62.58201176633196,70.2194452541693,0.7131499766706277,0.2868500233293723,93.0586145958501,59.019237091003184,0.5991491883116157,0.4008508116883842,79.29821545035007,64.86154807976497,0.6581411202160411,1.8249217866894136,1.054037329341464,1.2969106084676687,-0.4825467156988381,-0.8770282306705433,-0.3669130475082987,0.0018167061022707,0.2653485554528944,0.3734800712831876,1.213022639845854,5.723311669531665,1.150821871723883,0.8953176205342542,0.8926928943728978,1.037523053185424,2.0334197118002253,1.8802416761582763,4.299248960114127,1.0436520501349065,Relax,,,,,,,,,
01,64.23759327304364,935.7460317460316,96.90966333086811,,,,,,,115.64412875770664,116.57102133153916,0.1035640655082896,0.1235849523635418,961.0,106.7472,0.111079292403746,168.4999999999999,0.8379989920103053,823.2,1020.8,49.2063492063492,77.77777777777779,745.0,1088.0,15.75,242.1875,,,0.0077425371166498,0.0197379110234272,0.0054628816204488,0.0329433297605259,0.3922673026269172,0.2350259422144785,0.59914741973284,-3.925214075124374,82.42815967337302,109.17752040806629,0.7549920474955488,28272.14131747976,1.3245172625555317,5.158328812938298,578.4300418539704,0.6031746031746031,0.6290322580645161,0.8717948717948718,0.1176470588235294,51.17031398667934,51.12428012436983,51.21755505584588,40.32258064516129,0.4423857369075485,0.5576142630924512,54.83275615488412,61.56111184671114,0.665596018265843,0.3344039817341568,89.07146269939258,63.13481998900795,0.5845415208214156,0.4154584791785847,73.96065377939229,62.352930912859726,0.7133512059970737,0.890220535459944,0.9506721650630694,1.0239617875571358,0.440510205893128,-0.2935778401269371,-0.4176725097043504,0.0006261116143376,0.0735563504461001,0.401536068512573,1.5198257537444135,5.723311669531665,1.1427830574836253,0.6763294863418711,0.8762492286712971,1.101237014829466,2.0171291096855906,1.8407170789849516,4.411794344058418,0.8538971319285595,Relax,,,,,,,,,
01,64.86115403962543,927.921875,98.47331516509016,,,,,,,127.76634179328332,128.77990209983787,0.1061224202361757,0.1376908393212341,956.0,100.0755,0.1046814853556485,175.75,0.7707297069240101,817.8,1012.4,51.5625,82.8125,745.0,1145.0,16.0,242.1875,,,0.0102472281769966,0.0227187807369423,0.0069742867669015,0.0399402956808405,0.4510465722455746,0.2565636533810708,0.5688185415172238,-3.784563351316444,91.06114205533508,102.29889541972712,0.8901478523469474,29265.36263011616,1.1234088779335012,5.173324019832892,459.6939492692489,0.609375,0.6349206349206349,0.9,0.1052631578947368,49.05628862535495,49.30334212311268,48.78121940810586,41.26984126984127,0.4065636160855364,0.5934363839144634,58.06843848759063,70.15570241003336,0.6600503656768203,0.3399496343231796,83.11118650780452,59.64557553885447,0.547977288464726,0.4520227115352737,71.69174593745839,65.11304501406133,0.701218492793311,1.2176441778284357,1.0072423939928186,1.0796192029853295,0.2067680209796591,-0.3051300241778536,-0.4405599679197014,0.0008779763258488,0.1227090420259124,0.405388395841022,1.6094379124341005,5.738204882778696,1.2131634255341657,0.6141839432053261,0.8654928084817017,1.0256523382916558,1.8788213256976385,1.902643289877562,2.8826749099334688,1.21875,Relax,,,,,,,,,
01,65.49213042523124,915.8153846153846,98.301178195459,,,,,,,120.94187653579716,121.78441383190606,0.1073373300414063,0.1320592322071431,930.0,109.7124,0.1179703225806451,166.0,0.8127968658263971,815.8,1004.4,52.30769230769232,81.53846153846153,713.0,1118.0,10.833333333333334,273.4375,,,0.0086975440686717,0.0356381157137445,0.0070609547835353,0.0513966145659515,0.2440517377106254,0.1692240654783032,0.6933942247891467,-3.334339547761916,86.11458486336954,106.19194959473228,0.8109332693487088,28728.845857781933,1.2331470884196647,5.165288289115424,523.8011738254075,0.6153846153846154,0.640625,0.926829268292683,0.1,47.130584192439855,47.08343753697288,47.15999536715511,45.3125,0.4127861266242504,0.5872138733757494,55.37885390938909,66.05102645105598,0.6025451959647202,0.3974548040352799,82.43021038025641,66.94767042546607,0.5271787886849,0.4728212113151001,70.21950243219753,66.50085965848457,0.6486491064679697,1.308247768741048,0.929942513910174,1.0187596088616189,0.0140143757755843,-0.3124802834280511,-0.4321098823375672,0.0006397781447693,0.1188809676541509,0.3119579342918035,1.5686159179138452,5.868521659182301,1.2437829208308675,0.577622650466621,0.7911116247102985,1.028964350650323,2.0452046586533528,1.8626365979363189,3.196759160210441,1.0191699375894308,Relax,,,,,,,,,
01,66.64171618751166,905.2153846153848,102.21369959362288,,,,,,,128.83116373766092,129.84957337761725,0.1129164410269632,0.1423210055056673,909.0,114.1602,0.1255887788778877,159.0,0.79339265926186,814.2,991.2,49.23076923076923,78.46153846153847,583.0,1118.0,13.0,289.0625,,,0.0053979986605283,0.0332631925809441,0.0054547443903004,0.0441159356317728,0.1622814360766052,0.1223593829128854,0.7539949477346591,-3.4033038212207143,91.81751386949334,112.38354642889908,0.8170013919927585,32417.39663398413,1.2239881226651124,5.217748244691039,550.2245040478226,0.5846153846153846,0.609375,0.8974358974358975,0.1,50.05279831045406,50.11911184260003,49.98184946402999,45.3125,0.4589028070921956,0.5410971929078041,62.1993722216061,67.54034655447374,0.5830929517138422,0.4169070482861578,85.8166641450836,72.56418994894402,0.5333800293687795,0.4666199706312202,74.94418506379259,70.09728980368942,0.568657576198641,3.867448657219663,1.3070625827510105,2.1729427784537387,-1.4203825830952468,-1.6612006010798184,-0.2761107457531922,0.0350069480215432,1.9907224149925704,0.3455505198659447,1.4880770554298328,5.868521659182301,1.2376011797809738,0.5698837754670375,0.6730124649389422,0.7185928541374309,1.7797742873977296,1.8675099574244227,2.80525672048071,1.0191699375894308,Relax,,,,,,,,,
01,66.62204657332411,902.876923076923,97.76126976151964,,,,,,,115.0586806807726,115.96439998332272,0.1082775151992566,0.1274356202268001,889.0,130.4688,0.1467590551181102,170.0,0.8496644423792395,800.4,994.8,50.76923076923077,78.46153846153847,744.0,1118.0,13.0,125.0,,,0.0071599830767411,0.0390827563855296,0.0091058262138994,0.0553485656761702,0.1832005656436278,0.1293616734105144,0.7061204912552295,-3.2420739224235287,81.99921360443666,110.52227204978924,0.7419247911180906,28471.435501144133,1.347845512067317,5.161379474351775,595.867793463166,0.5846153846153846,0.609375,0.8974358974358975,0.1,50.54904831625184,50.52857278734838,50.56719689406015,45.3125,0.4646603656003321,0.5353396343996676,55.897440098128,59.998280398638514,0.6037912040621808,0.3962087959378194,85.88022929337195,69.56837525460456,0.5543938907017261,0.4456061092982737,72.45666840604096,64.95980482713571,0.4442923913862035,1.5177035267914605,0.7859543871349993,1.025934291426151,-0.2550374728126066,-0.906623885005042,-0.3418795897519676,0.0014449337493369,0.1968818219046089,0.3611982525782142,1.83258146374831,5.764600312995171,1.378382799582868,0.6872180489056163,0.8047189562170501,0.8605048440456026,1.7454719893450763,1.883910755560461,3.914850786246356,1.111821750097561,Relax,,,,,,,,,
01,66.54781474676697,903.0923076923076,94.38348026086898,,,,,,,109.57816844609148,110.42601487831008,0.1045114430240793,0.1213366203130431,908.0,115.6428,0.1273599118942731,165.0,0.8613347129205055,800.4,988.8,49.23076923076923,76.92307692307693,744.0,1118.0,16.25,218.75,,,0.0067637804963895,0.0478732683914518,0.0098359128772659,0.0644729617651073,0.1412851205621323,0.1049087913943195,0.7425324830875188,-3.039198001504606,78.08298393985963,108.95063821502065,0.716682207824778,26726.12854088013,1.395318579255829,5.133906162803459,608.0833988927938,0.5846153846153846,0.609375,0.8974358974358975,0.1578947368421052,48.76590821442343,48.77648420527038,48.76070634534873,50.0,0.48291805036488,0.5170819496351202,54.27070594537648,56.157587227146806,0.5617011653834386,0.4382988346165615,81.65493568563626,72.12983464305822,0.5349611724564697,0.4650388275435304,69.3283421323304,64.63894974707402,0.6574448762222157,3.63771099086191,1.3228788070358155,2.387817365298642,-1.6698818765188186,-2.492915863809761,-0.2072503667998917,0.0364882775315679,1.9670038473329887,0.2827306072545417,1.6582280766035322,5.764600312995171,1.339457278580667,0.8137822925653936,0.9010345564147114,0.963863163484938,2.0324296639162176,1.8336822072777537,4.090123328380552,0.9265181250813006,Relax,,,,,,,,,
01,66.14848207167238,908.4153846153846,90.4528351386256,,,,,,,106.9079627530148,107.75087006609272,0.0995721083884137,0.1176862089343397,914.0,103.782,0.1135470459518599,135.0,0.8460813657781057,816.0,988.8,47.69230769230769,75.38461538461539,744.0,1118.0,16.25,132.8125,,,0.0112754809550815,0.067431814963357,0.0108400192829753,0.0895473152014138,0.167213072363672,0.1259164602503184,0.7530300022025934,-2.6966383403386947,76.19137090248473,103.91739698830702,0.7331916802251882,24873.90207096885,1.3638998190662308,5.102714030131592,566.9316758007426,0.5692307692307692,0.59375,0.868421052631579,0.1578947368421052,49.56452889944576,49.56503398484837,49.56252631643284,50.0,0.5032783030475368,0.4967216969524633,54.052884157224064,53.6996349489528,0.531939099784515,0.4680609002154849,75.79127562138969,71.09506267321196,0.5219183529879623,0.4780816470120376,65.82564753206664,63.00062987843348,0.7012627004639591,3.671301641468595,1.399151793077548,2.2873403395885585,-1.3507661548519057,-1.7869637241701684,-0.2580725766364113,0.0339824837281017,1.8768149138880827,0.3836196977897188,1.8718021769015916,5.764600312995171,1.3483014539692262,0.8348390021215469,0.9544280814892262,1.0172566885594527,2.2534832174272146,1.8186630056991908,4.547477154191779,1.204473562605691,Relax,,,,,,,,,
01,65.67463767160744,914.1076923076924,87.04006316722113,,,,,,,107.69466386502164,108.52873289177955,0.0952186092510455,0.1178139783433429,916.0,100.8168,0.1100620087336244,128.0,0.8082114753272474,837.8,994.8,46.15384615384615,73.84615384615385,744.0,1118.0,16.25,109.375,,,0.0155896481927802,0.0742496621774282,0.0121265612634179,0.1019658716336265,0.2099625471093323,0.1528908441914315,0.7281815080659017,-2.600322051108624,76.74140298136082,96.82139133702071,0.7926079342759652,23342.69129649393,1.261657821926151,5.075121036556944,488.6218628405001,0.5538461538461539,0.578125,0.8648648648648649,0.0952380952380952,48.7857847976308,48.76988332791325,48.803919373743824,51.5625,0.4844486117790971,0.5155513882209031,53.42232159354779,55.1105670736076,0.5072882333494477,0.4927117666505524,68.96023196330196,67.96225590726144,0.4984741806146918,0.5015258193853084,61.68248550794973,61.87100625971221,0.7072311979176554,3.274932115738658,1.3664328030865,2.1493420818820024,-0.9270699064314574,-1.5091433154839606,-0.2609387763999749,0.0303941958501379,1.5903689564475678,0.3432964944608798,2.03688192726104,5.733831082225939,1.4172062039687954,0.7280876661537349,1.058526626149315,1.1086943000148528,2.289326223348369,1.866755343342396,4.1231313282536055,1.111821750097561,Relax,,,,,,,,,
01,65.47805225666298,917.65625,84.73585825731142,,,,,,,104.18695040608796,105.02331928408078,0.0923394334831931,0.11353592416124,920.0,94.1451,0.1023316304347826,126.5,0.813305869180715,846.8000000000001,989.6,46.875,71.875,744.0,1118.0,12.8,218.75,,,0.0079969900557177,0.0547474127096183,0.0073441130929889,0.0700885158583251,0.1460706480895085,0.1140984362100438,0.7811181623574853,-2.9050251678474743,74.26270124849343,94.7277744617717,0.7839591046073066,22100.288807013018,1.2755767413415149,5.051368059052899,483.3301834499229,0.546875,0.5714285714285714,0.8333333333333334,0.1578947368421052,49.79053204859655,49.77836587825502,49.80247675920717,50.79365079365079,0.5230003217032725,0.4769996782967274,53.70611486780204,51.28989399293442,0.5088809468808588,0.491119053119141,67.57490276037747,66.38511709265725,0.5142554957703699,0.4857445042296301,61.03570372031446,59.31962996012477,0.6634460921691256,3.542570137860029,1.3715595765710105,2.043782450510093,-0.9194523295923638,-0.9819032892423772,-0.310244300668905,0.0299187615294395,1.6525093304255645,0.321310528513143,1.9459101490553132,5.738204882778696,1.4238859650339457,0.7611306094308558,1.0063379226837874,1.0621238105123396,2.309301443890408,1.866401876906636,3.606933505008057,0.9375,Relax,,,,,,,,,
01,66.06199462783549,909.646153846154,87.47364438239933,,,,,,,111.61345125028612,112.47163663617172,0.0961622758613823,0.1226998550792125,897.0,90.4386,0.1008234113712374,114.0,0.7837195553271191,836.0,1001.2,52.30769230769232,73.84615384615385,744.0,1118.0,16.25,148.4375,,,0.0166460235774561,0.0843631286820395,0.0135851168015385,0.1145942690610342,0.1973139668657164,0.145260524054569,0.736189770861113,-2.472624836789963,79.52945695658634,93.05447286742816,0.8546548543656738,23249.581667893603,1.170062973248074,5.07338525295293,435.5183727891808,0.5692307692307692,0.59375,0.8421052631578947,0.15,48.61319340329835,48.755504101380126,48.46038328710131,48.4375,0.4795580997486465,0.5204419002513533,55.08607982490848,57.38618826141533,0.5224714661596938,0.4775285338403063,67.26180875993991,64.30384127698896,0.5043527846621494,0.4956472153378504,61.47612182032516,60.94324657478789,0.6528347857438112,1.4843923906945244,0.916929008500172,1.1022751893332932,-0.274801752163313,-0.6052075071680099,-0.3751366673697374,0.0006589446615045,0.1462890241421039,0.3736266402371826,3.1780538303479453,5.826138774533633,1.5173941130183342,0.0,1.3143738430069454,1.4357507969523704,1.989263518571825,1.8979638231041676,2.904809009317034,1.297125375113821,Relax,,,,,,,,,
01,66.56831065402473,901.878787878788,84.37854542322312,,,,,,,105.9642900661858,106.73833029350868,0.0935586317776481,0.1174928288483345,887.5,83.76689999999999,0.0943852394366197,121.25,0.7962922732792327,835.0,986.0,50.0,71.21212121212122,744.0,1118.0,13.2,125.0,,,0.0250873932211953,0.1118835345104533,0.0223684066110158,0.1593393343426645,0.2242277501418353,0.1574463287718026,0.7021714692860715,-2.1902968191697987,75.47539716306947,91.42116717528992,0.8255790151787692,21677.14293888541,1.211271097756115,5.042972151313268,442.9432700902349,0.5454545454545454,0.5692307692307692,0.8108108108108109,0.2105263157894736,47.9117415287628,47.954765429878485,47.87128434923657,52.30769230769232,0.501997676228475,0.4980023237715251,53.50102218649657,53.287692059236335,0.5000607060174475,0.4999392939825524,64.64845144632841,64.64060282271525,0.500846244130628,0.499153755869372,59.337094845502335,59.23675235140775,0.6622550218951019,3.6297593935048,1.367732152280933,2.1314054303971885,-1.080881540236078,-1.2701683220187,-0.2896077410853195,0.0331795529370361,1.785262763719962,0.3828332683527207,2.4849066497880004,5.851138248113551,1.4287714850194924,1.1303653426677984,1.170532806781055,1.2624640018123845,1.934370041238026,1.8814572351088064,3.071353295275354,1.2821442071366418,Relax,,,,,,,,,
01,68.27781660844337,880.6119402985074,89.46506940224154,,,,,,,99.53878488795056,100.24528891034204,0.1015942043346754,0.1130336534549022,870.0,81.54299999999999,0.0937275862068965,111.5,0.8987960773576967,802.2,958.0,47.76119402985074,70.1492537313433,698.0,1118.0,11.166666666666666,171.875,,,0.0193686256268456,0.1137009015024846,0.0228405424170359,0.1559100695463662,0.1703471597049952,0.1242294720488571,0.7292723416345535,-2.1741839494753323,70.88412357050747,104.0122415244782,0.6814978942053241,23162.386407343787,1.4673559647107528,5.071753412432955,610.4919320155142,0.5373134328358209,0.5606060606060607,0.7837837837837838,0.2222222222222222,47.68615902397981,47.50881819246008,47.85836100543253,51.51515151515152,0.5098145661741543,0.4901854338258458,50.640588767995474,49.6561251934821,0.5256757672538578,0.4743242327461425,75.41251668343584,71.6344799270358,0.5206416142853403,0.4793583857146596,64.2320671600203,61.632903078013705,0.7389888434846412,1.4815348991806556,0.9867159927136124,1.1361178145432829,-0.444237848948946,-0.6291972787893547,-0.3991574063410216,0.0003278828539448,0.121766982005444,0.3992159761146157,1.6650077635889111,5.827283220308519,1.3096064148025968,0.9453901581368972,0.8834606431826488,0.8905319371186982,1.934492707818187,1.8565022914733145,3.2640012147360795,1.1770023802380751,Relax,,,,,,,,,
01,69.78413923027831,861.3970588235294,86.82202411725599,,,,,,,97.71127129105132,98.445853950832,0.1007921065296356,0.1134334860911906,856.0,87.4734,0.1021885514018691,117.25,0.8885568979922525,788.4,933.4,44.11764705882353,69.11764705882352,698.0,1060.0,11.333333333333334,171.875,,,0.0243651290036274,0.0666627756383912,0.0116141073102867,0.1026420119523054,0.3654982675158149,0.2373796902475877,0.6494687152992221,-2.7081085682296697,69.61173090833375,102.07693797521208,0.6819535566911104,22323.37934415996,1.4663755180808422,5.0557300493057165,598.7324912300305,0.5882352941176471,0.6119402985074627,0.8048780487804879,0.2941176470588235,50.532141336739045,50.5353835630328,50.52953308006776,50.74626865671642,0.5349814439049403,0.4650185560950596,50.91719361925404,47.47120339232144,0.5120240931448603,0.4879759068551395,73.04202962518501,71.30612298133232,0.5193118362320215,0.4806881637679786,62.95910854605157,60.57259415834871,0.6581032606442097,1.790041562357738,0.9689461465148748,1.422998612663197,-0.7521348328724375,-1.4997354047052724,-0.2463452940443064,0.0023629127769272,0.2874534940825409,0.5002627259357864,1.7917594692280552,5.881580488309165,1.2912725739893574,1.028688889870557,0.9009824839290594,0.9222198635284842,1.8579103827950425,1.845204816878529,3.3179573897185115,0.9847366360846136,Relax,,,,,,,,,
01,69.97918709132469,858.1739130434783,84.62459601463031,,,,,,,88.30028978701364,88.94346193253517,0.0986100774311732,0.1028932346287016,852.0,80.0604,0.0939676056338028,106.0,0.9583728005734824,788.6,926.8,40.57971014492754,68.11594202898551,698.0,1060.0,11.5,171.875,,,0.0141791277838187,0.0231636324068349,0.0050566063682968,0.0423993665589505,0.6121288550423951,0.3344183872205885,0.5463202468987142,-3.765171798902042,62.89252507470317,101.54228371429294,0.6193727654546587,20062.99804636417,1.6145366018248104,5.009365940824904,655.7749347584212,0.5362318840579711,0.5588235294117647,0.7368421052631579,0.2352941176470588,48.77010406811731,48.81489583948655,48.73237970506287,48.52941176470589,0.5255492349941153,0.4744507650058846,45.6006349785588,43.32711398154911,0.5117684791349675,0.4882315208650326,72.64131429161449,70.95121450617205,0.5155901543005552,0.4844098456994449,60.64725242111499,58.784834974128266,0.8953999578742871,3.2531593934643777,1.4805092755947602,2.3844096769717646,-1.2913038253243592,-2.0233416577940626,-0.2221469064218165,0.0262442282554042,1.4883636420919646,0.4626092835783462,2.456735772821304,5.9056259060535305,1.261426049334541,0.0,1.2136577614049189,1.2739482756091407,1.840911494452091,1.8066248382682084,2.7339987244918373,0.8852933995330681,Relax,,,,,,,,,
01,69.80031192554296,860.7205882352941,84.0798919273478,,,,,,,85.79279098545882,86.43764402642773,0.0976854661972637,0.0996755418170684,852.0,84.5082,0.099188028169014,116.5,0.9800344639865912,788.4,933.4,38.23529411764706,66.17647058823529,698.0,1060.0,17.0,62.5,,,0.0076257902577598,0.0151080543905079,0.0025999014576342,0.025333746105902,0.5047499870367755,0.3010131318866899,0.5963608511489836,-4.192527274025355,61.12064424087591,102.58757386777398,0.5957899376746626,19698.47270871881,1.6784439225391223,5.00140266506304,688.7499595455942,0.5441176470588235,0.5606060606060607,0.7567567567567568,0.25,50.56603773584906,50.57945980915027,50.556393280826015,46.96969696969697,0.5456993553646275,0.4543006446353723,45.15209985385088,41.19769411022902,0.5215798323343437,0.478420167665656,74.08924247165686,70.95769487555256,0.5278988039207251,0.4721011960792749,61.35115309118519,58.01829221052623,0.9429237992022408,1.431492968733227,1.1907961944011287,1.4041593433010215,-0.5724832932102846,-1.0218484502893816,-0.3509506134083882,0.0003765504906261,0.121074515212306,0.4614400753818097,2.110213200346589,5.8227569588974,1.2669802988134011,0.0,0.0,0.0,1.866221061852456,1.812679197659828,2.761313549881277,0.8952151237132852,Relax,,,,,,,,,
01,68.63455224917784,873.776119402985,91.88857232597935,,,,,,,81.58904783898834,82.21289805170845,0.105162604339385,0.093375231969872,871.0,78.5778,0.0902156142365097,102.0,1.126236606012569,799.4,943.8,40.298507462686565,70.1492537313433,698.0,1154.0,13.4,195.3125,,,0.0083797666620845,0.0199566950895391,0.0049886773154268,0.0333251390670505,0.4198975143172391,0.2514548144937781,0.5988480663017216,-3.9141905984845433,58.13329771336134,107.56809790846768,0.5404325152502778,19645.284458938648,1.850369790457359,5.000228431633564,796.1630351471523,0.5373134328358209,0.5538461538461539,0.75,0.1666666666666666,49.5956170101748,49.695433342381286,49.47344649262536,46.15384615384615,0.4705779258763575,0.5294220741236426,39.87933723698952,42.29929986690996,0.5153298014919895,0.4846701985080104,77.2193458778237,74.88703699470769,0.5052135367498248,0.4947864632501752,61.45400278362877,60.81652357327524,0.861907016078035,1.5530748600726487,1.1063592301395364,1.2581167132172426,-0.5293644230308399,-0.5852873802969127,-0.402285789964685,0.0003209925648836,0.1281287498086969,0.5379232803453098,1.9042374526547448,5.916835459114489,1.1576104581271585,0.842643630362043,0.8784188412722114,1.1172967025290703,1.9169308578671207,1.807790388340064,2.0330782249637,0.905386446336981,Relax,,,,,,,,,
01,68.81911861942868,871.9411764705883,85.62498630185159,,,,,,,75.2038026983909,75.74538092712696,0.0982004160515062,0.0862487111834746,868.0,88.2147,0.1016298387096774,109.5,1.1385725618856726,799.8,947.0,38.23529411764706,70.58823529411765,698.0,1120.0,13.6,171.875,,,0.0071954761841637,0.0184809397810026,0.0047703824263422,0.0304467983915086,0.3893457946094409,0.2363294850131262,0.6069912357733108,-3.991015360111256,53.56007249712965,108.91961836827528,0.4917394432657134,18327.24307153985,2.0335972916039724,4.970067249835748,885.9945636650514,0.5147058823529411,0.5303030303030303,0.7142857142857143,0.2352941176470588,48.20652173913044,48.20858245477566,48.21914477068973,48.48484848484848,0.4893145363474662,0.5106854636525336,37.47868080858123,38.28837943815329,0.4957559659798055,0.5042440340201945,76.6902380109008,77.34397623165047,0.4945009822288688,0.505499017771131,60.35745240365985,61.024956613348415,0.805179246640553,1.8120917090923,1.0789399495906866,1.2340964640359149,-0.4825489999273262,-0.2381532375184911,-0.4143771180748086,0.0008056124731289,0.1900425122586739,0.4788478769276545,1.8191584434161696,5.910992253015046,1.1926574975697024,1.1024914981688183,1.0227744261587466,1.4568027712612164,1.949335508167104,1.793915176729364,2.671759063176578,0.9847366360846136,Relax,,,,,,,,,
01,68.5539868504492,876.5373134328358,89.7859961339401,,,,,,,78.16900881675511,78.76034286613796,0.1024326001391838,0.0891793282713968,871.0,93.4038,0.1072374282433983,111.0,1.148613721640218,799.4,947.0,41.7910447761194,71.64179104477611,698.0,1120.0,11.166666666666666,195.3125,,,0.0047489335309604,0.010160693813812,0.0018961256520092,0.0168057529967817,0.4673828006218321,0.2825778488991141,0.6045961651202331,-4.589228550402341,55.69197252922367,114.06767099592052,0.4882362552244572,19957.44987923289,2.04818873915922,5.007075157227194,934.5284769438526,0.5671641791044776,0.5846153846153846,0.7894736842105263,0.2941176470588235,50.93896713615023,50.87383485739008,51.00113343002711,46.15384615384615,0.5022415853761351,0.497758414623865,39.472190794961534,39.29562512349376,0.5413318131615381,0.4586681868384621,83.92557967835776,77.25238275992001,0.5338061545857785,0.4661938454142216,65.58032010634831,61.28652705094057,0.8343339031256901,1.9513878276976289,1.110016554983312,1.4421042875759162,-0.9338252631896822,-0.985454438595056,-0.3298197170859559,0.0013233387025782,0.2432549870832017,0.4472185949826985,2.0149030205422647,5.916835459114489,1.2068104137535471,1.191383031453657,1.1161723746110808,1.4323590387587275,1.9093021937142485,1.821551131555532,3.0839713809346465,1.086463735604377,Relax,,,,,,,,,
01,68.24792252377178,880.1492537313433,91.91386839851808,,,,,,,79.72176996317006,80.28822931725277,0.1044298657402189,0.0905775578689569,874.0,97.8516,0.1119583524027459,120.5,1.1529331127618032,799.4,959.8,43.28358208955223,71.64179104477611,698.0,1120.0,13.4,195.3125,,,0.004296031545135,0.0100085218616394,0.0013364556713846,0.0156410090781591,0.4292373643705337,0.2746646027546857,0.6398897802326103,-4.604318362728611,56.77235139969,116.79300768178138,0.4860937527559363,20830.68720431856,2.057216317491107,5.025673707519739,961.0739246872996,0.5671641791044776,0.5846153846153846,0.7631578947368421,0.3125,52.24186523187292,52.18843273422057,52.284687265238496,47.69230769230769,0.5238195138115752,0.4761804861884247,41.11194847842057,39.19791988201571,0.5189936302686795,0.4810063697313204,84.13909888335345,81.00134988044279,0.5199168101618254,0.4800831898381745,66.21774787998697,63.63055714643253,0.8619729332540388,1.603335216656117,1.0762650654722894,1.3963300883011251,-0.9260885786408082,-1.2646028564489535,-0.3003754801217697,0.0005463624542518,0.1489544937529729,0.4127219543778664,2.602689685444384,5.946686205383145,1.2382560556411115,0.9972460116410686,0.0,0.0,1.927883880663334,1.8426163748071136,2.658164479535745,0.905386446336981,Relax,,,,,,,,,
01,68.35665693516066,878.4328358208955,99.60987900997436,,,,,,,109.5026635901307,110.34177567543246,0.1133949858749177,0.1246568424184649,869.0,102.2994,0.11772082853855,126.5,0.9096571329334496,793.2,947.0,40.298507462686565,71.64179104477611,698.0,1175.0,13.4,195.3125,,,0.0052008600282634,0.007363247195288,0.0006097699076666,0.0131738771312182,0.7063269628638269,0.394785830812019,0.5589278784025833,-4.9112542485272845,78.02341782826313,117.51281287081504,0.6639566862724694,28804.48172288341,1.506122343031316,5.1664301753630175,707.9546922287701,0.5671641791044776,0.5846153846153846,0.7631578947368421,0.2666666666666666,49.988766569310265,50.06920429080649,49.90321998974848,46.15384615384615,0.4511817739561155,0.5488182260438845,52.40838159625292,57.80151714804192,0.5438618484788892,0.4561381515211108,86.66216196400038,79.36580417621025,0.5155054821206416,0.4844945178793581,71.61343720913378,69.42602630552874,0.7614608868771567,2.1779333337226983,1.084060648106025,1.1509853777131085,-1.0451618375324578,-0.3332331462364979,-0.4692714517148741,0.0003137611876962,0.2196079030555254,0.4678637136872834,2.2246235515243336,5.916835459114489,1.1057391608517868,0.9585153659896084,0.9585153659896084,1.0760162733010423,1.8215580327060688,1.82936751481294,2.4014876923768957,0.995925090970679,Relax,,,,,,,,,
01,68.33468431372346,879.1363636363636,100.61654342695743,,,,,,,103.2866809493773,104.07243686675456,0.1144493022797716,0.1174865302148958,873.5,100.8168,0.1154170578133944,129.5,0.9741482880669916,798.0,962.0,45.45454545454545,75.75757575757575,698.0,1175.0,13.2,132.8125,,,0.0051967377573562,0.0111314197612857,0.0019767372083966,0.0183048947270385,0.4668530941066585,0.2838988060215401,0.6081116514067268,-4.497983560169089,73.590325843091,122.14682015131184,0.6024743480995206,28239.22437156842,1.6598217055289688,5.157822874020954,810.9677733939626,0.5757575757575758,0.59375,0.7894736842105263,0.3333333333333333,48.64218987616772,48.71241563430548,48.592389602714015,48.4375,0.4608070905601006,0.5391929094398993,49.96381503148052,54.04656557081124,0.5264411170814898,0.4735588829185101,88.62516698330134,84.05608514711398,0.5089576063785477,0.4910423936214523,71.94026353620775,70.66277909995783,0.7746357133882859,1.9254888130498533,1.110968057415727,1.1212623662715795,-0.5236816205715744,-0.02658552068669,-0.4946536646766868,0.0003984362208609,0.1919650284253228,0.4649738739076174,2.6741486494265287,5.953485028449361,1.1314281920914833,0.9431902345236596,0.6685371623566322,1.0445565115507007,2.0341790978042,1.8390593001104687,2.884788675564652,1.0989807489742642,Relax,,,,,,,,,
01,68.25766942047385,880.5373134328358,99.21866398809291,,,,,,,100.25142634819956,101.00833933584204,0.1126796814564076,0.1138525589078814,874.0,97.8516,0.1119583524027459,122.0,0.9896982776432568,798.2,959.0,40.298507462686565,73.13432835820896,698.0,1175.0,16.75,156.25,,,0.0065400604350044,0.0261239225633395,0.0052596353706856,0.0379236183690296,0.2503475662641209,0.1724534924743722,0.688856277086516,-3.644903811142278,71.4236817007658,121.13485376720772,0.5896212318712587,27180.736803576023,1.696004054715495,5.141231335183513,821.7808126262115,0.5373134328358209,0.5538461538461539,0.75,0.25,51.12372304199773,51.10451655799692,51.138995959598674,49.23076923076923,0.490566435959555,0.5094335640404448,50.03106727132344,50.984084997937565,0.5326123271827572,0.4673876728172427,88.40457207967218,82.81475975098182,0.5217639745125349,0.4782360254874651,71.82783602788561,68.76649386034511,0.802766885060359,1.9770739858685684,1.1637447355546722,1.2494945638562065,-0.3986980923710579,-0.0823907339802048,-0.4566279112898941,0.0009648354348439,0.2406953349784178,0.5026302053696039,2.2772672850097555,5.946686205383145,1.123453684256703,0.9964282098537082,0.67068309827948,0.7983895042209777,2.059833771851233,1.819539673923778,2.9438752848106886,0.8148478017032829,Relax,,,,,,,,,
01,68.05112289026242,883.2835820895523,102.67598432287458,,,,,,,111.65429601310385,112.48750979615409,0.1162435104703041,0.1264082094099012,875.0,106.7472,0.1219967999999999,127.5,0.9195883005775652,793.2,975.0,47.76119402985074,77.61194029850746,698.0,1175.0,13.4,132.8125,,,0.0102266362545433,0.044946947417217,0.0100488840192691,0.0652224676910295,0.227526825339557,0.156796217876772,0.6891328863872299,-3.1022724309997485,79.54068097564874,121.81666122107002,0.6529540391137479,30440.085615528784,1.531501361653718,5.190415979555051,746.2495301287136,0.582089552238806,0.6,0.8205128205128205,0.3125,51.41318977119784,51.54287406795748,51.28811106939123,47.69230769230769,0.5103931570331102,0.48960684296689,56.83660792130368,55.66721172771689,0.532460821068744,0.467539178931256,88.88951177478744,83.29437944716842,0.525862750297563,0.4741372497024368,74.6047763335568,70.84063843948378,0.6936753530405744,2.028005977546043,1.0423693970924426,1.252546824881709,-0.6412674566401471,-0.4968489832439799,-0.3963625205663405,0.001439051031956,0.2687957245170551,0.483986482145744,3.4011973816621555,5.946686205383145,1.157333607436268,1.347221434797729,1.023586140555525,1.1968729356955117,2.1812420854275585,1.9003385073810608,2.5255398552884256,0.905386446336981,Relax,,,,,,,,,
01,96.399419845791,622.8105263157895,101.238531763108,,,,,,,56.81006054145168,57.09826486711352,0.1625510929655933,0.0912156396545018,597.0,78.5778,0.1316211055276381,108.5,1.7820528758148204,539.8,714.4,29.47368421052631,70.52631578947368,479.0,904.0,15.833333333333334,46.875,,,0.013436298724771,0.0014317850962881,0.0004903857540359,0.0153584695750951,9.38429849535656,0.8748461986446212,0.0932244641490787,-6.548833294130135,40.37457028152157,137.26629313932938,0.2941331725228434,17410.918856720116,3.399820535109268,4.947791801462409,1866.7230487736813,0.6736842105263158,0.6881720430107527,0.890625,0.4,48.44130540672188,48.64224614979324,48.25188836997784,48.38709677419355,0.4503912662258466,0.5496087337741532,27.10364416239485,29.940532458040348,0.5722324191453962,0.4277675808546037,103.83652248872568,89.77756863304258,0.5625256149934722,0.4374743850065281,75.88356518190666,66.91953120551443,1.433852964879049,0.9038664755107826,1.6495610043758857,1.6860493602550348,-1.0548938819801563,-2.0548938819801563,-0.4596308117761207,0.0024912204715199,0.1165302846090951,0.6262515358869938,0.9604619501872924,6.3303304767292286,0.8016961005443894,1.0188744086469,0.9380638368718084,1.116105108870415,1.729074485931206,1.6853019282396358,2.387108494575332,0.5532509985962903,Stress,,,,,,,,,
01,98.19510127046496,611.3645833333334,87.0588572587131,,,,,,,55.79039721181981,56.07998007964592,0.1424008842384089,0.0912555269519125,596.5,68.19959999999999,0.1143329421626152,92.75,1.5604631192743816,540.0,655.0,30.20833333333333,68.75,479.0,856.0,13.714285714285714,125.0,,,0.0106653453212409,0.0016380774436422,0.0005170650453014,0.0128204878101847,6.51089199880951,0.8318985579291546,0.1277702898590951,-6.414232015277992,39.65453420312413,116.71779261578716,0.3397471226487236,14540.515077572769,2.943365619122358,4.869549901036771,1374.1725517006453,0.6979166666666666,0.7127659574468085,0.8955223880597015,0.4285714285714285,49.01526341703594,49.12102470602044,48.91869972822898,48.93617021276596,0.4765365546815288,0.523463445318471,27.37728908140484,28.69363114151129,0.5392102830131529,0.4607897169868472,85.70697131806759,79.22978089447075,0.5327232779444337,0.4672767220555663,63.62075482876193,59.58474070041318,1.3665353935276132,0.4695492288433838,1.4742022768747658,1.4153261711928398,-0.1893820860716264,-1.121988961286079,-0.625388568578746,0.0013088789139352,0.0466110691198939,0.5973307997648885,1.0843263314206333,6.327099089240286,0.8186892420387762,1.103483066259299,1.032231687207145,1.195413315961315,1.8087136605832024,1.733042493482128,2.65918841677213,0.7545269532076325,Stress,,,,,,,,,
01,96.6244484166787,622.021052631579,94.70098282391976,,,,,,,53.077322159841245,53.332020331012295,0.1522472308988082,0.0853304272183192,602.0,83.0256,0.1379162790697674,109.5,1.784208000146084,539.8,701.2,29.47368421052631,68.42105263157895,479.0,856.0,15.833333333333334,46.875,,,0.0147529930618656,0.002017185348322,0.0006513645824461,0.0174215429926339,7.313652696385723,0.8468247082421699,0.1157868363999094,-6.206052131162019,37.71143323043761,128.1208849660868,0.2943425909087321,15178.988804744204,3.397401636347197,4.888212950615634,1741.1124169361372,0.6421052631578947,0.6595744680851063,0.8709677419354839,0.375,52.16489499611098,51.91887163023357,52.41486573430607,46.80851063829788,0.5312725391496771,0.468727460850323,27.502688040669145,25.833107872758774,0.5535467892858298,0.44645321071417,95.32286739737124,85.60672938289619,0.5517690314511511,0.4482309685488487,70.15285774050545,63.229192537948855,1.404103535538034,0.5282644664040173,1.7416255209803984,1.4874443252925744,-0.2028632046774028,-1.2028632046774028,-0.9811627732943632,0.0013915458028418,0.0686065244377416,0.658141126055833,1.1939224684724346,6.39348837146607,0.8228934051870535,0.820674405912541,0.9708639010426496,1.1900433410667732,1.883865160215296,1.6903771556748055,2.590676264851971,0.5532509985962903,Stress,,,,,,,,,
01,94.41131588289817,636.516129032258,107.84022127195016,,,,,,,53.439929705759546,53.64429126819095,0.1694226058904548,0.0839569136873376,610.0,103.782,0.1701344262295082,172.0,2.01797086683532,539.4,765.8000000000001,29.03225806451613,64.51612903225806,479.0,915.0,15.5,46.875,,,0.0178283336895302,0.0021892744556386,0.000542015318707,0.0205596234638758,8.143489567336951,0.8671527336507592,0.1064841707575652,-6.1241850888404565,37.93224212768411,147.08478448514828,0.2578937193297127,17527.74858889379,3.8775663191763,4.950696245210516,2281.324025531663,0.6344086021505376,0.6483516483516483,0.864406779661017,0.2941176470588235,53.78625134264231,53.841277985471535,53.70540649360986,45.05494505494506,0.5312823518665126,0.4687176481334876,27.694070456715792,26.012359699628504,0.5703784109153277,0.4296215890846721,111.08343169940272,96.40749467197377,0.5679327755902265,0.4320672244097732,80.9521165151888,70.60824274144453,1.4438783663412196,0.3416662540901494,1.471693000103817,1.4177740374581058,0.0478621707103723,-0.9389207134653366,-0.6578117885516568,0.0006667878104915,0.0220911021060523,0.5989707972735445,0.989412996703118,6.367115800355344,0.7280582239777634,0.8301592259285009,1.059111380046457,1.256058881764572,1.8155800623475025,1.6512618089651363,1.93875039755455,0.5625082848264973,Stress,,,,,,,,,
01,91.69144502000825,655.4333333333333,113.89153621965026,,,,,,,58.17650400271168,58.25521935609513,0.1737652487712713,0.0887603682083787,632.0,133.434,0.211129746835443,204.25,1.9576895891568464,545.8,777.4,31.11111111111111,63.33333333333333,479.0,958.0,15.0,78.125,,,0.0134766398075376,0.0030676986409529,0.0009414363058174,0.0174857747543081,4.39307812952292,0.7707201995277531,0.1754396750534122,-5.7868276268489405,41.19266064620469,152.08822989678015,0.2708471304726308,19681.82301068303,3.692119603611788,5.00103543204556,2246.1117403220733,0.6,0.6136363636363636,0.8518518518518519,0.1666666666666666,56.38496400959745,56.16025153165028,56.73241715045815,44.31818181818182,0.5856530587176855,0.4143469412823142,31.659678255988755,26.629827773996723,0.6002494216697988,0.399750578330201,117.83152012107124,96.15904813949352,0.5992438217981079,0.4007561782018921,86.27456856256988,70.55391649783222,1.4411851527495485,0.9431370268090644,1.4411851527495485,1.7614476252975977,-0.6367453864094514,-1.1789153047434136,-0.1604284812869663,0.0008122805320952,0.0613550924625751,0.5591663913350078,0.9236708391717774,6.336297540774121,0.6983912529524424,0.6669091341338081,1.144373628450971,1.4448684259086988,1.8047314129157424,1.6512040318692909,1.8467504672276325,0.6491853096329675,Stress,,,,,,,,,
01,88.47333974845684,679.2413793103449,109.99375939139512,,,,,,,72.22437583749878,72.62593948571894,0.1619361875495207,0.1063309421914643,647.0,140.84699999999998,0.2176924265842349,180.5,1.522945101510819,574.0,793.8,35.63218390804598,66.66666666666666,494.0,954.0,17.4,125.0,,,0.0237292673343161,0.0039787708374342,0.0016925403155784,0.0294005784873288,5.963969352308356,0.8071020556463896,0.1353296786030599,-5.526782342200599,51.35429430039571,146.36905387273822,0.3508548627023723,23614.34499936008,2.8501813892438275,5.080146013839843,1668.7134132372228,0.6206896551724138,0.6352941176470588,0.8888888888888888,0.1666666666666666,51.758216501953584,52.187565535939626,51.38414932549661,47.05882352941176,0.4919049412960563,0.5080950587039434,36.02874669254114,36.61685564937354,0.5294766495346898,0.4705233504653103,106.5056559800949,100.40142018841276,0.5253563143901486,0.4746436856098512,79.50322428677222,75.56864195384644,1.203769232169818,1.0944522215541452,1.3888246623469274,1.5644013377622916,-0.1198480566881592,-0.6653401216507531,-0.3395757512684823,0.0003404149641348,0.0764226870404422,0.542028533164328,0.9555114450274363,6.259035449871717,0.8038069317542075,0.730454143029952,1.1068631686849826,1.444598414399616,1.7736186004618124,1.6961015727647808,2.017904077645818,0.6665113961222823,Stress,,,,,,,,,
01,87.18914312711058,689.2558139534884,101.92594613351422,,,,,,,75.6407142156843,76.07430762164086,0.1478782537195867,0.1097425842254681,659.5,114.9015,0.1742251705837756,167.75,1.3475011069155085,597.0,795.0,39.53488372093023,68.6046511627907,532.0,954.0,14.333333333333334,85.9375,,,0.0294349179109112,0.0060723487866349,0.0057023079016968,0.041209574599243,4.847369435645208,0.7142737627641504,0.1473528626705707,-5.104009798734358,53.79265879333371,133.6347021302677,0.4025351045486403,22583.545930118016,2.4842553822014923,5.060762243165363,1327.930912064043,0.6395348837209303,0.6547619047619048,0.8909090909090909,0.1875,51.39459459459459,51.63591004144011,51.16661663524622,47.61904761904761,0.4986480345609659,0.5013519654390342,37.99334214857976,38.09621278515003,0.5139640607908684,0.4860359392091314,95.80443761391416,93.16514019163502,0.5118276484703191,0.4881723515296807,72.87655423432635,71.17255361267586,1.3661260092446506,0.7457764617873801,1.3709577797771937,1.7211129996170604,0.0594836962956151,-0.9047138226618244,-0.0304823391708284,0.0004002827094004,0.0478664165570866,0.5203795995258713,1.0340737675305385,6.1704508012137245,0.9014745101797764,0.6243746143027684,1.03903680521298,1.5409200113430237,1.8064527861922264,1.650709577669891,2.189268627081185,0.7472400877560579,Stress,,,,,,,,,
01,83.73230994112029,717.8658536585366,112.32500927452234,,,,,,,80.56850470635088,80.93725469479962,0.1564707510491944,0.1122333710340741,697.5,117.1254,0.1679217204301075,175.5,1.3941553176879082,619.2,813.0,43.90243902439025,71.95121951219512,540.0,997.0,13.666666666666666,78.125,,,0.0348051483696832,0.0089037394970874,0.0030765206868175,0.0467854085535882,3.909048370189693,0.7439316967771537,0.1903101794417174,-4.721283922277917,57.23128164531555,146.0567500268134,0.3918427709421777,26260.62010577186,2.5520440190730613,5.12627508705932,1490.973021404713,0.5975609756097561,0.6075949367088608,0.875,0.1176470588235294,53.905597326649946,53.72708370307004,54.101329647344976,46.83544303797469,0.5373606393378395,0.4626393606621605,42.022389865403895,38.99142533942559,0.4681243479310509,0.5318756520689493,99.93146351554238,106.51890361826338,0.4773662804756878,0.5226337195243123,76.65565422836784,80.20788015537153,1.4233753684831003,1.3324210166729171,1.467398310133363,2.0895858768195588,-0.8541835958446224,-1.866065970048,-0.0330398133168064,0.0024248050759585,0.1901340415297233,0.4974179093312787,1.1468143904859875,6.162430053398571,1.0028352543088206,0.9086149943285756,0.8735264921180148,1.0846531241887982,1.7780200829444388,1.603314953165531,2.243838060319384,0.8528423420829138,Stress,,,,,,,,,
01,80.59405377629238,745.379746835443,115.23023817418184,,,,,,,82.89304198939988,83.31951267344998,0.1545926605376643,0.1112091418385427,745.0,136.39919999999998,0.1830861744966442,183.0,1.3901074856067794,633.6,839.4000000000001,40.50632911392405,72.15189873417721,555.0,997.0,13.166666666666666,78.125,,,0.0395066096317004,0.0079548160145182,0.006028309592972,0.0534897352391908,4.966376288225595,0.7385830095258132,0.1487166832841208,-4.833977745741658,58.91579241655497,150.62959776974685,0.3911302512180504,27879.944981876884,2.5566930629523514,5.152262022354375,1540.454590772859,0.6075949367088608,0.618421052631579,0.8936170212765957,0.1875,53.49620893007582,53.65192855890223,53.34673063392788,44.73684210526316,0.5183241970452908,0.4816758029547092,42.47229807646513,40.9432613423827,0.530767586430934,0.469232413569066,109.73938269390712,103.18208958068216,0.5291127581647335,0.4708872418352663,83.20645473139662,78.49488601044837,1.3366714484098103,1.4533946824658412,1.5227932581476775,2.010328242701995,-0.9252344307011492,-1.8248428781880293,-0.1645543083127553,0.0013456407387094,0.176447702653726,0.4537776200057788,1.0001722158548572,6.126565558303684,1.011210706034514,0.697982921270728,0.792590235206271,0.98657049135821,1.782900489068125,1.6182434486711992,2.1975389802430256,0.7979469301490004,Stress,,,,,,,,,
01,79.37191425901482,756.7948717948718,119.0238826819418,,,,,,,86.97364879327293,87.52484267980378,0.1572736379669906,0.1149236761964304,760.5,151.2252,0.1988497041420118,188.75,1.368505108539816,636.0,855.6,42.30769230769231,74.35897435897436,569.0,1000.0,13.0,70.3125,,,0.0205974778360341,0.0041821696388502,0.0036602584282592,0.0284399059031435,4.925069907421764,0.7242456394258823,0.1470528648404544,-5.476925114750041,61.88940978117501,155.92916986580028,0.3969071972514177,30317.513560012027,2.519480641633611,5.188663690449311,1571.442099771531,0.6666666666666666,0.6799999999999999,0.9215686274509804,0.1875,51.412429378531066,51.214736235674295,51.62023433038111,48.0,0.5090237956254507,0.4909762043745492,44.16521017128396,43.37519907431944,0.4892997608945458,0.5107002391054541,109.07239980659796,111.43212111176578,0.491985126668965,0.5080148733310349,83.2086359371551,84.55331309358634,1.300262426387327,0.5701359003330577,1.4810197026771237,1.585330376553856,0.4538666414128833,-0.5406538901160971,-0.3170424388013507,0.0007476650098769,0.0432376590546366,0.3963966317014744,0.9634375102998568,6.080274013734044,1.0076194144092925,0.7313919030965547,0.8078435068677176,0.9888751349793096,1.72106049609946,1.6464338600701152,3.2496258764166197,0.8058207972900319,Stress,,,,,,,,,
01,78.12816469317916,769.7922077922078,120.44755767141518,,,,,,,95.24138308861112,95.86233184450847,0.156467623927843,0.1237234959311511,775.0,143.8122,0.185564129032258,188.0,1.2646556965615738,636.2,873.8,44.15584415584416,75.32467532467533,569.0,1023.0,15.4,70.3125,,,0.0155675045999084,0.0047798235512681,0.0039469549583854,0.024294283109562,3.2569203513335534,0.6407888032629885,0.1967468449145881,-5.343351647120758,67.78490490760706,156.85867703574294,0.4321399758596784,33403.45672035344,2.31406501564834,5.230761521590586,1451.9247077171774,0.6883116883116883,0.7027027027027026,0.9423076923076924,0.1666666666666666,51.05204872646733,50.98441735304594,51.10684742808685,45.94594594594595,0.4974049522041227,0.5025950477958775,47.81255065356794,48.06134968280992,0.5224929146787977,0.4775070853212024,113.38321062451682,108.39230650687328,0.5185442735451041,0.4814557264548958,87.01089716674441,83.84147375617063,1.182474279348472,1.6137897690469396,1.3852031925978276,1.9893691638719415,-0.6983336429588753,-1.7013860580241271,-0.1256228767450186,0.0046142326980875,0.3170258546278577,0.4519282202388925,0.9946225751440622,6.084968358876722,1.021771099441637,1.1463611474487134,0.7616288773216094,0.9093973629727996,1.7208046420494796,1.670920655465146,3.5080598743129108,0.9766420582901144,Stress,,,,,,,,,
01,78.40800203289771,768.038961038961,122.89238355467135,,,,,,,104.63413702792673,105.27436751717084,0.1600080071308222,0.1362354546263947,775.0,149.74259999999998,0.1932162580645161,207.0,1.174496077908795,636.2,875.6,49.35064935064935,76.62337662337663,569.0,1023.0,15.4,78.125,,,0.0118296025891615,0.0086562651586596,0.0031749422541917,0.023660810002013,1.3665942958467854,0.4999660868818577,0.3658482172809472,-4.749471924415157,74.44021915651629,156.9076326232685,0.474420637874548,36694.551651663554,2.1078341036766446,5.271571695650578,1322.9410366819657,0.7272727272727273,0.7432432432432432,0.9636363636363636,0.2352941176470588,52.12502067140733,52.15237448247591,52.0779188098855,44.5945945945946,0.5204892370963536,0.4795107629036464,53.7329197668121,51.57434762877116,0.5207098945118541,0.4792901054881459,113.22491023526553,108.62837970647756,0.5206693199871949,0.4793306800128051,88.62027692478341,85.02951902424238,1.1969912881615832,0.7108167130583682,1.261701191215293,1.5523996446907673,-0.0243838917251917,-1.015293105552856,-0.091035989819778,0.000446831035257,0.0452151514815876,0.4316651521136916,1.0541605260972755,6.110942384850747,1.0388838817541066,1.048500025048789,0.8554594552252061,0.9600157904286926,1.728646562408787,1.6914095691799245,2.737781346532079,0.9766420582901144,Stress,,,,,,,,,
01,77.25088774034953,777.8026315789474,115.4149637596838,,,,,,,98.8257726169309,99.49083528801188,0.1483859260354908,0.1270576475375424,775.0,123.7971,0.1597381935483871,158.25,1.167863004795885,678.0,874.0,46.05263157894737,73.68421052631578,569.0,1023.0,19.0,132.8125,,,0.0239255515100178,0.0121069497069845,0.0061988387137014,0.0422313399307038,1.9761832739930485,0.5665354580100126,0.2866816380169431,-4.413975635309558,70.35064429806704,148.08825162810948,0.4750589160491741,32729.43872373606,2.1050020665152367,5.221908667629271,1246.9043028151953,0.6842105263157895,0.6986301369863014,0.9607843137254902,0.2,50.198771232381645,50.24489710907061,50.15390849015352,45.20547945205479,0.4780461166705349,0.5219538833294652,48.64126820892906,50.82601483279781,0.5455743320044365,0.4544256679955635,109.38243082402664,99.82792243304122,0.5331404742056338,0.4668595257943664,84.64776767861615,79.2114192559415,1.2735423905782093,1.1905080545086366,1.6143219937712168,1.868796417832528,-0.0962599327907902,-1.0936867314128556,-0.2862472050503336,0.0031449798979899,0.1912450065223675,0.5058160388873372,1.5141277326297755,6.09003277660148,1.038503873027751,0.9381819303424354,1.2131381752928587,1.5012428230240773,1.6799094118375046,1.6481225740461285,2.930341910755536,0.986514870543724,Stress,,,,,,,,,
01,76.02065727195959,792.9066666666666,112.4864163971538,,,,,,,110.65144934994407,111.31788453790044,0.1418658981264972,0.1395516698265589,794.0,117.1254,0.1475130982367758,155.0,1.0165833078372657,695.2,876.8,49.333333333333336,78.66666666666666,569.0,1028.0,18.75,195.3125,,,0.0238937490754333,0.0066237365388715,0.0061345798946586,0.0366520655089635,3.6072915846232982,0.6519073002745214,0.1807193250064365,-5.017095636411251,78.71363102409053,136.28133434853743,0.5775818926367541,33700.48852704391,1.7313562158862692,5.234606306472941,943.8061413344608,0.7333333333333333,0.7464788732394366,0.981132075471698,0.2222222222222222,52.68076733890802,52.42003216984611,52.9573129709728,46.478873239436616,0.5566450376750618,0.4433549623249381,58.77406239965809,52.453240755490256,0.5195747742108474,0.4804252257891527,98.2336782288242,94.460290881691,0.5288590200256059,0.471140979974394,80.94518499985985,76.40055307131978,1.0993500550451247,1.296419145007095,1.1198441279718463,1.735894108087815,-0.1994408885576657,-1.1761098496359512,-0.0248064775280704,0.002846987928263,0.2041193448359533,0.4663676132927876,1.9218125974762528,6.015485357162548,1.1329295844953344,1.177732644013708,1.2444983403259693,1.3864570421154,1.807929360609192,1.7120137905065118,3.123085443021912,0.9966109904793408,Stress,,,,,,,,,
01,74.90324827955475,802.5342465753424,121.49852333256528,,,,,,,123.00287937009172,123.85209940645552,0.151393568375476,0.1532680753438029,809.0,115.6428,0.1429453646477132,166.0,0.9877697494137504,696.4,893.6,57.53424657534247,86.3013698630137,569.0,1184.0,18.25,164.0625,,,0.0128640020431263,0.0104792199882878,0.0033980196710914,0.0267412417025056,1.2275724774843717,0.4810547762230862,0.3918748465336218,-4.558361031457672,87.57665935449508,148.36343492376656,0.5902846573988699,40819.25998829739,1.69409790253836,5.317835237095587,1005.3687356709576,0.726027397260274,0.7428571428571428,0.9807692307692308,0.2352941176470588,50.96981187108064,50.95924125296389,50.94990643209966,47.14285714285714,0.4701741147613368,0.5298258852386631,60.05742557084163,63.7534865105707,0.5457789845924914,0.4542210154075088,109.60624110981745,99.9909032470218,0.5262394114009307,0.4737605885990691,88.37539945148937,83.85310898949662,0.9990540617009076,0.8552503235187858,1.0199341273326432,1.4145648068850467,0.1061803968614718,-0.8036018055740417,-0.0385787427372597,0.001168037163856,0.084974750420248,0.4342968485875396,1.845826690498331,5.960305552001065,1.2146306487456653,0.9892815348428052,1.02089879380436,1.1327481705931874,1.8996078399840428,1.7592931965157954,3.0904963389730744,1.017505406939181,Stress,,,,,,,,,
01,77.72917963326884,774.8947368421053,136.51476881738165,,,,,,,127.94920867281672,128.80941295132456,0.1761720170841711,0.1651181800437083,768.0,154.93169999999998,0.2017339843749999,189.75,1.0669450028914849,661.0,890.0,56.57894736842105,84.21052631578947,400.0,1023.0,19.0,328.125,,,0.0219757068329876,0.0101763377843039,0.0026380475046623,0.0347900921219539,2.1594907027244314,0.6316656695231954,0.2925067789022109,-4.58769007872303,91.0820093785399,171.30592359711164,0.5316921182057455,49017.917497738425,1.8807877073194383,5.397324966481024,1288.760301169802,0.6973684210526315,0.7123287671232877,0.9615384615384616,0.2222222222222222,49.69038117517544,49.83209583378433,49.615824665478286,47.94520547945205,0.4651371327347136,0.5348628672652861,62.11949034788583,66.61294006260184,0.5741642927765459,0.4258357072234541,129.8047158598618,111.78754492339472,0.5501351279036599,0.4498648720963399,101.75484101638736,92.01559374308188,1.0938915652053685,0.5977239051994725,1.218320590147493,1.0470453651672489,0.877939728713435,0.9102434269896094,-0.7865457169946818,0.0003159947424342,0.0193830940053726,0.4686421966731999,1.3862943611198904,5.984769618706744,1.212987721434839,0.7729488962822751,1.0906258114995933,1.2134495325641237,1.8046648531210387,1.7157335890665877,3.5144169304750488,1.0687244430890344,Stress,,,,,,,,,
01,80.1586868980371,751.1518987341772,148.8404832412096,,,,,,,120.34634846867432,121.04721560171636,0.1981496465522245,0.1602157282321712,751.0,180.8772,0.2408484687083888,241.0,1.236767755192441,614.4,882.4000000000001,56.9620253164557,83.54430379746836,400.0,1023.0,19.75,578.125,,,0.0244997959413336,0.0144571470103042,0.006962996741227,0.0459199396928649,1.6946494300619297,0.5335328422728839,0.314833754290636,-4.236566383910116,85.59330699572368,191.85437267977585,0.4461368578686892,51589.507370092695,2.2414646590224754,5.4195314907625685,1720.1391841625789,0.7088607594936709,0.7236842105263158,0.9636363636363636,0.3333333333333333,47.61837455830389,47.82365689231468,47.51716196190458,48.68421052631579,0.4379446451381038,0.5620553548618962,56.6799513330497,64.21099553855203,0.54711820539691,0.4528817946030901,141.909766362823,129.11126413756196,0.5289760961333816,0.4710239038666181,108.0532245522268,101.96266590093464,1.0869507223105928,0.6551120601874609,1.3960122228701222,1.1301456981592626,0.7850980679560076,0.58782466803126,-0.9058336594120732,0.0002917195547081,0.0261646242243914,0.4880809917051603,1.349926716949016,6.117010020301616,1.1120859316623284,0.7392118581987823,0.9908410945139344,0.9862901860655564,1.805547262088277,1.7075433427157245,2.514459804653008,0.8777416231639004,Stress,,,,,,,,,
01,82.50865991919258,730.0246913580247,156.7111973750314,,,,,,,117.43918639023347,118.17676030935688,0.2146656123144412,0.1608701565583594,716.0,189.7728,0.2650458100558659,253.0,1.3344029551967662,573.0,879.0,53.086419753086425,83.9506172839506,400.0,1023.0,20.25,578.125,,,0.0123198038653388,0.0124696738569582,0.0046717200734608,0.0294611977957578,0.9879812420646626,0.4181705017815925,0.4232575315981794,-4.384455673845674,83.5635885934035,205.3238949066091,0.406984236449499,53902.19477023839,2.457097623052744,5.438576558955538,2018.0034165238424,0.7037037037037037,0.717948717948718,0.9642857142857144,0.3157894736842105,49.48986923408536,49.55515632867844,49.47861105483173,48.71794871794872,0.4511504436007564,0.5488495563992435,56.12937135862046,61.909335505921966,0.516672268088344,0.4833277319116557,147.58664828157364,142.74481800973135,0.5073612017196213,0.4926387982803787,111.6519706053208,110.02010927874989,1.1258969615004482,0.6304589996150756,1.1978604997155138,1.1792330620206009,0.6661198692266339,0.4424143709462385,-0.5295458351871983,0.0001559897780466,0.0206149739798665,0.594652224775738,1.280933845462065,6.157690897919643,1.009726466160351,0.6087519683238437,1.022256868030554,1.0959586405322597,1.7981711172865884,1.735142374184594,2.8443844557353133,0.7044277780982916,Stress,,,,,,,,,
