PPG_Rate_Mean,HRV_MeanNN,HRV_SDNN,HRV_SDANN1,HRV_SDNNI1,HRV_SDANN2,HRV_SDNNI2,HRV_SDANN5,HRV_SDNNI5,HRV_RMSSD,HRV_SDSD,HRV_CVNN,HRV_CVSD,HRV_MedianNN,HRV_MadNN,HRV_MCVNN,HRV_IQRNN,HRV_SDRMSSD,HRV_Prc20NN,HRV_Prc80NN,HRV_pNN50,HRV_pNN20,HRV_MinNN,HRV_MaxNN,HRV_HTI,HRV_TINN,HRV_ULF,HRV_VLF,HRV_LF,HRV_HF,HRV_VHF,HRV_TP,HRV_LFHF,HRV_LFn,HRV_HFn,HRV_LnHF,HRV_SD1,HRV_SD2,HRV_SD1SD2,HRV_S,HRV_CSI,HRV_CVI,HRV_CSI_Modified,HRV_PIP,HRV_IALS,HRV_PSS,HRV_PAS,HRV_GI,HRV_SI,HRV_AI,HRV_PI,HRV_C1d,HRV_C1a,HRV_SD1d,HRV_SD1a,HRV_C2d,HRV_C2a,HRV_SD2d,HRV_SD2a,HRV_Cd,HRV_Ca,HRV_SDNNd,HRV_SDNNa,HRV_DFA_alpha1,HRV_MFDFA_alpha1_Width,HRV_MFDFA_alpha1_Peak,HRV_MFDFA_alpha1_Mean,HRV_MFDFA_alpha1_Max,HRV_MFDFA_alpha1_Delta,HRV_MFDFA_alpha1_Asymmetry,HRV_MFDFA_alpha1_Fluctuation,HRV_MFDFA_alpha1_Increment,HRV_ApEn,HRV_SampEn,HRV_ShanEn,HRV_FuzzyEn,HRV_MSEn,HRV_CMSEn,HRV_RCMSEn,HRV_CD,HRV_HFD,HRV_KFD,HRV_LZC,Labels
74.35095501743635,811.027397260274,149.69078987131547,,,,,,,170.3228551897836,171.4860843120399,0.18456933807289974,0.2100087565045892,845.0,83.0256,0.09825514792899408,132.0,0.878864963275312,730.6,902.6,64.38356164383562,83.56164383561644,301.0,1143.0,10.428571428571429,578.125,,,0.040603932447990064,0.13088418091744303,0.047140301111344374,0.21862841447677747,0.31022796004355596,0.18572120437850487,0.598660431356444,-2.033442461975305,121.25897309617142,174.12474589281632,0.6963913858103385,66332.17752276617,1.435974109352853,5.5286943643172926,1000.1545075989152,0.6027397260273972,0.625,0.8444444444444444,0.2777777777777778,48.628948281846576,49.45933426322527,48.09760640691668,37.5,0.36569396149108235,0.6343060385089179,73.34219430033936,96.59272710498169,0.7534269127688461,0.2465730872311538,151.14057159201818,86.46360362069059,0.6267685989914069,0.3732314010085931,118.79088737346544,91.66817790447611,0.8712560920424348,1.8447693106466123,0.928549067797479,1.793640747365741,-1.2531131959968835,-2.259901521280794,-0.031056986596856594,0.005861491935433022,0.40523292116523135,0.6158263690228272,1.4469189829363254,6.0254409972361795,1.234256527035696,1.3206339459209364,1.083538586910495,1.27066845678265,1.6192444204323775,1.9195878611455022,2.6550675831092314,1.017505406939181,Relax
74.3010605444966,812.9166666666666,152.65488555728257,,,,,,,177.62704241523332,178.8899575197234,0.18778663523192116,0.2185058440781958,846.0,83.0256,0.09813900709219858,137.0,0.8594124153709991,726.8000000000001,903.8,66.66666666666666,86.11111111111111,301.0,1143.0,12.0,585.9375,,,0.021739983930265154,0.11382504461759178,0.024739155963451886,0.16030418451130882,0.19099473233946984,0.1356170707367373,0.7100566024810281,-2.173092705777254,126.49430204836983,176.58825120255494,0.7163234314114985,70175.0355718197,1.3960174359081392,5.553152751412779,986.0811106211726,0.625,0.647887323943662,0.8695652173913043,0.375,49.73038406514801,50.46477441503203,49.25039766973192,39.436619718309856,0.40003758681907925,0.5999624131809208,80.00638367387585,97.97973551417951,0.7398468560099072,0.2601531439900926,151.89123803087443,90.06920823580552,0.6246117753613676,0.37538822463863236,121.39186467618657,94.10762679946156,1.0057262983473805,0.5595082979833714,1.0152304021825476,1.2387044828270901,0.04155983218145476,-0.7893132664528837,-0.1005884426557974,0.00029169548777600987,0.024915407038286017,0.6154227233965388,1.5773495978826,5.937218230578931,1.3045523615202324,1.2265708568514837,1.2044046199921774,1.4935158150403154,1.667860982608474,1.8779436148955977,2.8018148353115104,1.1997076391693386,Relax
70.82488344796442,849.8550724637681,94.40623660890438,,,,,,,146.0782928674169,147.16430154956288,0.11108510105754438,0.17188612223485278,859.0,54.856199999999994,0.06386053550640279,74.0,0.6462714942499298,802.4,903.4,55.072463768115945,82.6086956521739,597.0,1143.0,9.857142857142858,281.25,,,0.033698848920384473,0.0906548517369007,0.02782392194748518,0.15217762260477036,0.371726921115988,0.2214441804489598,0.5957173609706459,-2.40069582157092,104.06087557427784,84.96242713965349,1.2247869920574666,27775.651787212235,0.8164685014494998,5.1506343689074905,277.47658226490074,0.6666666666666666,0.6911764705882353,0.9361702127659575,0.3333333333333333,49.919437527464495,50.162301091160764,49.68486788345092,42.64705882352941,0.4145955702208687,0.5854044297791311,67.00389830494716,79.61882137043922,0.7810414666669461,0.21895853333305387,75.08686227129613,39.756472928472135,0.5611677718586922,0.4388322281413078,71.16023915715958,62.92747355539648,0.5045696803145338,1.5719114157017746,0.8103208269591772,0.9657254972573422,-0.35696906494999503,-0.5953941787739774,-0.4011364961499531,0.0007208600740843423,0.16077484110353576,0.5343683530451973,1.6274564179367785,5.8476548915607784,1.401372238383119,1.0021582100978577,1.17123230496907,1.4028823988379506,1.763433894540298,1.9548558166203425,3.9025195377201,1.4164694392529087,Relax
70.24024836997845,856.5147058823529,97.24188837705736,,,,,,,145.87799031965545,146.96675798000487,0.11353207097230399,0.17031580347400668,868.0,60.7866,0.07003064516129032,81.5,0.6665973952888703,811.4,910.6,50.0,82.35294117647058,597.0,1143.0,9.714285714285714,289.0625,,,0.02449337032627301,0.07935808464216901,0.04727384589337675,0.15112530086181877,0.3086436679604262,0.1620732609734785,0.5251144857255237,-2.5337849513500887,103.92119117666358,90.41681334622012,1.1493569318654606,29519.10497656335,0.8700517413480535,5.1770732954423195,314.669223596083,0.6911764705882353,0.7121212121212122,0.9574468085106383,0.4375,50.95861229458307,51.14509998021886,50.772464857809794,40.909090909090914,0.41538281340958616,0.5846171865904138,66.98298065157819,79.4650199392122,0.7863356373326477,0.2136643626673523,80.17762286957611,41.794125504300624,0.5751907928150239,0.42480920718497606,73.87547260757684,63.48794499985262,0.5215758320820917,1.4483643034150269,0.8768437507195062,0.90600378400343,0.09963024072808402,-0.11894002208646115,-0.4798669207635339,0.001113690147041811,0.16122940799027205,0.5672321243496379,1.8101086078962516,5.852168723603281,1.3218764005913697,0.9793803821919426,1.2594698466845726,1.5436481058913796,1.7141215895259054,1.948771717961534,3.854429288297169,1.3428226855699277,Relax
70.17357556821145,858.0735294117648,98.69072998196059,,,,,,,146.13957752574416,147.24209105606226,0.11501430425154363,0.17031125249362633,868.0,60.7866,0.07003064516129032,81.5,0.6753182926409862,811.4,910.6,52.94117647058824,83.82352941176471,597.0,1143.0,9.714285714285714,289.0625,,,0.01763294088531754,0.07200327817309644,0.026043347559176182,0.11567956661759017,0.24489080681754258,0.15242917483956311,0.6224373091846254,-2.631043630820654,104.11588106182873,94.31289763033537,1.1039410693319667,30848.77617218181,0.9058454547806025,5.196208049410114,341.73163858251024,0.7058823529411765,0.7272727272727273,0.9583333333333334,0.35294117647058826,49.82148170187444,50.05881817251597,49.594744508333896,43.93939393939394,0.41898897480194336,0.5810110251980565,67.39374352762033,79.3616100612579,0.7587960200568343,0.24120397994316556,82.15492628375324,46.3194424269247,0.5721453662515352,0.4278546337484647,75.13770218523986,64.9759797858268,0.5021934197634027,1.8890216902857346,0.9140208360588464,0.986236615931778,-0.3001977538595728,-0.22156591579176999,-0.46177080430346557,0.0012236615092480533,0.24422722946902517,0.5256613804721244,1.7346010553881064,5.782243907394995,1.297659554867141,1.069455380418721,1.2991617261347554,1.5534784968062687,1.7241390232603533,1.9803732427322878,3.7595627954439217,1.1637796608272708,Relax
70.14052028544317,858.5942028985507,91.59394387258743,,,,,,,125.12822834761053,126.0197970358297,0.10667896843860933,0.14573616724313634,868.0,59.303999999999995,0.06832258064516128,81.0,0.7320006451153156,815.6,913.4000000000001,53.62318840579711,84.05797101449275,597.0,1062.0,8.625,281.25,,,0.03285756045964877,0.06409257908145022,0.037109429268503635,0.13405956880960263,0.5126577979939406,0.24509671895420268,0.47809029710126366,-2.7474266927177027,89.10945304778755,91.97958210941137,0.9687960197708906,25749.27958285667,1.0322090301697242,5.117735192753883,379.7686209782881,0.6811594202898551,0.7014925373134329,0.9574468085106383,0.2777777777777778,51.73377156943303,52.089886936805875,51.39860308530475,43.28358208955223,0.4410090909859387,0.5589909090140615,59.194468277254295,66.64379582817936,0.7350848619997504,0.26491513800024985,78.86061719308972,47.341805847970235,0.5926615132941818,0.4073384867058183,69.72439321608293,57.804161196815954,0.560576710901089,1.890239996538803,0.964779625427809,1.0875317717650885,-0.3520782317847235,-0.37770929852575574,-0.43506002065237775,0.0013598283009912176,0.25248721869874086,0.5140323449378275,1.6274564179367785,5.8077289857323215,1.3760556855293138,1.2103267687195571,1.0502100380367991,1.1787889473878321,1.7334829672320329,1.9537685801585585,2.785633713118239,1.1508814193929884,Relax
70.57173111227588,859.8529411764706,113.52023485953355,,,,,,,145.9424850933541,146.9857892871773,0.1320228488190231,0.16972958758932918,869.0,51.149699999999996,0.058860414269275026,68.0,0.7778422766127272,822.8,920.0,52.94117647058824,82.35294117647058,301.0,1062.0,7.555555555555555,578.125,,,0.038206083099033304,0.10664231291827948,0.04941627094948085,0.19426466696679362,0.3582638265573892,0.19667026276870003,0.5489537268066779,-2.2382749143157596,103.93464834302007,119.81972173590704,0.8674252187974612,39123.57480467782,1.1528371303134712,5.299408640305751,552.5304966439269,0.7058823529411765,0.7272727272727273,0.9791666666666666,0.2777777777777778,47.96687860416976,48.30756749745061,47.851921846818335,45.45454545454545,0.3862886085742095,0.6137113914257906,64.62314999403475,81.45434675976847,0.6474911709618971,0.3525088290381029,96.41513908739591,71.13990913424257,0.5352899016973769,0.46471009830262316,82.0732312035825,76.47122752280394,0.4205739523940941,2.224809816781148,0.8629035934757552,0.8516071754838502,-0.4132313300559982,0.2045719513746458,-0.5050774757944247,0.0010751907889088002,0.3025396776450807,0.6365677163662116,1.4929040961781488,5.752832142689113,1.1426694069284251,1.0966588322996715,0.9541370603489919,1.0419750062590125,1.534762711311335,1.984975319661147,2.407119896605277,1.253301173198599,Relax
69.89469001392676,862.8529411764706,92.95597813921052,,,,,,,121.85598301689961,122.71291136637112,0.10773096283645762,0.14122450906959086,868.5,51.149699999999996,0.05889430051813471,67.25,0.7628347483464879,816.8,914.2,51.470588235294116,83.82352941176471,540.0,1062.0,8.5,343.75,,,0.02629550029475574,0.11937587324324463,0.042114207578780365,0.18778558111678073,0.2202748309214465,0.14002938957492697,0.6357030850468054,-2.1254781650813417,86.77113176630478,93.63329551954659,0.9267123546686521,25524.394233073825,1.079083487947619,5.1139255537920345,404.15257246904997,0.7058823529411765,0.7272727272727273,0.9791666666666666,0.35294117647058826,47.78400407539481,47.45190319900406,48.06004493201349,46.96969696969697,0.41998240985048385,0.5800175901495164,56.26169912008336,66.11772100052323,0.5161370215942069,0.48386297840579306,67.26866591739186,65.13156389604866,0.4716874902626245,0.5283125097373754,62.00988712368563,65.62649482430133,0.7461096300460957,1.3878390668869292,1.018429674133301,1.2516928019914513,-0.2370688431437955,-0.8548560010375781,-0.3319235036513387,0.0009068093910854715,0.1494412408824225,0.5111407542022595,1.6451559950361798,5.752832142689113,1.3352027002168798,1.4062500704178316,1.2244529883325228,1.320694437998279,1.7922130523150535,1.9463392935394854,3.425038693437638,1.1637796608272708,Relax
71.88265689703803,839.1285714285714,128.6784467193458,,,,,,,152.81252130197535,153.93153724486666,0.15334771225853702,0.1821085903937465,866.5,62.2692,0.07186289671090594,78.75,0.8420674276099548,779.8,908.4,57.14285714285714,84.28571428571429,346.0,1062.0,8.75,531.25,,,0.021698111659896872,0.0419631319119503,0.02923032951376303,0.0928915730856102,0.5170756011592562,0.2335853612889038,0.45174315083755207,-3.1709638578212354,108.84603382431483,147.30689673053982,0.738906570161618,50371.57864091398,1.3533510735752075,5.409155671784252,797.4317873412331,0.6857142857142857,0.7058823529411764,0.9583333333333334,0.2777777777777778,50.180698701646364,50.451884442280104,49.98801604792171,45.588235294117645,0.4353753107030811,0.5646246892969189,71.82008771924468,81.78882420420214,0.6740448730127171,0.3259551269872829,120.93930967050207,84.1011605199615,0.589755418410865,0.4102445815891351,99.4596441366487,82.95304987012295,0.6113171561171886,1.7533854943156815,0.9497863018490644,1.1839235669162527,-0.40851470663276146,-0.6791137445106972,-0.3664656084892682,0.0014842804573241015,0.2308489845220071,0.6181247814396227,1.4929040961781488,5.900711588373539,1.173758775352923,1.1437733611445422,0.9502689598678143,1.0458702355369291,1.5663132504904684,1.9651013949313163,2.6950422412275534,1.1382954174326365,Relax
72.1762033879523,836.4788732394367,130.34074674317856,,,,,,,153.0,154.05645223810157,0.15582072771115807,0.18290958073749788,866.0,65.2344,0.07532840646651269,97.5,0.851900305510971,779.0,908.0,56.33802816901409,83.09859154929578,346.0,1062.0,10.142857142857142,539.0625,,,0.010716814895288715,0.03559119967684754,0.027774726596228667,0.07408274116836493,0.30110856033493355,0.14466007502250802,0.48042498314095616,-3.3356568717716826,108.9343620631031,147.91914863925322,0.7364453018099324,50621.98440368429,1.3578740981065935,5.4113092756492565,803.4223222048845,0.6619718309859155,0.6811594202898551,0.9148936170212766,0.2777777777777778,51.77436440677965,52.12072236988735,51.46607117428669,43.47826086956522,0.45229368435827505,0.5477063156417252,73.28433804639673,80.64450528017429,0.6801345425330292,0.31986545746697065,121.9893211878831,83.6581140731787,0.5999841710214212,0.40001582897857896,100.62799979821484,82.1651272808758,0.7456541742664767,1.2779475806900282,0.9807396977637945,1.1900451480479266,-0.16142934814167376,-0.6304259361627245,-0.3362174994915539,0.0009663167554908003,0.12334922175385388,0.5944902244242214,1.4744016286301573,5.952564020913135,1.1669782151588581,0.8328081085636206,1.0131606839499487,1.0233055426059638,1.7243736898419406,1.8848952410500097,3.017456317231741,1.126010035965646,Relax
72.72064772656559,829.8142857142857,135.66842496355258,,,,,,,159.26484186747703,160.43133993630917,0.16349251549311689,0.19192829601672307,865.5,68.9409,0.07965441941074523,117.0,0.8518416454803074,766.6,905.6,60.0,84.28571428571429,346.0,1062.0,11.666666666666666,570.3125,,,0.010106923046673499,0.048198271802459204,0.015059802726303492,0.07336499757543619,0.2096947186840383,0.13776219424366837,0.6569654930186597,-3.0324321132891416,113.4420883838084,156.06392005865746,0.72689503340151,55619.43810502792,1.3757144485091521,5.452196707055224,858.7975588626895,0.6571428571428571,0.6764705882352942,0.9130434782608695,0.2631578947368421,49.867273416761485,50.18055595061253,49.63749764688164,45.588235294117645,0.4368351136009782,0.5631648863990218,74.9779869655872,85.13199094554844,0.6640066502381654,0.33599334976183454,127.17118728908315,90.46234723662631,0.5854707843639945,0.4145292156360056,104.389198210176,87.83761196068826,0.6662449355635911,1.4787742551834628,1.0764820577113485,1.259879178000732,0.3466152452520488,-0.35201819067897766,-0.3759803129879142,0.0039517091982782205,0.28041679378631423,0.5405961591038562,1.5712166996139028,5.986425874087824,1.1998051328412167,1.411317155444616,0.9711148579995009,0.9937718182100326,1.6842810619499464,1.8981588672594163,2.672631119777386,0.8756118595635667,Relax
72.97272250224451,826.6619718309859,134.3181663771267,,,,,,,158.00311931821383,159.14251396642192,0.16248257565256496,0.19113389112148269,859.0,75.6126,0.08802398137369034,110.5,0.8500981939895356,771.0,900.0,59.154929577464785,81.69014084507043,346.0,1062.0,7.888888888888889,531.25,,,0.021172006474451898,0.053033785921550114,0.012628836991334401,0.08683462938733641,0.39921733111361224,0.24381985187052035,0.6107446567772687,-2.93682609830992,112.53075080073178,154.4984555726274,0.7283616550317733,54619.18701797017,1.3729443238694068,5.4443153415356065,848.4711105001139,0.6197183098591549,0.6376811594202899,0.8863636363636364,0.2,49.70241863998989,50.0326544493976,49.46001978537795,47.82608695652174,0.4365914775494136,0.5634085224505865,74.3554428677415,84.46695606369786,0.6614144197233184,0.33858558027668173,125.6495599214698,89.89972672855065,0.5834846255983174,0.41651537440168285,103.23890689201673,87.22564855744768,0.7001822228670155,0.9931701709134533,0.9140769856707175,1.0805713764366098,0.17675999355459382,-0.5329396970057907,-0.3323606612019352,0.0008497977017488472,0.08845406215581134,0.5407575936878053,1.6236225474260568,5.980733034997642,1.228636244009113,1.1723058861550495,1.124733286885348,1.1609113906241932,1.635878612170588,1.898247516190928,2.6880154341127778,1.039393879352904,Relax
73.0793481223379,824.8169014084507,128.1158303878793,,,,,,,141.14966727353124,142.1686252744337,0.15532638840100116,0.17112848564633582,861.0,63.751799999999996,0.07404390243902438,105.0,0.9076594572455214,778.0,897.0,54.929577464788736,80.28169014084507,346.0,1057.0,7.1,539.0625,,,0.02443404632952578,0.05070738028926738,0.009118517025062946,0.0842599436438561,0.48186370879620144,0.2899841285534424,0.6017969879447547,-2.9816838111433204,100.52839900352127,152.23368491899737,0.6603558145295624,48078.33273037884,1.5143351175190305,5.388919508670468,922.1312605686597,0.5915492957746479,0.6086956521739131,0.8571428571428571,0.15,49.88314344142566,50.221556207503845,49.63085166550987,46.3768115942029,0.4248959936212288,0.575104006378771,65.52856440990591,76.2364266845134,0.6687247347634336,0.33127526523656653,124.4899961414888,87.62040678237385,0.59468477873717,0.40531522126283,99.47801740317074,82.12590467791468,0.754976654011536,1.466880479840881,1.118206953632492,0.9338899800396352,0.5892712397427928,0.9733738680307265,-0.6256523459994848,0.0010240256803011303,0.16121464185616155,0.5482638385623422,1.409824858530085,5.874961556063458,1.1349958290999838,1.07007669210439,1.1818808191592205,1.3715482280119522,1.5683403679151022,1.8522131740926158,2.5634247390675173,1.039393879352904,Relax
71.52777975926556,840.8550724637681,107.50284200926133,,,,,,,126.24614146695382,127.16484983768339,0.12784943033556304,0.15014019133766202,868.0,74.13,0.08540322580645161,117.0,0.8515336845950359,778.6,912.8000000000001,55.072463768115945,79.71014492753623,510.0,1057.0,7.666666666666667,375.0,,,0.021041480355908776,0.057493650186342414,0.020380766040720713,0.09891589658297191,0.36597920444625326,0.21272091830314568,0.5812377198453235,-2.856080768818715,89.91912764879496,123.05249349168633,0.7307379566011807,34761.00916134507,1.368479618400028,5.248062486105555,673.5793173466994,0.5652173913043478,0.582089552238806,0.8205128205128205,0.2222222222222222,51.24876766348999,51.42279392660326,51.09359559298843,41.7910447761194,0.3981906088817945,0.6018093911182054,56.74997534354123,69.76693610252873,0.6255317723008815,0.37446822769911836,97.3229143016648,75.30050800859394,0.546378102276892,0.45362189772310796,79.66275588272643,72.58647215386158,0.704241866896158,2.9300011872032434,1.2826991684328943,1.7251171240643461,-0.8065817275122384,-0.7240032281622333,-0.3490041718878106,0.010208137284523773,0.8517687767233805,0.4691138592000761,1.897119984885881,5.796788587150242,1.2477332713390774,1.1816794726293485,1.152991770634334,1.1975645025967359,1.6607533866508783,1.8984080322070627,3.5079109219214843,1.0623520794396815,Relax
72.46028059696533,831.7464788732394,131.53540732548666,,,,,,,141.04041973845654,142.05579051572528,0.15814362989991454,0.16957140585617256,869.0,75.6126,0.08701104718066743,121.5,0.932607883395442,778.0,917.0,53.52112676056338,76.05633802816901,346.0,1057.0,6.454545454545454,531.25,,,0.027442587057712436,0.072665232261196,0.024814426680251828,0.12492224599916027,0.377657735394965,0.21967734280007187,0.5816836839587759,-2.62189224458081,100.44861278048498,157.523476182613,0.6376739214670291,49709.4666226204,1.5681996179166393,5.403409213191406,988.1130206498981,0.5633802816901409,0.5857142857142857,0.8048780487804879,0.15789473684210525,49.52871870397645,49.93637677417599,49.20995751049841,47.14285714285714,0.42421872531361576,0.5757812746863841,65.42564094262755,76.22226271459888,0.6404928564007384,0.35950714359926156,126.06729439142028,94.44936650651087,0.5779704629019754,0.4220295370980248,100.43275662831985,85.82108181214727,0.7988792485370855,3.060239410742487,1.4581500568463612,1.7927010546697966,-0.903495618800207,-0.6587685176023634,-0.3906781617643878,0.007667913551731077,0.8357429773461218,0.553007465582922,1.4403615823901663,5.874961556063458,1.1013976497697542,1.2105679129788642,1.1290889134975974,1.3974776580535253,1.5102689700576946,1.8693875812520275,2.344426368267135,0.9527777227401621,Relax
72.72236300032249,828.2253521126761,129.8995432943801,,,,,,,141.10436866781572,142.09932154751834,0.15684081990852639,0.1703695356678953,869.0,72.64739999999999,0.0835988492520138,119.0,0.9205919314956595,771.0,905.0,53.52112676056338,73.23943661971832,346.0,1057.0,7.1,539.0625,,,0.02498317014123894,0.046418851515164235,0.00834164523939278,0.07974366689579596,0.5382117248867601,0.31329347036279864,0.5821007902210151,-3.070049619605976,100.4793938682579,154.50901633356025,0.6503141127462683,48773.13895118182,1.5377184354450077,5.395150816861719,950.3654514343577,0.5633802816901409,0.5857142857142857,0.8048780487804879,0.16666666666666666,48.666961260863154,49.153202336709434,48.2940840343681,47.14285714285714,0.42331554654377357,0.5766844534562264,65.38558986748411,76.31660787588216,0.6294967045431729,0.370503295456827,122.58873345558918,94.04806514819376,0.5682022931590209,0.43179770684097896,98.24274256290978,85.64246375426168,0.820759040923889,3.0252692472772713,1.4782444764537894,1.8639042116370983,-0.9647321328085106,-0.8670899810988786,-0.37252052506387623,0.00821977549565287,0.8462439849566542,0.5433331781772224,1.435084525289323,5.913762788488296,1.1369803679420107,1.0185354637261455,1.2199882280072631,1.5972638691830192,1.4331943315072466,1.8836454960542064,2.3249443699018673,1.039393879352904,Relax
73.51206527213813,820.0,129.4970770239486,,,,,,,140.67843663906444,141.666968556115,0.15792326466335196,0.1715590690720298,865.5,79.31909999999999,0.09164540727902945,115.25,0.920518311958473,753.4,901.6,52.77777777777778,73.61111111111111,346.0,1057.0,8.0,539.0625,,,0.032124985813653785,0.08539006426048525,0.022964260689736317,0.14047931076387535,0.3762145642103681,0.22868126017254647,0.6078479727453471,-2.460525528510086,100.17367413617032,154.34290783575113,0.6490332179226096,48572.46609626298,1.5407531885667514,5.393360263770631,951.2173095223911,0.5694444444444444,0.5915492957746479,0.8095238095238095,0.2222222222222222,49.01238207547171,49.477563795245814,48.64592765401799,45.07042253521127,0.41062898542473253,0.5893710145752673,64.19740760231011,76.91075533184083,0.6314841801562466,0.3685158198437533,122.65010256495754,93.69463986803389,0.5660163736117902,0.4339836263882095,97.88859688965755,85.71449651521861,0.9013757679299776,2.646903608905887,1.3252571580282164,1.89736799770669,-1.2416769780797843,-1.437289835504036,-0.2838565644198283,0.006111074410773913,0.6230144992464631,0.5669778270658421,1.475906519809578,5.937218230578931,1.1410740308791945,1.179517067615113,1.2161924814040337,1.5499686059352853,1.4098883603076255,1.860354757342957,2.3774180454586324,1.0283208335737186,Relax
73.40015326495767,821.7083333333334,129.1786008419853,,,,,,,139.79169614057608,140.7856355280117,0.1572073637344783,0.17012325477277146,865.5,74.13,0.08564991334488735,118.5,0.9240792150635461,772.0,903.6,52.77777777777778,76.38888888888889,346.0,1057.0,10.285714285714286,429.6875,,,0.019492658662681014,0.05037010686044033,0.013094308185417625,0.08295707370853897,0.3869886303137895,0.2349728334339087,0.6071827827173659,-2.988357397717193,99.5504775755148,154.3184203168713,0.6450978267604205,48262.63056238644,1.5501524862079326,5.390581099469779,956.8683316875153,0.5555555555555556,0.5774647887323944,0.7804878048780488,0.15789473684210525,50.28114826871855,50.58074347618552,50.057894501659874,43.66197183098591,0.41674654873430766,0.5832534512656922,64.2661875105631,76.02828421054889,0.6348259943362715,0.3651740056637285,122.95469583498749,93.25404881944955,0.5707403491621253,0.4292596508378743,98.10198796410079,85.07825110220672,0.9371565022606034,2.1548604848369837,1.3412350629405865,1.6384223594774274,-0.44084714368096556,-0.549778889014239,-0.36208513329375785,0.003648471448908933,0.39639760464551543,0.6251836904513524,1.4853852637641218,5.93721823057893,1.1091906401944234,1.1306171050520264,1.2652006452002498,1.3947436347083846,1.4633986907429102,1.8605642195150707,2.51037311520218,1.0283208335737186,Relax
74.05188264110576,813.9305555555555,126.20800251283022,,,,,,,133.76708789091919,134.71463542610329,0.1550599146958991,0.1643470526789786,849.5,94.1451,0.11082413184226016,117.75,0.9434906934338508,748.2,899.8,48.61111111111111,76.38888888888889,346.0,1034.0,10.285714285714286,437.5,,,0.02543446178978774,0.04068869707365236,0.007788790893568712,0.07391194975700881,0.6250989493162616,0.34411839862708915,0.5505022828841556,-3.201804938281108,95.25763223487112,152.28388849834727,0.6255266605955163,45572.57966375531,1.5986528840321148,5.365673722744918,973.7963101580315,0.5416666666666666,0.5633802816901409,0.775,0.1,49.381933438985754,49.795414958964095,49.06481400266661,43.66197183098591,0.4128386207070263,0.5871613792929737,61.20749253855399,72.9950096141608,0.6309827166672056,0.3690172833327943,120.96582440584595,92.50757818682261,0.5696290531128956,0.4303709468871045,95.86210882575841,83.32443654343702,0.859096231909283,2.608618410356577,1.3054317055651832,1.9079773126014468,-1.3536069576586254,-1.8215086203171778,-0.2690173447200733,0.0051691553873773975,0.6056692286299358,0.6506827772261019,1.5184661342283738,5.964996008356708,1.0701021896204923,1.3051090934982381,1.2011468562890464,1.507811776356796,1.4408787990899088,1.9187325687787986,2.418179337124465,1.0283208335737186,Relax
71.62112231359836,841.0428571428571,98.73246470093476,,,,,,,119.77382066187097,120.64671746376943,0.11739290556053596,0.14241107887029655,872.0,72.64739999999999,0.08331123853211007,119.0,0.8243242484487717,775.8,905.6,48.57142857142857,74.28571428571429,510.0,1084.0,10.0,390.625,,,0.028466372510787947,0.0338059306811602,0.01009520325467601,0.07236750644662417,0.842052620271509,0.3933584823982264,0.46714240052051975,-3.3871190279455097,85.31011204652883,111.61004054696485,0.7643587586605242,29912.56469829387,1.3082861793229368,5.182823760925754,584.0714940850669,0.5428571428571428,0.5652173913043479,0.7948717948717948,0.1,50.638297872340445,50.85363578259277,50.46159852905061,43.47826086956522,0.42747141509186165,0.5725285849081381,55.77897558800322,64.55287390513116,0.5516486865892957,0.44835131341070433,82.8961880546707,74.73301249715422,0.5058518735688433,0.4941481264311565,70.6508036459685,69.82870715655407,0.8626919341621295,2.8481222920840374,1.3026150070699443,1.866039465441921,-1.6244884010129628,-1.6064633876452254,-0.30217687283374833,0.004487911691130038,0.6184633183260093,0.5837116756901053,1.6650077635889111,5.929283016944967,1.2046391904237008,0.0,0.9101574057199062,0.9027294781610561,1.4935096666267083,1.9609877883637212,3.15349668856714,1.2258566033889933,Relax
71.0070807940868,845.9,91.20944999349541,,,,,,,104.62839695453314,105.38035481808589,0.10782533395613597,0.12368884850991033,873.5,72.64739999999999,0.08316817401259301,118.5,0.8717466065463183,775.8,909.4,48.57142857142857,77.14285714285715,534.0,1084.0,10.0,367.1875,,,0.015878828772097058,0.025067056737713155,0.005577403135480516,0.04652328864529073,0.6334540563833929,0.3413092503662545,0.5388066378719025,-3.6862007754705894,74.515163495713,105.90344188248814,0.7036141807213028,24791.602866132398,1.4212334364478845,5.10127471633481,602.0540505532298,0.5428571428571428,0.5652173913043479,0.8205128205128205,0.1,48.85408708938121,48.94149834772526,48.80638634399004,44.927536231884055,0.44802541868008205,0.551974581319918,49.88339344086838,55.368684077469176,0.5266003933236374,0.4733996066763627,76.85120200805838,72.86584764122452,0.5005765576334403,0.49942344236655956,64.78603318331763,64.71137044192749,0.9487781332015746,2.102124896560895,1.3120536358120947,1.7234333531945165,-0.6795010506134709,-1.0559676244950547,-0.30430291365872475,0.00350653997256182,0.38789179028533965,0.5338811921379456,1.5198257537444135,5.900711588373539,1.2820950370838797,0.0,0.6809496395175874,0.8542364346575737,1.5457463211482294,1.9424827631514188,2.7392381871604674,1.2258566033889933,Relax
70.6799263574781,851.6086956521739,97.51669802583501,,,,,,,119.77079826755376,120.59048002150661,0.11450880964896132,0.14064064737600127,876.0,77.09519999999999,0.08800821917808219,127.0,0.8141942730313467,775.6,916.8,50.72463768115942,76.81159420289855,535.0,1084.0,9.857142857142858,343.75,,,0.05175568639068022,0.08276565649523485,0.01700834083158746,0.1515296837175025,0.625328047674702,0.3415547707944048,0.5462009453509798,-2.4917420802621404,85.2703461697482,102.4318715104891,0.8324591253906402,27439.93046283008,1.2012601814302168,5.1453531164262625,492.1893142197071,0.5942028985507246,0.6176470588235294,0.8571428571428571,0.17647058823529413,52.37608584568218,52.996529199770805,51.8855216078248,44.11764705882353,0.5075692261008363,0.49243077389916384,60.785590888807626,59.872252063574315,0.5717418757102356,0.4282581242897641,77.45244085106111,67.0328852680103,0.5454559655764627,0.45454403442353736,69.61956856189434,63.553498229910254,0.814426727349689,2.7545040535306273,1.2668363520848063,1.8942110500589797,-1.5420455283088152,-1.8808205462538172,-0.2722367853588647,0.005370322318774063,0.6496925522497738,0.5015089079543724,1.6094379124341,5.8766403988071545,1.2084206122485306,1.4208602268442359,0.6770125502755524,0.8502993454155388,1.5130371211489455,1.9455512130600847,2.281029650719484,1.0623520794396815,Relax
69.57771561017536,864.7794117647059,88.67967604210332,,,,,,,123.8420394949496,124.76818305356363,0.102546007497033,0.14320650770608917,880.0,74.13,0.08423863636363636,125.75,0.7160708625581038,778.4,927.2,51.470588235294116,79.41176470588235,655.0,1084.0,13.6,125.0,,,0.03860145461415715,0.0846316554031604,0.020326552082658593,0.14355966209997614,0.45611130291935253,0.2688878898814541,0.5895225313655461,-2.469446905014522,88.22442831349932,89.99890571725318,0.9802833446738932,24944.566130002662,1.020113220767477,5.103946064459305,367.2362943071026,0.6323529411764706,0.6567164179104478,0.8863636363636364,0.1875,50.80739137672715,50.82438568656369,50.79151213802721,44.776119402985074,0.4784379443132286,0.5215620556867714,61.02830937732542,63.71937767201663,0.49522060955466557,0.5047793904453346,63.333951352646494,63.9422679951504,0.48699578346034766,0.5130042165396522,62.19181593824841,63.83092012211921,0.6174238982660171,2.5306261278568893,1.159349938464829,1.5084127291278522,-1.0753678289850352,-1.2471639971934765,-0.3620646539524058,0.003425639025558933,0.5085319961882835,0.49421100790432115,1.791759469228055,5.852168723603281,1.2608795064836236,1.0310347706500822,0.7225929394740411,0.8502993454155388,1.6728373143321082,1.9378814230851227,4.116336360860077,1.1637796608272708,Relax
69.48487455775279,865.4705882352941,115.67252677448991,,,,,,,156.36505316325085,157.2743787543715,0.1336527530188492,0.1806705569071749,889.5,74.87129999999999,0.08417234401349072,114.5,0.7397594566972938,776.8,937.8,55.88235294117647,82.35294117647058,303.0,1136.0,11.333333333333334,601.5625,,,0.041097268483455573,0.07164589184747679,0.030583876498801954,0.1433270368297343,0.5736165385580713,0.2867377250830712,0.4998770185459754,-2.636019462744258,111.20977972411755,99.45954133127312,1.118140886591338,34748.759504523056,0.8943416809025815,5.2479094152920505,355.8032535040423,0.6764705882352942,0.7014925373134329,0.9148936170212766,0.1875,45.57636887608067,44.61787401310321,46.084833763186175,44.776119402985074,0.29901681895208737,0.7009831810479126,60.91692057319716,93.27041981314983,0.5095439100611707,0.4904560899388294,70.99655239146456,69.65407317848148,0.3923956558275039,0.6076043441724962,66.14900476800533,82.31361103266721,0.7049600784464284,2.3208108557849854,1.199466169802761,1.6007162526221912,-1.0661929028706556,-1.535237892574759,-0.32710780509352966,0.003144899156371121,0.4465528355137801,0.534279911284306,1.529395204760564,5.852168723603281,1.1535510105064934,1.3675507840248622,0.9350047196685364,1.1815627411407694,1.684347142700844,1.9414820057358524,2.3626773273884667,0.9847366360846136,Relax
69.82381966385717,863.4057971014493,115.88461792568398,,,,,,,148.45661873779432,149.55484648486487,0.13421802160087612,0.17194304142522548,892.0,88.95599999999999,0.09972645739910313,137.0,0.7805958327150145,775.6,939.8,59.42028985507246,82.6086956521739,457.0,1136.0,8.625,445.3125,,,0.056990528486666636,0.10502029908662863,0.04200140714156238,0.20401223471485763,0.5426620280299961,0.27934858204127194,0.5147745145452314,-2.253601622874854,105.75124610876104,125.95882089404628,0.8395699908759594,41846.96374854207,1.1910859259710522,5.328634062730976,600.1111152752281,0.6666666666666666,0.6911764705882353,0.9148936170212766,0.17647058823529413,50.60074575334896,50.62676302334344,50.55292626521334,45.588235294117645,0.4555404533465184,0.5444595466534817,71.37811864216879,78.03410085034868,0.6768015658675666,0.32319843413243343,103.62374026430527,71.6082747638444,0.5853176853768731,0.4146823146231267,88.97391574854882,74.89013923800859,0.668145768030249,3.0098514251946282,1.1497082924602409,1.9903548181444948,-1.9521048019907692,-2.583100806745514,-0.22070165369378833,0.008750197120072857,0.8796860751254814,0.5514677886948545,1.6094379124341003,5.8367144929786985,1.2793277971715187,1.3743529290291825,0.9967177925417713,1.2954596950416923,1.7061691336497624,1.9619732207093996,3.003127873148744,1.1508814193929884,Relax
71.65894756894814,840.4714285714285,119.02085086218545,,,,,,,142.19184835682543,143.22455824175705,0.141612012991909,0.16918106139373787,874.5,87.4734,0.10002675814751286,130.75,0.8370441219914859,769.4,914.2,61.42857142857143,87.14285714285714,457.0,1034.0,10.0,460.9375,,,0.059094250861621504,0.04437945110945203,0.030146836763951988,0.13362053873502552,1.33156786270021,0.44225424789528495,0.33213046085271464,-3.11497872952506,101.27505636519403,135.61501081893658,0.746783529003358,43147.946264930055,1.3390761327242708,5.341930239166332,726.395296907127,0.7,0.7246376811594204,0.94,0.17647058823529413,49.24842853238589,49.40066521273236,49.15467440592949,44.927536231884055,0.4559945752137156,0.5440054247862844,68.3926810669783,74.70185839093178,0.6800176293696809,0.31998237063031926,111.83245243552814,76.71332180055576,0.5998059873871232,0.4001940126128768,92.69319349680988,75.71427008409461,1.0769134537662324,2.9188918687000918,1.3151012328385934,2.362706774723482,-2.3903445433477444,-2.8103600224837724,-0.1410947753431399,0.012563928209468061,0.8873960205339393,0.5788304746787034,1.5824092400461807,5.889927481199775,1.265676017837619,1.1237845008033842,1.2940232846559399,1.2785756859155044,1.6990298796050154,1.8583830933779915,2.8986880308325564,1.1382954174326365,Relax
73.39725055825251,822.5416666666666,139.645621656704,,,,,,,160.69304129652522,161.80988173458928,0.16977331035717017,0.1953615820432909,852.5,96.369,0.11304281524926686,133.25,0.8690209640068818,742.0,910.6,66.66666666666666,88.88888888888889,312.0,1032.0,12.0,609.375,,,0.059166185152670914,0.035149314216839186,0.03557258887305722,0.1298880882425673,1.6832813518827012,0.45551663707743134,0.27061229934493675,-3.3481501711052863,114.41686463752134,161.71802595727263,0.7075084175696735,58129.73548272617,1.4134107456064615,5.4713684566812315,914.2959825850953,0.6805555555555556,0.7042253521126761,0.94,0.15789473684210525,48.773295588582194,48.55756700741934,48.85661071629935,46.478873239436616,0.4887601042882545,0.5112398957117456,80.00370527133639,81.82284871249944,0.5238298654794,0.4761701345206001,117.04518681842951,111.59365646019505,0.5121285009897087,0.48787149901029164,100.25010876428993,97.84713264471422,0.8967581407940438,1.266770961845019,1.106714936324832,1.3429112721030316,-0.3800358273102731,-0.9282008057027316,-0.3135445610197871,0.0004939854895166879,0.10470718434790477,0.6071176807893601,1.7047480922384253,5.992773786134486,1.25386405989475,1.2245341835286223,1.208786708171052,1.5433449704578701,1.797836135539768,1.9015615281699492,2.6216084948968037,1.1997076391693386,Relax
74.26023211040292,813.1805555555555,137.57121857412147,,,,,,,161.60759290487263,162.74466305262573,0.16917671928362135,0.19873519085126698,833.5,105.26459999999999,0.12629226154769044,148.0,0.8512670481708138,739.0,908.8,65.27777777777779,88.88888888888889,312.0,1004.0,12.0,609.375,,,0.05330290499054012,0.05333487473123414,0.021872188728452736,0.128509968450227,0.9994005846858154,0.4147764226647117,0.41502519512244057,-2.9311648516234117,115.0778548464314,157.99356123701412,0.7283705357701085,57119.055662022176,1.3729275840938526,5.463751128685038,867.6548733260718,0.6805555555555556,0.7042253521126761,0.94,0.16666666666666666,49.14137849917668,48.942383872741964,49.19664009446576,47.88732394366197,0.4949835733869455,0.5050164266130546,80.9696592205112,81.78613225095944,0.514598674047125,0.48540132595287483,113.33752376206061,110.0752974097207,0.5077987950754637,0.4922012049245363,98.49233474438853,96.96788779902833,0.9069108121517417,1.248505445668647,1.114572830346401,1.236286951066284,-0.20363954526025552,-0.4930120502870099,-0.40251214270459357,0.00024152251616989663,0.08638449698198154,0.6313750526425173,1.6796421711073488,5.992773786134486,1.2148159952485922,1.2629626011172572,1.444059748537602,1.4985185041931406,1.7715335347059826,1.8819197752584094,2.623513658702684,1.1997076391693386,Relax
74.24424252112821,813.2739726027397,135.0625637203791,,,,,,,160.8803040220344,162.0091841327182,0.1660726498945186,0.19781809014146293,835.0,97.85159999999999,0.11718754491017963,141.0,0.8395220567328163,739.0,904.2,65.75342465753424,89.04109589041096,312.0,1004.0,12.166666666666666,601.5625,,,0.04578469549786031,0.07587094702105816,0.03945630341595821,0.16111194593487668,0.6034549098899827,0.28417939608504894,0.4709206792879659,-2.5787214475556044,114.55779271474502,154.5060621446182,0.7414452942792532,55605.79236962454,1.3487171713350525,5.452090143686614,833.5399163592292,0.6986301369863014,0.7222222222222222,0.9615384615384616,0.2222222222222222,49.91886879925822,49.638156864485296,50.0370961185058,47.22222222222222,0.5047372256428363,0.49526277435716354,81.38748389777919,80.62000066386909,0.5223328083497579,0.47766719165024213,111.66554156464943,106.78450293235518,0.516091104888873,0.48390889511112684,97.70648829053708,94.6110843758606,0.7974077805157376,1.5196709045486299,1.0786378096054785,1.2125760855372778,-0.3636235103640466,-0.5576684125482068,-0.41186363078288885,0.0004773333645604848,0.13832860011509687,0.6163469155120036,1.6259672143853108,5.987702812275036,1.256570189899059,1.251175051952753,1.035296543770382,1.0206757468016536,1.8262073421599188,1.8760582329497368,2.9409590918452246,1.1022975241841126,Relax
74.30574025230501,813.1095890410959,135.03246128697225,,,,,,,160.58179812447267,161.7034703521964,0.16606920285642762,0.19749096590269902,835.0,97.85159999999999,0.11718754491017963,142.0,0.8408951877740451,739.0,906.6,67.12328767123287,87.67123287671232,312.0,1004.0,14.6,507.8125,,,0.05394468106581049,0.06868056801877917,0.04250114482246656,0.16512639390705622,0.7854431409341361,0.32668721086572045,0.41592725665308855,-2.6782889724748444,114.3416204274359,154.34904166451537,0.7407990305243527,55444.459318967965,1.3498937752283229,5.450828262657486,833.4192422215455,0.7123287671232876,0.7361111111111112,0.9622641509433962,0.23529411764705882,50.5417686123733,50.24060909536845,50.65795200693491,47.22222222222222,0.5087812373931464,0.49121876260685376,81.56126186260066,80.14120460821847,0.5166804573896451,0.483319542610355,110.94684457339035,107.30528571306385,0.5138813952958309,0.48611860470416896,97.36899341528533,94.7022624281453,0.8081588297800244,1.3517430716985905,0.9966310626843928,1.1600197248996065,-0.45890187786732994,-0.6631974545791057,-0.37912742766278756,0.00021763108818942338,0.09302098141557374,0.6520889265393208,1.7452394535931621,5.932908291727092,1.2504330272014659,1.6189264922676465,1.1441799234152836,1.1446131994123445,1.7218767391341192,1.8678737703237567,3.3518520838077346,1.1870896414290444,Relax
73.89251564719949,817.0555555555555,135.58759851147727,,,,,,,161.36037002338742,162.50670192030262,0.16594660863579186,0.19749008366226786,841.5,91.9212,0.10923493761140819,130.5,0.8402781828761631,739.0,907.8000000000001,69.44444444444444,87.5,312.0,1004.0,14.4,515.625,,,0.04387729420140898,0.06020315382240115,0.02319225087039155,0.12727269889420167,0.7288205254303897,0.34475024559574224,0.47302488550546407,-2.8100305389631903,114.90959091610691,155.05986122585136,0.7410659986902487,55976.47448085522,1.3494074775625764,5.454975652149709,836.955744831917,0.7361111111111112,0.7605633802816901,0.9629629629629629,0.3125,49.654364381956654,49.39507012514072,49.75759439051619,49.29577464788733,0.5060414715907215,0.4939585284092785,81.74385079537875,80.76204023461234,0.5154432928333037,0.4845567071666967,111.32426522652501,107.93733614998374,0.5121103209453647,0.4878896790546352,97.66050678519652,95.32307086432887,0.9657409388596605,0.7322830389294825,0.9531838928218456,1.0690305946853016,0.037492506247138735,-0.23253426350701645,-0.3418006485131607,0.0005087306568620512,0.029297528551317592,0.6296129283451202,1.6094379124341,5.909440452801153,1.214307111806806,1.03934637036441,1.0155188254133287,1.0018332963081176,1.6993368485444815,1.8864699186246612,2.7671291679455208,1.0283208335737186,Relax
74.11195305400503,814.6527777777778,133.58630271800104,,,,,,,158.6721751124928,159.7934897176253,0.1639794356098555,0.1947727663131784,844.0,84.5082,0.1001281990521327,125.5,0.8419012509489657,739.0,901.0,65.27777777777779,88.88888888888889,312.0,1004.0,18.0,515.625,,,0.05505207606533394,0.0854067536651523,0.03212306421970958,0.1725818939501958,0.6445869173434736,0.3189910297381545,0.49487667396789164,-2.4603300985843664,112.9910601687957,152.76194773586886,0.7396544875439889,54226.196474965,1.3519826038242317,5.441179253252768,826.1259834608048,0.75,0.7746478873239436,0.9636363636363636,0.35714285714285715,50.68410219154863,50.32323825408861,50.85538469606481,49.29577464788733,0.5178050266369129,0.48219497336308736,81.31095515717072,78.46523342948046,0.5056042859195611,0.4943957140804389,108.62269167234106,107.41193383377781,0.5099190494910033,0.49008095050899675,95.94363078056797,94.05880178658114,0.9147217608167486,0.45460405469602483,0.952060344181592,0.9278750806517346,0.7097969230176604,0.2800169299899484,-0.5532007211110976,7.011401811158523e-05,0.009431383129733488,0.5983553274397702,1.6451559950361796,5.8921472236645345,1.1539557620891665,1.0422583156898502,1.0101632954257007,1.2614388578957896,1.7399068274680736,1.8864881442698327,3.1053901235313446,1.1140142363715286,Relax
72.69860051722705,829.3943661971831,125.25716162852889,,,,,,,141.7866606661471,142.80194917216852,0.15102244087193356,0.17095204217053753,853.0,71.1648,0.08342883939038687,108.5,0.8834199285041433,754.0,903.0,59.154929577464785,85.91549295774648,312.0,1004.0,14.2,570.3125,,,0.03286113909874181,0.1062670505701716,0.01976477383582547,0.1588929635047389,0.30923168491481307,0.20681305436009284,0.6687964540796185,-2.241800008097943,100.97622662629703,145.3890532729139,0.6945242736862155,46121.21278505274,1.43983448511088,5.370870828769427,837.3446906398572,0.7183098591549296,0.7428571428571428,0.9423076923076923,0.3125,49.2241379310345,48.880799768380726,49.32169092591096,51.42857142857142,0.537233823322499,0.46276617667750114,74.01615569825162,68.69508346856871,0.4678110227323525,0.5321889772676475,99.44133220509786,106.06318051458557,0.4904031345960999,0.5095968654039001,87.65549000225958,89.35438644415613,0.8789143159565107,0.6454653336595073,0.9652049670075606,0.9055361933870232,0.32841061384011727,-0.007562597271911997,-0.5924430337447273,0.00025056152575724753,0.020423413784338717,0.6539977944180921,1.7292391122467208,5.924395006828627,1.1127286225081492,0.8884979659884216,1.0973117441878197,1.3132143626991302,1.7102100545601016,1.917464167094659,2.1930523508362305,1.039393879352904,Relax
73.41209996258691,821.1111111111111,118.61982775563374,,,,,,,126.15567177549633,127.05198479774441,0.14446257778088006,0.1536401956670456,849.0,68.9409,0.08120247349823322,104.25,0.9402655155031538,762.6,894.8,55.55555555555556,81.94444444444444,312.0,1004.0,14.4,625.0,,,0.03190074964848733,0.11039804823780669,0.025136798032323743,0.16743559591861776,0.2889611742027398,0.19052549413681857,0.6593463452745483,-2.2036628243007916,89.83932001369521,142.94246988977463,0.6284998439090345,40343.875114707014,1.5910902917340013,5.312747720747471,909.7375044724009,0.7083333333333334,0.7323943661971831,0.9423076923076923,0.29411764705882354,49.62556165751374,49.1036975580882,49.8960298210438,52.112676056338024,0.5578083918076646,0.4421916081923356,67.09875451260521,59.74164615839009,0.46900936142239547,0.5309906385776044,97.89309008392291,104.16089771123369,0.4941541778668604,0.5058458221331397,83.92049792309953,84.90746992380697,0.9389369727523966,0.6392404496439312,1.1366131107518314,0.898030094988599,0.7357215045043795,0.49961384146367704,-0.873228909240846,0.0006018247936283986,0.03816658673322407,0.7020257435612289,1.856297990365626,5.9754805569978675,1.1086135387477807,1.0676137147541942,1.11250787823434,1.2030976191374179,1.7601190766076336,1.8711947330943393,2.2537320603520605,1.1140142363715286,Relax
73.35801549237055,821.5,118.42499260392393,,,,,,,124.61732974686721,125.48968710382738,0.14415702082035778,0.15169486274725164,849.0,67.4583,0.07945618374558303,104.25,0.9503091812710025,763.4,894.8,51.388888888888886,77.77777777777779,312.0,1004.9999999999999,14.4,546.875,,,0.023827555609015113,0.09128895433718225,0.026056446703449133,0.1411729566496465,0.2610124716842121,0.1687827199663228,0.6466461885029228,-2.3937254807682375,88.73460872009439,141.61194248198532,0.6266039937371981,39476.87725594548,1.5959042872289875,5.303312901270704,903.9964245193006,0.6666666666666666,0.6901408450704225,0.9183673469387755,0.2222222222222222,48.82383690538422,48.475213466947004,48.899064814649485,52.112676056338024,0.5523651973121542,0.4476348026878458,65.95637086091727,59.37525939792961,0.4564330676681022,0.5435669323318978,95.6727880936561,104.40622525456757,0.48348426318812526,0.5165157368118747,82.16910988551744,84.9296217478888,0.9476196199132496,1.4392137670370557,1.2142758132253018,1.2535102562819822,0.06141570170465194,-0.05102836528473986,-0.47273897460176934,0.000754708459417556,0.1321333744954054,0.725625836486008,1.7525387560747736,5.9754805569978675,1.0989198135689915,0.9971692487702425,1.0319054014303053,1.1519520950807434,1.6838032968361882,1.9163608177286477,1.9838693864742798,1.0283208335737186,Relax
73.97627223815522,814.7260273972603,116.26170912045956,,,,,,,131.68317407069642,132.60471030115485,0.1427003743723169,0.1616287802801318,843.0,69.6822,0.08265978647686832,109.0,0.8828896321867394,756.8,885.2,50.68493150684932,75.34246575342466,312.0,1062.0,12.166666666666666,546.875,,,0.026163331869584118,0.0668653944508003,0.022320595475106106,0.11534932179549053,0.39128359421905684,0.2268182548656038,0.5796773956707766,-2.7050737184629283,93.76568987122423,136.3110536422869,0.6878803102592693,40153.6381262837,1.4537412760413064,5.310695010674584,792.6440202418926,0.684931506849315,0.7083333333333333,0.9215686274509803,0.29411764705882354,49.51694776486001,49.036767115018876,49.745329958836045,52.77777777777778,0.5258639677760663,0.4741360322239336,67.99689305246771,64.5659941891535,0.4624489622947174,0.5375510377052825,92.69642377478108,99.94036403994443,0.4828181445053175,0.5171818554946825,81.2902344855227,84.13335833684052,0.7653589506236745,1.4113746989872105,1.0906644593193981,1.007439674619346,0.3850562517282574,0.41249201835837157,-0.558967179133772,0.000681494099970289,0.14033873099904057,0.7836007758902044,1.8137383759468302,5.888454695866318,1.1080583947288305,0.9183292089293424,1.0219208201370653,1.1276840525114378,1.6323161877886427,1.922456067505167,2.3892568340948626,1.1870896414290444,Relax
73.56766515849725,819.6111111111111,103.31253766210887,,,,,,,116.48889205340991,117.28300910767985,0.12605067972059647,0.14212702887286507,840.0,78.5778,0.09354499999999999,106.0,0.886887460606461,762.0,883.8,51.388888888888886,73.61111111111111,312.0,1062.0,10.285714285714286,546.875,,,0.013000854532070122,0.030705009067253958,0.02002829661320918,0.06373416021253325,0.42341151906498453,0.20398565680816044,0.4817669043549404,-3.4833294758986213,82.93161105800402,118.41944769995075,0.7003208735454904,30852.68791395794,1.4279168846379438,5.196263116105708,676.3725153610384,0.6805555555555556,0.7042253521126761,0.92,0.3125,51.860722181282235,50.990001657233876,52.41574197632871,49.29577464788733,0.5319872623893815,0.4680127376106186,60.50625705542479,56.751651958335096,0.3708018493088369,0.629198150691163,72.10974785184462,93.93268791163574,0.4238629814535165,0.5761370185464838,66.56133591700872,77.60186807772335,0.8494668637057797,1.8722105402051437,1.174564627111876,1.3120427861814221,-0.38963973605916813,-0.37536497973327876,-0.4265690710968424,0.0011107666201203828,0.22475522015581673,0.7491873234972037,2.093234863812172,5.9754805569978675,1.1221407302595905,1.2980745646308842,1.0472209198789204,1.126140345096696,1.6294145582919735,1.911877390857604,2.1972606751688355,1.1140142363715286,Relax
73.85526415951554,818.4861111111111,121.97679218831284,,,,,,,135.77223056114713,136.68534412949617,0.14902732072353303,0.16588214353061365,841.0,86.73209999999999,0.1031297265160523,113.0,0.8983927838865305,762.0,893.8,51.388888888888886,72.22222222222221,312.0,1062.0,12.0,554.6875,,,0.03970521654055395,0.03803942905019433,0.02346944290692786,0.10121408849767614,1.0437910749964612,0.3922894246235846,0.37583136512727383,-3.2691320506133192,96.6511337227836,141.11289271695082,0.6849206465964086,42847.305899006526,1.4600231500821623,5.338893630037149,824.1123605672352,0.7083333333333334,0.7323943661971831,0.9423076923076923,0.4,47.745935981230105,47.65351946953344,47.733797588777534,49.29577464788733,0.4035563304684138,0.5964436695315861,61.42259937747436,74.67252315467661,0.46990154797799544,0.5300984520220047,96.73199228045839,102.7412777825885,0.4487050449085765,0.5512949550914233,81.02411383295832,89.81023292110072,0.8892719085257751,1.9526207067257264,1.22048404935876,1.363905697429563,-0.5310163276704483,-0.3918652547862673,-0.42654915131403015,0.0009260897209914348,0.23248719357782752,0.7095202907203442,1.6986690461620428,6.003258334775645,1.0005745988183916,0.8862533054974832,0.998712270075995,1.1016640082330593,1.622578810198566,1.9068628732852624,2.3315478880711287,1.0283208335737186,Relax
71.45731604559137,841.9285714285714,109.67466004460931,,,,,,,130.9219814140899,131.71520952204926,0.13026599139938325,0.15550248068187483,848.0,90.4386,0.10664929245283018,120.5,0.8377100534227482,767.6,906.6,51.42857142857142,72.85714285714285,401.0,1185.0,11.666666666666666,453.125,,,0.05183935485388813,0.020822342248999856,0.014609573791938727,0.08727127089482671,2.4896024776644947,0.5940025202149437,0.23859331983481138,-3.871728722170997,93.13671783844796,117.47412785848861,0.7928274892207932,34372.651226284695,1.2613084354363395,5.243183141329138,592.6844336537551,0.6857142857142857,0.7101449275362319,0.9387755102040817,0.3125,53.91259284850578,53.867182636916866,54.18548510485761,47.82608695652174,0.4667146924111714,0.5332853075888286,63.70791575159058,68.10005614578319,0.712447179855404,0.28755282014459616,99.1559010256954,62.99426964331778,0.6174560189755167,0.3825439810244832,83.33844022307252,65.59685836590748,0.7639419967618563,1.4493098459754088,1.1449300801403834,0.9596239880613977,0.48967299057463887,0.5805880824518326,-0.6278581613128225,0.0009936778366008896,0.1616985781731009,0.6219493671918408,1.9136492868370918,5.957854445516396,1.054656818952104,1.1201609092310978,0.8327565173858908,1.0091872565133553,1.6333260576378916,1.921420569193312,2.5109098123025086,1.2258566033889933,Relax
70.92751446094948,848.4057971014493,107.72736814873157,,,,,,,132.61260475979074,133.5880960705882,0.12697622825866892,0.15630798989452616,850.0,78.5778,0.0924444705882353,107.0,0.8123463704213086,773.2,907.2,49.275362318840585,73.91304347826086,401.0,1178.0,9.857142857142858,460.9375,,,0.056416476761566206,0.07090506446243643,0.010573915476677947,0.13789545670068057,0.795662160231927,0.40912498577835865,0.5141943480875137,-2.6464134169311486,94.4610486173129,119.85993938859242,0.7880952476628997,35569.412240362144,1.268882159822058,5.258046798794566,608.3525550701526,0.6521739130434783,0.6764705882352942,0.9130434782608695,0.25,51.003374178653885,51.43527294209134,50.73581548223605,47.05882352941176,0.41589490364634507,0.5841050963536549,60.92263261037809,72.1991958445315,0.6944510383872188,0.30554896161278133,99.88375703245009,66.25435948916514,0.5877167438663689,0.41228325613363115,82.72947504697653,69.29056224305205,0.9367949854405532,1.682581715777797,1.2654815963209582,1.3619744427369191,-0.2161755415110882,-0.2432898941027135,-0.44265191074458116,0.0007293107778745537,0.18149906523334997,0.6527506341026337,1.8718021769015913,5.9346114132999075,1.042902725034964,1.0478117697961276,0.8084774364698435,0.9479854317965609,1.63741511041677,1.8903061198662503,2.4423379900617994,1.239410759346295,Relax
70.38439123727727,855.9420289855072,113.08155360805276,,,,,,,144.29030174086748,145.358630548647,0.13211356584753878,0.1685748530328455,853.0,83.0256,0.09733364595545134,109.0,0.7837086224349101,777.6,911.4,49.275362318840585,73.91304347826086,401.0,1178.0,11.5,445.3125,,,0.049481685828450625,0.10861036915744086,0.017456374795098716,0.1755484297809902,0.4555889664339719,0.2818691451138739,0.6186917723669784,-2.2199883957691586,102.78407336493834,123.87826579594608,0.8297183747651555,40000.99686674526,1.2052282200970192,5.3090409244980545,597.2063271758142,0.6521739130434783,0.6764705882352942,0.9130434782608695,0.23529411764705882,49.36268829663964,49.99619148258724,48.92064903889957,47.05882352941176,0.381909377364048,0.618090622635952,63.52129740394631,80.810031518555,0.6977634810396027,0.3022365189603973,103.47828800111344,68.1033673834832,0.568974099635875,0.4310259003641251,85.85659937221476,74.72727026661529,0.8314109015664425,1.889183498681184,1.2827187851997826,1.3527052261199375,-0.35844245672495134,-0.4598934120123013,-0.4629541328468031,0.0013131908648142644,0.25246332953001943,0.6121421786567711,1.580450375560848,5.963596920546285,0.9817574767974804,1.0052398189893208,0.9480729455082697,1.193634701903531,1.628468798141172,1.882720760949638,2.44214016302492,1.1508814193929884,Relax
70.44801929000349,854.7826086956521,113.68323762377652,,,,,,,145.36986296624045,146.4487455549786,0.1329966665995351,0.17006647244270245,857.0,80.0604,0.09341936989498249,120.0,0.7820275489299829,773.2,911.4,49.275362318840585,75.36231884057972,401.0,1178.0,13.8,445.3125,,,0.0571463045491957,0.09793272781901649,0.01225169871344189,0.16733073108165408,0.5835261186107703,0.34151709121087526,0.5852644471578102,-2.3234744868531734,103.55490107818862,124.23158503700951,0.8335633892728556,40415.92818096145,1.1996688108775175,5.313522667097127,596.1470315791137,0.6521739130434783,0.6764705882352942,0.9130434782608695,0.29411764705882354,50.41349116263986,51.03510474164362,49.94893236546734,47.05882352941176,0.38960461460414475,0.6103953853958549,64.63808544157413,80.9062475679251,0.6968685354672012,0.30313146453279904,103.70685265825867,68.39865080925172,0.5708976907002227,0.42910230929977733,86.40947106027791,74.91393838281478,0.8857142091920523,1.8074635697322097,1.3696990953576216,1.23477198344553,0.08675070278842512,0.30168104120246,-0.5746499758952719,0.0016335315438110096,0.24549066067987257,0.6127486821617047,1.5781853689299958,5.9346114132999075,0.9986178741271545,0.9973226540153286,0.9045298797927225,1.1618250894492401,1.674965889388086,1.871007210492128,2.8825677026254386,1.1508814193929884,Relax
69.94432365617544,861.0441176470588,120.83248967846521,,,,,,,159.0266099952054,160.21733176112096,0.14033251862710516,0.1846904319255686,858.5,90.4386,0.10534490390215491,127.5,0.7598256020304291,770.8,931.4,51.470588235294116,75.0,401.0,1178.0,11.333333333333334,445.3125,,,0.05423455052047069,0.08403866123124223,0.011522340920420645,0.14979555267213357,0.6453523857458647,0.36205714757885415,0.5610224050855679,-2.47647833326975,113.29076175190343,129.01836966315386,0.8780979177437083,45919.369814005135,1.1388251580979964,5.3689660292433,587.7174609167478,0.6323529411764706,0.6567164179104478,0.9090909090909091,0.2777777777777778,50.84944346807263,51.35795995065337,50.48176485210756,46.26865671641791,0.41126207953994176,0.5887379204600582,72.65735275311721,86.93231431825149,0.678962020545189,0.32103797945481116,106.31004217540465,73.10208371313297,0.562407008254537,0.43759299174546284,91.0519521384007,80.31544657140734,1.0105043994021434,1.3810523294942083,1.472682642901979,1.3489560445081183,0.5692546102424849,0.2940880570192599,-0.5895886388600307,0.002283524459581803,0.20441126319711317,0.589731039226999,1.504077396776274,5.910992253015046,1.0504830377931802,0.9886632318508894,1.136153937418777,1.246885150715392,1.637739175914897,1.8783883601851121,2.8482745375136376,1.0742581484559421,Relax
69.97077595603515,860.8235294117648,123.18969005810129,,,,,,,162.81658025511453,164.03393158150521,0.1431067876853712,0.18914048546787937,857.0,108.97109999999999,0.1271541423570595,134.0,0.7566163707963738,769.4,950.0,57.35294117647059,76.47058823529412,401.0,1178.0,13.6,445.3125,,,0.05446417511116492,0.11666458710400197,0.020682223634699477,0.1918109858498664,0.4668441080806484,0.28394711006696416,0.6082268259406021,-2.148452238148492,115.9895053659725,130.9159794220076,0.885984322754676,47704.70650381502,1.1286881430258606,5.385531338222084,591.0532548249502,0.6617647058823529,0.6865671641791045,0.9130434782608695,0.3125,49.11169260432446,49.58874446645925,48.80712487474973,46.26865671641791,0.4029932679060355,0.5970067320939646,73.63731761447143,89.62696259632156,0.6831875314908864,0.3168124685091138,108.2088109919655,73.68749481240762,0.5599579846747573,0.4400420153252425,92.55161079567839,82.04522934324403,0.9509442308968866,3.194355740931569,1.5402554781516926,2.183757361184319,-1.8260016806637012,-2.0345759454400287,-0.2985503384025219,0.006650839948929909,0.8641769468358863,0.5311038150032878,1.7346010553881064,5.940404017720928,1.1501925943597369,1.1349624784369887,1.0620217280240203,1.2840231170565097,1.7440448813050513,1.8989494898062627,2.8658866013283655,0.9847366360846136,Relax
71.26586655896544,846.8857142857142,145.16862187975715,,,,,,,177.17427758475878,178.46396089054898,0.1714146542219055,0.20920683227511075,849.0,115.6428,0.13621060070671379,141.25,0.8193549529801787,762.0,955.2,57.14285714285714,77.14285714285715,401.0,1178.0,14.0,507.8125,,,0.047788589844814974,0.0453945895264268,0.006026832237334483,0.09921001160857625,1.052737569462865,0.48169120303463275,0.4575605706561841,-3.0923623544632743,126.19307694311799,163.41621372673183,0.7722188274055891,64785.907468370104,1.2949697216780942,5.518450656351927,846.4761952295754,0.6571428571428571,0.6811594202898551,0.8936170212765957,0.3333333333333333,50.73346593734461,51.41090589128714,50.164488544970034,44.927536231884055,0.3917694694269517,0.6082305305730483,78.98980760757905,98.42147511953821,0.564317443434156,0.43568255656584376,122.7600004344782,107.86492109164968,0.49985667068428546,0.5001433293157144,103.22162421836677,103.25121783013915,1.136443116418004,2.084443788836328,1.5055454783840134,2.0562740706144336,-1.2282209184367314,-1.924239116167132,-0.23579110399620198,0.0031083007915270627,0.3809334310293059,0.5589910608080086,1.5621850275835547,6.0149973026592525,1.0607213231439414,0.9104066423158477,0.7968434754086259,1.0671535474807354,1.7407294538179678,1.851178432875144,3.279308821561249,1.05073423147628,Relax
70.28888100309428,859.463768115942,149.99005650475092,,,,,,,184.3960331970933,185.74362978381728,0.17451585752538343,0.21454776808254958,869.0,127.50359999999999,0.14672451093210587,159.0,0.8134125984393209,768.4,962.4,62.31884057971014,81.15942028985508,401.0,1178.0,13.8,507.8125,,,0.04895936269027892,0.04593705779598621,0.012660040674956222,0.10755646116122135,1.0657923044988045,0.4551968534637028,0.42709714786105724,-3.080483128265238,131.34058018234077,165.5754070814924,0.7932372475925605,68319.49296558756,1.260656888005392,5.541514744529968,834.9351096863206,0.6811594202898551,0.7058823529411764,0.9166666666666666,0.42857142857142855,51.149624494511855,51.56475163623928,50.8632068324387,45.588235294117645,0.41162019939198896,0.5883798006080113,84.27562279221034,100.75868911828805,0.5726483533841658,0.42735164661583436,125.29675962999724,108.24018411119145,0.5104478349387133,0.4895521650612868,106.77466593436907,104.56636861166318,1.1762679560587974,1.7945558815629274,1.217659780038112,2.0622902070673406,-1.0659948747649093,-1.938188467714598,-0.02933734986640981,0.003853768860417592,0.3378000878290995,0.4721903449216436,1.5141277326297753,5.963596920546285,1.1159718296710737,0.88225768829301,0.9368158024750722,1.2006070392480452,1.834542944331802,1.8690829823792523,3.035650189036322,0.9738227394863748,Relax
70.44894982913324,857.0869565217391,149.97340343917796,,,,,,,188.90964226628685,190.3133615714491,0.17498038244311334,0.2204089571412062,855.0,121.5732,0.14219087719298246,159.0,0.7938896164324719,768.4,962.4,65.21739130434783,85.5072463768116,401.0,1178.0,17.25,421.875,,,0.04955319806013736,0.05508542163135111,0.018502150796513402,0.12314077048800187,0.8995700966357828,0.40241097943240123,0.4473369901215481,-2.898870178024047,134.57186851757896,165.70897249253068,0.8120976582824734,70056.78122599109,1.231378997096145,5.55242028964767,816.2021934307404,0.6521739130434783,0.6764705882352942,0.9130434782608695,0.38461538461538464,50.20989836500222,50.79110758001354,49.753017506715686,44.11764705882353,0.40141615836446615,0.5985838416355339,85.26162546022333,104.11628831521661,0.5675856792904459,0.43241432070955416,124.84229363571133,108.96726703145819,0.5015479342303562,0.4984520657696437,106.8998200567816,106.56938297851411,1.0177842238003398,2.040072991026469,1.34779007574736,1.9949849654252447,-1.219981032239982,-2.071566562922036,-0.1827589539567177,0.004380718491373655,0.42171998583861026,0.45186698678005666,1.6341305250244718,5.992582427792661,1.1507986927820872,0.9435491721301856,1.022323365892456,1.1971290295800867,1.911168557360904,1.904710016787531,3.2532054252027405,1.0623520794396815,Relax
71.98504479419219,840.7428571428571,168.086389599307,,,,,,,205.76256191070806,207.26850088182843,0.199926039420096,0.24473899500016252,855.0,140.10569999999998,0.16386631578947367,181.5,0.8168949105146209,728.6,962.2,68.57142857142857,88.57142857142857,345.0,1178.0,17.5,476.5625,,,0.04247595817625929,0.061185957401488314,0.03185372873864835,0.13551564431639596,0.6942108938092074,0.31343951755922955,0.4515047521645105,-2.7938375700165516,146.56096249991077,188.3327899485933,0.7782020461753664,86714.97858920395,1.2850133264422847,5.645064231160947,968.040579559992,0.6571428571428571,0.6811594202898551,0.9148936170212766,0.35714285714285715,50.26157721371827,51.249357768872805,49.54590777787454,39.130434782608695,0.37251218448532847,0.6274878155146718,89.45233696352093,116.09782893040222,0.6395821547677345,0.3604178452322656,150.61704020447192,113.06523324994934,0.5388479935711439,0.46115200642885623,123.86931296368525,114.59156350320558,0.9003008454712258,1.8339241856756932,1.183282907485986,1.692760383209504,-1.1311593729548637,-1.8089533543858547,-0.22219272764767786,0.002070878609102432,0.2743506623593426,0.40657419029476394,1.55814461804655,6.0149973026592525,1.2392816136301017,1.1204884319950106,1.0115006874272334,1.0802947558588627,2.217928615840491,1.9391324146822075,3.664660451030287,1.1382954174326365,Relax
72.69494739339682,833.2816901408451,188.07477108081937,,,,,,,246.47723743061664,248.1853995435345,0.2257037125693115,0.2957910156275676,860.0,142.3296,0.16549953488372093,191.5,0.7630512782494263,723.0,962.0,66.19718309859155,88.73239436619718,345.0,1228.0,17.75,476.5625,,,0.031244661859469225,0.0755951521017544,0.052096748938257456,0.15893656289948108,0.4133156821671916,0.19658574018131883,0.4756309732806057,-2.5823631234909556,175.4935790087259,198.8370963635034,0.8825997875562308,109624.72482047298,1.1330163615480018,5.746878626173059,901.1427338501843,0.676056338028169,0.7,0.9183673469387755,0.3125,48.27758362456315,48.70868793157747,48.0665222465985,42.857142857142854,0.4134810651060112,0.5865189348939888,112.87924803825175,134.43963140664147,0.5402075099703818,0.4597924900296182,146.14290004836357,134.82745883433077,0.4846984562071288,0.5153015437928714,130.57463741521005,134.63368476810842,0.7067168044395531,2.1199260221922125,1.0825247796344257,1.4910970830989292,-1.0099932192913865,-1.3644907755791817,-0.30727049001360934,0.0022706462788538726,0.3446075817440622,0.49162230370978177,1.6863989535702284,6.065240077251162,1.2714975456540918,0.868859926367955,0.7839208040301001,1.2038752408707036,2.1082967240839103,2.009608817688111,3.3170044507460608,1.126010035965646,Relax
71.11927302250254,851.5072463768116,158.49565063511122,,,,,,,211.12722676706798,212.6565115926132,0.18613541024990082,0.24794530835224307,864.0,96.369,0.11153819444444445,132.0,0.7507115641223099,757.2,942.4,66.66666666666666,91.30434782608695,345.0,1178.0,13.8,578.125,,,0.029682871546396764,0.09336768099326193,0.05739193128953002,0.1804424838291887,0.3179137709175715,0.16450045973926683,0.5174373518469524,-2.3712100215382126,150.37086141061246,165.9797249536761,0.9059592155161121,78409.4849117249,1.1038024481381474,5.601338710856285,732.8353069806561,0.6811594202898551,0.7058823529411764,0.9166666666666666,0.3333333333333333,51.34022592379858,51.944697367754266,50.82000796739836,42.64705882352941,0.434679718120274,0.5653202818797259,99.15873750648802,113.08202675986755,0.5825007575058171,0.41749924249418285,126.67860954784621,107.24644040117279,0.5158521502772996,0.48414784972270064,113.75395672427457,110.20286692015254,0.619096714332346,2.0067448219789075,1.0005188649846404,1.4386210831926816,-1.240880804465057,-1.8768891253006477,-0.2816851383346209,0.0018004170236405048,0.3025119456597261,0.4869772145860818,1.9218125974762528,5.992582427792661,1.298435578358734,1.1541484415959258,1.0038825225300774,1.2896135967367037,1.9736961545789202,2.027053120993764,3.2849381655550043,1.239410759346295,Relax
72.30485136787851,839.3,169.24943859218004,,,,,,,235.9557499660243,237.6831272271066,0.20165547312305498,0.28113398065771994,857.5,104.52329999999999,0.12189306122448978,140.75,0.7172931306677229,738.0,938.0,67.14285714285714,90.0,345.0,1135.0,14.0,578.125,,,0.011813422501895869,0.06572790339281015,0.04875423617675094,0.12629556207145698,0.17973222774649034,0.09353790670183591,0.5204292400680068,-2.7222317344797937,168.06735103591203,172.79249452358414,0.9726542318825823,91234.29115455782,1.0281145829844278,5.667128212107373,710.601933799815,0.7142857142857143,0.7391304347826086,0.9411764705882353,0.4,50.22760456926909,50.77626217520472,49.854674861731375,43.47826086956522,0.4444959278505762,0.5555040721494237,112.05198373444145,125.26486644189535,0.6091113888268017,0.39088861117319823,134.85691927856192,108.03174295723592,0.5290847533326154,0.47091524666738444,123.97990913072992,116.96611528789903,0.590305399468904,1.654846567192447,0.9560381209450057,1.092387434859762,-0.3887583646787576,-0.6693043944490131,-0.4176060689746715,0.001030394649519926,0.19053378918588376,0.5245913647885478,1.9252908618525777,6.043568731230679,1.3507909180980529,1.1889586498797922,1.1365410923455996,1.5216523525823868,1.9074033926124176,2.020443745728431,4.30683418714692,1.2258566033889933,Relax
71.78412509265507,845.7428571428571,173.3819345782462,,,,,,,241.39570016462807,243.16334204026512,0.20500549678181876,0.28542446220607354,864.5,95.62769999999999,0.11061619433198379,140.0,0.7182478165932634,738.0,946.2,72.85714285714285,90.0,345.0,1135.0,14.0,578.125,,,0.007742558913174171,0.038027686800749014,0.047435353130361846,0.09320559884428503,0.20360320504747792,0.08306967616944733,0.40799788073118215,-3.2694407845361773,171.94244809265535,176.57749603421112,0.9737506304843186,95382.41903257444,1.0269569730626265,5.686438442519448,725.3499633530855,0.7571428571428571,0.782608695652174,0.9629629629629629,0.5,50.177993527508114,50.67933152356988,49.85462166648125,44.927536231884055,0.44715227966852034,0.5528477203314794,114.97736350102596,127.84607012755151,0.6107086031858739,0.3892913968141262,137.9915119018436,110.17238650748745,0.5311049452934742,0.46889505470652565,127.00679405961655,119.33686018119889,0.5557708220047601,2.260590754247772,0.9555220465760299,1.3532151498105238,-0.9492639600211614,-1.1381917641008676,-0.32407558622134186,0.002981675557681741,0.402490024793412,0.5707924108567788,1.966112856372833,6.0149973026592525,1.434223661427388,0.9100223224861261,1.0354935358054085,1.3133778218007985,2.0250319967532397,2.028513563361661,3.6579054332642698,1.2258566033889933,Relax
71.33471610606817,850.3188405797101,172.58923461362917,,,,,,,236.58448932302238,238.32940431363411,0.20297002298098604,0.2782303272990276,874.0,99.3342,0.11365469107551487,122.0,0.7295035913279302,749.6,960.8,73.91304347826086,91.30434782608695,345.0,1129.0,13.8,578.125,,,0.011679164789550785,0.057296658620101415,0.04661300246392172,0.11558882587357391,0.20383675192977793,0.10104060406604487,0.4956937505600242,-2.859512970747074,168.52433794632105,178.24637528684076,0.9454573069164821,94369.83797984215,1.0576892184179143,5.6818033193865,754.1170774518592,0.7536231884057971,0.7794117647058824,0.9622641509433962,0.5,50.73203379904627,51.159042438779856,50.47499824198922,44.11764705882353,0.46039224815040863,0.5396077518495914,114.35425450060026,123.80193015639037,0.6069761054407259,0.3930238945592741,138.86938251972572,111.74553638283444,0.5377862401122201,0.46221375988778,127.20377534451947,117.92790766382471,0.5250765209116186,1.9738902914255536,0.8938440565376451,1.1901098505365035,-0.5528362709292018,-0.7698183780136743,-0.34990766949621405,0.0023899256137664485,0.3110936483529113,0.6118285245842547,2.0149030205422647,5.992582427792661,1.4413231310354608,1.3317698684470178,1.1854220791494254,1.3332972399622052,1.8817224106991157,2.0211090478486655,4.366506024019912,1.1508814193929884,Relax
70.81857808667546,856.3478260869565,173.4946876697277,,,,,,,235.00109511634696,236.74415560917433,0.20259838629182259,0.2744224810964653,878.0,94.8864,0.10807107061503417,125.0,0.7382718262816266,749.6,968.4000000000001,69.56521739130434,91.30434782608695,345.0,1129.0,13.8,578.125,,,0.006846555165611947,0.05699763218828273,0.04837672437563934,0.11222091172953402,0.12011999275681184,0.061009619865796255,0.5079056239148539,-2.864745552566863,167.4033978375304,179.2775237757586,0.9337667896781059,94284.43142551983,1.070931212219195,5.681410096398105,767.9755834433148,0.7101449275362319,0.7352941176470588,0.94,0.3333333333333333,49.594813614262556,50.17191583163437,49.21871621703432,45.588235294117645,0.4522201081927443,0.5477798918072555,112.57627596633208,123.90104983112019,0.607176960895583,0.39282303910441674,139.695844361205,112.36325733698573,0.5349983611176747,0.4650016388823254,126.86281338957797,118.2729295921755,0.6159937209259377,2.0018740722292288,0.9326491919843591,1.2947683854182013,-0.8826849804461201,-1.0764823342927674,-0.3191099038359606,0.0020132680715087784,0.2906931521160362,0.6147216134677742,1.791759469228055,5.963596920546285,1.403210463713515,1.5176917655490751,1.2424533248940002,1.6463103341495262,1.8011511888290719,2.0206353894602764,2.9291950762917156,1.239410759346295,Relax
68.74437364852268,878.3134328358209,132.64742615410907,,,,,,,190.27579664234435,191.73246949888235,0.1510251593509492,0.21663769393574986,883.0,68.19959999999999,0.07723624009060022,90.0,0.6971324177580106,823.4,941.0,62.68656716417911,89.55223880597015,395.0,1129.0,11.166666666666666,515.625,,,0.007350622938172867,0.1065834741190483,0.05143262467535121,0.16536672173257236,0.06896587861231279,0.04445043634631726,0.6445279497734308,-2.2388268062941377,135.57532935630257,131.5781278541526,1.0303789206256275,56042.079728596356,0.9705167487246517,5.455484353597188,510.79510739315486,0.6865671641791045,0.7121212121212122,0.9361702127659575,0.3125,50.25806451612903,50.217117172135694,50.21996854905913,48.484848484848484,0.48886095210673924,0.5111390478932608,94.79305394871015,96.92891923783833,0.39432558903783627,0.6056744109621638,82.62494495352138,102.40079199416033,0.44300775527592595,0.5569922447240739,88.91739032803288,99.70240113870547,0.5508010592481599,1.2761962699199951,0.7919042214852936,0.9609867964041033,-0.2545406488127906,-0.7424437402174904,-0.3675105241222735,0.0004359365567375246,0.10446252448928249,0.6095789249194161,1.9980959022258835,5.886984712845832,1.4118695226351063,1.4588324645161048,0.9860015128202992,1.0989977937560635,1.6437847130044982,2.020802925203527,3.389595187955387,1.086463735604377,Relax
68.97595970847259,877.820895522388,140.94141544295871,,,,,,,209.18695422559654,210.7368004587691,0.16055828263131625,0.23830254587538627,883.0,69.6822,0.07891528878822196,90.5,0.6737581507638436,826.6,956.6,59.70149253731343,86.56716417910447,395.0,1226.0,11.166666666666666,476.5625,,,0.004324360304477093,0.04722887784799669,0.05037783680336639,0.10193107495584017,0.09156178383900603,0.04242435691324305,0.4633413104733543,-3.0527497546619644,149.01342064995197,129.20122900250436,1.1533436779232462,60484.19455852064,0.8670442463434987,5.488612011675375,448.0927289085207,0.6567164179104478,0.6818181818181819,0.9333333333333333,0.2222222222222222,51.64021164021164,51.603346722736546,51.598406666648785,46.96969696969697,0.5371935794600337,0.4628064205399664,109.24467950431269,101.39921104229559,0.3758972003038273,0.6241027996961728,79.21386253376258,102.06919985108014,0.4679935817696328,0.5320064182303669,95.41812201442092,101.73475698658679,0.33558029282593016,1.4996381391998068,0.6296132537195567,0.5379721108173052,-0.06955053346595275,0.19246757940732162,-0.5611088371966522,0.0003425256492366128,0.12118233956664658,0.6639988598536641,2.0636931847116964,5.886984712845832,1.3503290510262638,1.3322309271580077,1.3727435189614972,1.4909798909872505,1.6603702353182717,1.9819115215014533,2.7637534202447878,1.2675410248717731,Relax
68.57586762960047,882.0746268656717,136.8153271398675,,,,,,,206.38923215980807,207.96848649565007,0.1551062948336033,0.2339815995990988,885.0,75.6126,0.08543796610169492,99.5,0.6628995403884772,826.0,960.0,59.70149253731343,83.5820895522388,395.0,1226.0,13.4,476.5625,,,0.0029384476091627552,0.0548316995094115,0.059523269425202335,0.11729341654377659,0.053590306983980866,0.025052110303787248,0.4674746556550943,-2.9034867940696807,147.05592707417708,127.81138310162224,1.1505698749637472,59047.557893911835,0.8691345234738643,5.47817205060514,444.34114218625587,0.6268656716417911,0.6515151515151515,0.8837209302325582,0.2222222222222222,50.34519956850054,50.01398649991504,50.55439225044961,45.45454545454545,0.5185162394135243,0.4814837605864757,105.89330624592048,102.04180892766831,0.3530289042466163,0.6469710957533837,75.94071239532839,102.80446416007268,0.44730336907949536,0.5526966309205047,92.14223816144874,102.42384639445649,0.3347982723292026,1.5411608452860883,0.5842817756531572,0.5491507812045231,-0.41412890840438266,-0.11006381105012009,-0.5227951511719808,0.0002084916233825741,0.10872629243473479,0.5860598004607072,1.667706820558076,5.946686205383147,1.3821247869157243,1.1377780078255697,1.2269467438102528,1.4761917964112121,1.7330075747783138,2.0020584926427,3.7444364140114743,1.1770023802380751,Relax
68.64980833981292,880.9104477611941,131.93831563126253,,,,,,,197.18208013730032,198.6875567856357,0.14977494700690583,0.22383896188134936,885.0,69.6822,0.07873694915254237,89.5,0.6691191995712402,830.6,956.6,56.71641791044776,82.08955223880598,395.0,1226.0,13.4,476.5625,,,0.0015403369940655638,0.04354511043556644,0.06004448172243462,0.10512992915206662,0.035373362902473185,0.014651745763449743,0.41420279445427977,-3.133957856715574,140.49331874051023,124.6303649014872,1.127280007978487,55008.45038391519,0.8870910447469623,5.4473995207869645,442.23392243062165,0.6567164179104478,0.676923076923077,0.9090909090909091,0.2222222222222222,50.56467574804984,50.16614471299252,50.8291554604625,46.15384615384615,0.5310800578770141,0.46891994212298577,102.38768706020495,96.2093070821673,0.32931852889287866,0.6706814711071213,71.52073186887425,102.06621756692293,0.44223084574110155,0.5577691542588983,88.31323102626772,99.18100508073412,0.4740587269710068,2.463961428719045,0.8215060709371459,1.289404496798195,-1.4306238734520829,-1.392608013064105,-0.3101031857043727,0.002786559432164488,0.42077592634161337,0.5853594616744511,1.6094379124341003,5.916835459114489,1.3501368732313392,0.9526902183431023,1.290400336969297,1.5500911066437222,1.718687884232028,1.9891217857083312,3.554201454809353,1.2675410248717731,Relax
68.87915253720816,877.7313432835821,131.1593504666553,,,,,,,193.56253394046726,195.0390792232224,0.14942994968823808,0.22052594500767425,885.0,69.6822,0.07873694915254237,89.5,0.6776071164009203,833.2,955.8000000000001,55.223880597014926,82.08955223880598,395.0,1226.0,13.4,476.5625,,,0.003233079999442794,0.039280421999009336,0.04780616125864264,0.09031966325709477,0.08230766969673424,0.03579597047699167,0.4349044336801576,-3.2370290521979466,137.91345551512083,124.662537483192,1.1062943070103592,54012.27565914598,0.9039185989326762,5.439462585435721,450.7391448847966,0.6716417910447762,0.6923076923076923,0.9111111111111111,0.29411764705882354,50.63855421686747,50.29537730633534,50.854255289317585,47.69230769230769,0.5335071453817678,0.4664928546182322,100.73762569551275,94.19852195476072,0.3365806734030671,0.6634193265969328,72.32368568982754,101.53833138272111,0.44495992955754815,0.5550400704424516,87.68918046865929,97.93721018706022,0.4628020258892849,2.5488057318173105,0.7933844318773063,1.3558904537691685,-1.8002776489920844,-1.8383850690073096,-0.27930604326960906,0.0028998622572654533,0.4447279295623646,0.582851109049153,1.504077396776274,5.916835459114489,1.334418167434471,0.8063027578662539,0.8239592165010823,1.2166985644675914,1.7271557908797348,2.0240187395144806,3.048720101715987,1.2675410248717731,Relax
68.28556724623407,884.9253731343283,125.1263983281337,,,,,,,189.25415811452166,190.70437281000613,0.14139768406113945,0.21386454028795668,886.0,54.856199999999994,0.06191444695259593,78.0,0.661155345672337,837.6,955.8000000000001,53.73134328358209,80.59701492537313,395.0,1226.0,9.571428571428571,500.0,,,0.006041294422598803,0.05797067624891365,0.05000914865271206,0.11402111932422451,0.10421293684170219,0.05298399505639033,0.5084205153614679,-2.8478179782006303,134.84835521588278,116.65641629961664,1.1559446063347476,49420.161126568455,0.8650933569998528,5.400874266978185,403.6747631688308,0.6865671641791045,0.7076923076923076,0.9347826086956522,0.35294117647058826,49.95551035973052,49.50627426783997,50.27217563962092,47.69230769230769,0.5323641003058043,0.467635899694196,98.38980560075238,92.21459086950811,0.24673500033392862,0.7532649996660714,57.94607321865885,101.24708421681727,0.4101022739332379,0.5898977260667622,80.7412572592724,96.83620921855123,0.3547008971819659,2.3512078440353488,0.7497421347455016,1.365582252049994,-1.6010369502819373,-2.2612160246925668,-0.2380749988280347,0.003209404278656513,0.45539785429287044,0.6734573306276959,1.5234954826333755,5.827283220308519,1.2909783487361852,0.8827041540684173,0.9275427013269291,1.0594483219294455,1.6272498731155518,2.0782659509857897,2.9179348074912377,1.2675410248717731,Relax
67.1695719660187,895.1060606060606,88.9833396312744,,,,,,,146.63560277095056,147.7743813672097,0.09941094530297934,0.1638192491643573,884.0,57.8214,0.06540882352941176,86.5,0.6068331152173814,836.0,960.0,54.54545454545454,81.81818181818183,657.0,1129.0,9.428571428571429,226.5625,,,0.014579362695601554,0.10073753678653706,0.046785205231642195,0.1621021047137808,0.14472621785953768,0.08993937938895939,0.6214449649768986,-2.2952367901593487,104.49226715040098,70.57839170029308,1.4805135769333075,23168.919599105495,0.6754412898200979,5.071875892431672,190.68623969389623,0.696969696969697,0.71875,0.9347826086956522,0.375,49.61340206185568,49.53833901497594,49.683046078475456,48.4375,0.5090081065804255,0.4909918934195746,74.55099974178749,73.21975698197856,0.4778524597260132,0.5221475402739866,48.78863533139659,50.99978860250305,0.49924753748653233,0.5007524625134676,63.00072420218675,63.09560701823859,0.2698927067775492,1.5883434048403404,0.5343731122125133,0.7834605437087714,-0.6471053033316476,-0.9719827835676238,-0.3431778476007231,0.0006427254955498686,0.15664592507502287,0.4360101540974246,2.268683541318364,5.80196987693421,1.508869724702861,1.495366305963659,0.896744789969599,1.148954408397723,1.8032783211121397,2.0838971695010757,4.391173876852763,1.2821442071366418,Relax
66.94174163420418,900.0769230769231,88.81640256948384,,,,,,,145.44876675310795,146.55910558055214,0.09867645785858388,0.16159592921890464,886.0,68.19959999999999,0.0769747178329571,101.0,0.6106370274025442,842.4,960.0,53.84615384615385,78.46153846153847,657.0,1129.0,9.285714285714286,226.5625,,,0.01665165944067556,0.09755553879822955,0.03449543102788628,0.1487026292667914,0.17068902130831917,0.1119795898887596,0.6560444780246792,-2.327333434455389,103.63293740064358,69.69417319817903,1.486967025291453,22690.504447814088,0.6725098694128708,5.0628142610457925,187.4800772653815,0.676923076923077,0.6984126984126984,0.9318181818181818,0.29411764705882354,51.60618679357527,51.52470429206586,51.67880352375565,46.03174603174603,0.5209130080904498,0.47908699190955,74.81649508302253,71.7500069133341,0.5100653479601056,0.4899346520398942,49.77478357422673,48.782668007363704,0.5175360544459473,0.4824639455540528,63.54147077448336,61.35068129197979,0.2097290203295132,1.911054657805601,0.5313159121302901,0.7302342062397452,-0.8015691694360259,-0.7204604522374332,-0.395911771389173,0.0007131455061706081,0.21014683856717095,0.434158536776343,2.6390573296152584,5.776213966874609,1.4625104049589759,1.399048695955921,0.9937246520202314,1.1684820735091155,1.795236638470312,2.079348837842895,4.015125361637945,1.3897771876219511,Relax
67.02334226692187,897.6461538461539,81.8232528780081,,,,,,,135.82577305136164,136.89494491200293,0.09115312590314029,0.15131326800587017,886.0,62.2692,0.07028126410835214,97.0,0.6024133052205576,846.4,959.2,55.38461538461539,80.0,657.0,1077.0,9.285714285714286,226.5625,,,0.012579313550412995,0.07623536027915835,0.07128465782244575,0.1600993316520171,0.16500628454237132,0.07857193044224996,0.4761753811993372,-2.5739298782671796,96.79934385743614,64.61458441288009,1.498103636152776,19649.560526613073,0.6675105619315248,5.000322951543403,172.5236702016541,0.676923076923077,0.6984126984126984,0.9318181818181818,0.23529411764705882,50.55879112230441,50.53527454671687,50.574074209084344,46.03174603174603,0.49664397698678686,0.5033560230132131,68.21964991789855,68.67909041562403,0.524042030387843,0.47595796961215703,46.77498056244784,44.57741257892648,0.5050885309810504,0.4949114690189495,58.48854350015056,57.89630028140526,0.33067071456494246,3.3014365107593373,0.8880178907878292,1.4900945814036037,-1.6831128697791513,-1.4614132131895943,-0.3176319039746442,0.008819956061582031,0.9265544748350162,0.5133084065081186,2.3353749158170363,5.7454447361053775,1.4860642650410103,1.3330558993254968,0.9821044792099104,1.1675888153922547,1.8095327506126206,2.043859006442681,5.001384923646673,1.297125375113821,Relax
66.98607575031511,897.8939393939394,81.78397977183153,,,,,,,135.9735268351895,137.03168850249986,0.09108423187156614,0.15143606707822188,887.0,63.01049999999999,0.07103776775648252,96.0,0.6014698719329394,847.0,959.0,56.060606060606055,80.3030303030303,657.0,1077.0,9.428571428571429,226.5625,,,0.013744100162309694,0.08661132205491444,0.05432746169934241,0.15468288391656654,0.15868710736912064,0.08885340002920453,0.559928285935186,-2.4463247322952935,96.8960361775603,64.7321441076165,1.4968766678958088,19704.974459012137,0.6680577107302509,5.001545986244495,172.97923201277993,0.6818181818181818,0.703125,0.9333333333333333,0.29411764705882354,49.96914532551681,49.956458248690616,49.9777118397506,46.875,0.4950731087094724,0.5049268912905276,68.17744540902072,68.85259390538602,0.5154009885390743,0.4845990114609257,46.472134016147706,45.06208207300721,0.5013459062010753,0.4986540937989246,58.343051439373625,58.186213694716535,0.2690942100554996,1.685380103017383,0.5396606659596884,0.7168041324807153,-0.6279541661969796,-0.6217121756718278,-0.3948940561218909,0.0004998279993403311,0.1575690967515279,0.48262270245042593,2.740840023925201,5.80196987693421,1.4890349195108394,1.3449537639467506,1.0566151626745122,1.2486902362347414,1.8950139292029045,2.026609761634281,5.04794094605223,1.190562478055453,Relax
67.3354313184443,891.3636363636364,100.8214928801068,,,,,,,147.30016449935982,148.29036452695928,0.11310927299145077,0.16525260678153575,889.5,68.19959999999999,0.07667183811129848,95.0,0.6844628668459157,840.0,953.0,57.57575757575758,80.3030303030303,406.0,1077.0,11.0,492.1875,,,0.010597625102099807,0.07622079837159822,0.028950425773410924,0.11576884924710895,0.1390384951156422,0.09154124940362104,0.6583878035178936,-2.5741209090229495,104.85712234163795,76.68734444533155,1.3673328122137274,25262.21964063189,0.7313508394353446,5.109441616724552,224.3414149366426,0.6818181818181818,0.703125,0.9333333333333333,0.3333333333333333,46.75055514433753,45.69177527780221,47.48021702361929,45.3125,0.4069467577377447,0.5930532422622555,66.9612761228458,80.83543274765094,0.369728351606057,0.6302716483939428,46.62996359630365,60.88181414087723,0.39399463769242404,0.6060053623075758,57.698206232917684,71.55753796974962,0.3483966360257446,1.7195248884297838,0.6601318826472973,0.7466499749582485,-0.3488953633353553,-0.18327295671706,-0.44968488511384286,0.0006211749494328449,0.17268067431250836,0.5711470602638151,1.8827312474337816,5.80196987693421,1.2963307161092081,1.1900377699102607,0.8374263605519188,0.994292567228227,1.9122459762411952,1.993550334806362,2.897173065199539,1.0989807489742642,Relax
67.97764639834776,883.3582089552239,101.22487739090703,,,,,,,140.63309235975248,141.5033436721418,0.11459097381415512,0.15920279104677565,886.0,68.19959999999999,0.0769747178329571,92.5,0.7197799301174749,832.0,951.8,55.223880597014926,76.11940298507463,406.0,1077.0,9.571428571428571,492.1875,,,0.012010315538410431,0.05448826461803748,0.05758460418771924,0.12408318434416715,0.2204202248429583,0.09679245098270245,0.4391269043104537,-2.909769928608769,100.057973871142,85.01955074760163,1.1768819405807622,26725.164239253063,0.8497029018106308,5.133890492803585,288.96543592349315,0.7164179104477612,0.734375,0.9574468085106383,0.3125,46.184250532076625,44.92741051117882,47.05847793792342,48.4375,0.43456270694064153,0.5654372930593582,66.05626971931407,75.34944234391162,0.3428377919997425,0.6571622080002574,49.7809465881814,68.9215595159355,0.3961698557855514,0.6038301442144484,58.48749187837575,72.20706276967337,0.4677940365350845,3.38975915073803,1.0643206488901902,1.6068246706568008,-1.590993823271237,-1.2350731201971177,-0.33995794460839646,0.008299608602484436,0.9514472201346466,0.588292366815863,1.754019141245208,5.875717735201601,1.2623519688705214,1.105433904647896,1.0442101688144296,0.9688037851875138,1.929919926233101,1.9494135003841129,2.5913752488347312,1.2675410248717731,Relax
68.55041505722781,877.820895522388,92.43309216107949,,,,,,,135.6605612504529,136.69954462676714,0.10529835030421883,0.1545424151355178,876.0,83.0256,0.09477808219178081,105.0,0.681355666739665,817.0,950.6,61.19402985074627,79.1044776119403,657.0,1077.0,9.571428571428571,234.375,,,0.011077142740343427,0.05756303305877397,0.031082056001101074,0.09972223180021847,0.19243500822886203,0.11107997224265051,0.5772337022510147,-2.8548747044879006,96.66117499070012,88.48788520190675,1.0923662009793094,26871.119394387362,0.9154439226547811,5.136255868567622,324.02278694663795,0.7313432835820896,0.75,0.9583333333333334,0.42857142857142855,49.80392156862746,49.80563872254014,49.79869579310243,48.4375,0.49590746305520106,0.5040925369447989,68.06976059670188,68.62921557739992,0.5016576126325437,0.4983423873674562,62.674015318046614,62.46658011624364,0.4985291827454155,0.5014708172545844,65.42753435587746,65.62028216256128,0.5080275248742755,3.174213570206245,1.0729835372407819,1.568396687423851,-1.2746177176540847,-0.9807246893307544,-0.34392570341419104,0.008185678620010147,0.8661503064427276,0.3614023991685742,1.6863989535702288,5.816016242664287,1.2778296810237368,0.9972807266315034,0.8730895400147831,1.0159108027779908,1.9829239274962311,1.943893989294013,3.739446203624761,1.1770023802380751,Relax
68.73978395841452,875.3134328358209,90.64235563469643,,,,,,,132.46434626080722,133.47895165954267,0.10355416955162604,0.15133361524185934,875.0,63.751799999999996,0.0728592,84.5,0.6842773787312697,817.0,942.2,56.71641791044776,77.61194029850746,657.0,1077.0,9.571428571428571,234.375,,,0.010149621088454429,0.032228233369248294,0.014947412982733662,0.05732526744043638,0.31492948968586804,0.17705318338026696,0.5621994420302517,-3.4349123978979135,94.383871864134,88.01418154960116,1.0723711815799042,26097.584756785374,0.9325129369167856,5.123570426674156,328.297451708583,0.7164179104477612,0.7384615384615384,0.9375,0.3333333333333333,50.18262664760997,50.16895736180507,50.19026384471351,50.76923076923077,0.5072287190362743,0.49277128096372563,67.22041814348238,66.25550775363742,0.4925602840788069,0.5074397159211931,61.77067545489401,62.69672884363511,0.5004061527845742,0.49959384721542566,64.55308265891901,64.50066711044396,0.6023103925362749,0.8708611219988249,0.8527893729778737,0.8360400162312349,0.6591296038342245,0.06394848887470106,-0.5192330973602257,0.000601284867174629,0.07176863737827895,0.3805011064943722,1.6863989535702288,5.905568481470258,1.181762208316343,0.6243322924466395,0.9744558170418243,1.1198496682675343,1.9042918392904857,1.8891079192324514,4.501307929384112,1.1770023802380751,Relax
69.40718494625051,866.6911764705883,103.36332923929588,,,,,,,135.2730240837992,136.24169068725135,0.11926200709717688,0.15607984453547716,875.5,74.13,0.08467161621930325,98.0,0.7641089562340541,799.6,941.4,55.88235294117647,76.47058823529412,619.0,1077.0,13.6,273.4375,,,0.013669471764893864,0.019445887133190273,0.020707676293537598,0.05382303519162174,0.7029492494360304,0.2539706598899071,0.3612930237761337,-3.9401196897259725,96.33742336527551,107.29026430255105,0.8979139346102337,32471.714086565215,1.113692483716805,5.218475324325046,477.95344371896215,0.7352941176470589,0.7575757575757576,0.96,0.3333333333333333,48.06952776495925,47.753825830212534,48.34401957820369,51.515151515151516,0.47513374588811425,0.5248662541118857,66.43081386151331,69.8209832140002,0.4949325996906509,0.505067400309349,75.48025267902342,76.24914602552633,0.48609129829658565,0.5139087017034143,71.09965391896169,73.10575205341826,0.531073460769251,1.752497234881313,0.9202364151915552,1.0505974770641149,-0.23368583696190726,-0.4389031090111861,-0.4256141126628435,0.001353406644944059,0.23013025954629301,0.4175519740268401,1.5841201044498103,5.899890966218525,1.0766778340284113,0.67068309827948,1.1478611724977887,1.2650414127127263,1.948022500166555,1.8541339476091157,4.316678420188299,1.253301173198599,Relax
71.35730661034793,844.4927536231884,129.5511054268008,,,,,,,146.98384264945585,148.07459249625643,0.1534070065977219,0.1740498565782127,857.0,81.54299999999999,0.09514935822637105,116.0,0.8813969147327937,779.8,923.6000000000001,55.072463768115945,76.81159420289855,380.0,1077.0,11.5,515.625,,,0.01276986967038218,0.01699447321095748,0.01576174528029594,0.0455260881616356,0.7514130924722389,0.28049564955029954,0.37329087336958067,-4.074867093021881,104.70454847553756,151.90425561954882,0.6892798891544876,49967.240059185555,1.450789462647257,5.405655471808449,881.5243735364672,0.7391304347826086,0.7611940298507462,0.9607843137254902,0.3333333333333333,49.627442710530005,49.341519038760744,49.774795108598205,52.23880597014925,0.5373030497131215,0.46269695028687835,76.75051655229935,71.22295244669291,0.34702071627368436,0.652979283726316,89.48446414737279,122.74947475075723,0.4083085833160553,0.5916914166839445,83.36099541988214,100.3497446603893,0.8492917713756856,1.3945190631902524,1.1618267392677781,1.5465513029708118,-0.34746313795354666,-1.3125994829315082,-0.22411666942515926,0.003337338882495059,0.2324022055917981,0.438171756764798,1.317301489632939,5.9056259060535305,1.0082355185707936,0.620113074859655,1.242453324894,1.3806809390814243,1.8108395289662103,1.832239540984274,2.670051001304277,0.9738227394863748,Relax
70.7938318255543,850.3768115942029,130.8229721517813,,,,,,,145.46017243460795,146.52592908044807,0.15384118001351335,0.17105378515897385,875.0,93.40379999999999,0.10674719999999999,112.0,0.8993731408547117,782.8,940.6,53.62318840579711,75.36231884057972,380.0,1077.0,13.8,515.625,,,0.02275389240810073,0.026110160379298215,0.005015062692258274,0.053879115479657215,0.8714573973333942,0.4223137704755337,0.4846063293143047,-3.6454307538426947,103.60947807244396,154.25572070591235,0.6716734886609155,50210.04815037422,1.4888186252425326,5.40776074781556,918.63516014869,0.6956521739130435,0.7164179104477613,0.9375,0.2857142857142857,51.04693140794224,50.65671268528994,51.25645762008472,49.25373134328358,0.5446684677183381,0.45533153228166184,76.47372975920281,69.92138442565336,0.3618537233093548,0.6381462766906452,92.79141597970649,123.22572982531493,0.41869725586419165,0.5813027441358086,85.02493229283547,100.18378234769715,1.0666592946192925,2.3595977548541542,1.0939587281538823,2.237424424561586,-1.2552959830120418,-2.2372284880424744,-0.015398040172156029,0.009897396555287147,0.6978712826087249,0.4767561649882439,1.277660520117095,5.9056259060535305,1.0156030786906332,0.9408547609930711,1.2114062631906755,1.43109118417475,1.7444646931920926,1.7615699059407794,2.8878707066849674,1.0623520794396815,Relax
73.03792040565929,831.3239436619718,159.72724739808237,,,,,,,200.83696301798062,202.24038952513789,0.1921359881618299,0.2415868862543478,867.0,111.195,0.12825259515570933,148.0,0.7953080199872482,710.0,943.0,59.154929577464785,77.46478873239437,371.0,1093.0,14.2,523.4375,,,0.029578677295292153,0.021287867948330697,0.0066451016572134786,0.05751164690083633,1.3894617049995175,0.5143076035762423,0.3701488149876148,-3.849617948429582,143.0055508630338,174.98076912968864,0.8172643861054462,78612.76814186087,1.2235942456337217,5.602463199044643,856.4218488145991,0.704225352112676,0.7246376811594204,0.92,0.25,51.56282343200166,51.36986395310177,51.70412509294545,50.72463768115942,0.5281007436202935,0.47189925637970687,103.9468927950188,98.26022829084062,0.4055547256383728,0.5944452743616273,111.43331599231657,134.9106580377322,0.45464201223776185,0.545357987762238,107.75514009731185,118.01685921075435,0.8201729281088829,2.97337656650818,1.3313055845694324,2.1068601982797293,-1.5493453307646448,-2.1070714024647574,-0.23916703910091058,0.011241599641558792,0.9418591919717813,0.49247380285135334,1.4321038971511848,5.980733034997641,1.0470712915078688,1.2690314673113028,1.0889833282740695,1.0871303164868296,1.831824142288764,1.8786269189674767,4.162847623977774,0.86616156612742,Relax
71.70495102178202,841.2857142857143,141.75332144534303,,,,,,,165.8107879219695,167.011934782402,0.16849605198121942,0.19709212352755756,871.0,96.369,0.11064179104477612,126.25,0.8549101251002564,778.0,939.8,57.14285714285714,77.14285714285715,380.0,1093.0,14.0,539.0625,,,0.03147572454806905,0.02423242864294662,0.007505606095623629,0.0632137592866393,1.2989092018736121,0.49792521285348834,0.383341046576047,-3.7200635162857787,118.09527162372186,163.1832935613438,0.7236970712282353,60542.18299224721,1.3817936257539805,5.489028186384038,901.9425394904216,0.6857142857142857,0.7058823529411764,0.9166666666666666,0.2857142857142857,49.05806451612903,48.613950347509686,49.34595069945791,52.94117647058824,0.5551029186645243,0.4448970813354756,87.99431799837986,78.77667615406448,0.31954739634924006,0.6804526036507598,92.24510636810332,134.60916628768268,0.4005209493046031,0.599479050695397,90.1447714758396,110.28461441775856,0.9130246195605151,1.4336553996340182,1.2406256150669668,1.145520084848104,0.14985103314134385,0.3146472186895002,-0.5663377895714279,0.0005924072336355371,0.12881742105902128,0.5278604696532523,1.3545456628053105,5.832784624056918,1.034166311459822,1.0108460607418712,1.1411319111154938,1.2674150318707906,1.8316886621216244,1.777810043091584,2.598338091793626,0.9631730455199232,Relax
70.08719871701057,861.6666666666666,143.84005278194846,,,,,,,206.7165222913623,208.25345609477176,0.16693236299645856,0.23990312064761585,857.0,84.5082,0.09860933488914819,109.0,0.6958323949510389,793.6,927.4,47.82608695652174,73.91304347826086,431.0,1712.0,13.8,437.5,,,0.026272400447164654,0.18047404867356676,0.01163210558422863,0.21837855470496007,0.14557439499063368,0.12030668708591799,0.8264275258960107,-1.712168286207449,147.25743101014805,141.64279279461581,1.0396394204375337,65527.19438941505,0.9618719532385072,5.523391683575189,544.968919070057,0.6811594202898551,0.7014925373134329,0.8723404255319149,0.4166666666666667,49.961004523475275,48.402272002242,51.63054589714247,49.25373134328358,0.6284259144863109,0.3715740855136889,116.73586078849056,89.76353679146914,0.2549493187617595,0.7450506812382405,71.51899600745975,122.26084393927364,0.4489432276856458,0.5510567723143543,96.80451431608158,107.25018997199226,0.3306278667760501,2.438613203903842,1.0005218404683527,0.9437114243630169,-0.775202770345631,-0.5249561776497333,-0.523296198025333,0.0037794634081407302,0.4352062703150496,0.7246500280927584,1.2139231351791042,5.7787434784859455,0.8167863893529507,1.006557118139911,1.0683682686956981,1.1533396889918888,1.4093295272753732,1.869261092398611,2.0255901614483975,1.0623520794396815,Stress
70.3126145817476,858.4852941176471,144.28345781280564,,,,,,,208.5979851364463,210.17033000988303,0.16806747745294864,0.2429837605440216,855.5,74.87129999999999,0.0875175920514319,100.75,0.691681934120448,792.4,922.6,48.529411764705884,72.05882352941177,431.0,1712.0,11.333333333333334,437.5,,,0.016407941274432222,0.19170624101540415,0.010446880003313718,0.2185610622931501,0.08558897815493548,0.07507257286489892,0.8771289771563872,-1.651791073302919,148.6128655542028,141.45530831845764,1.0505994247994668,66042.8080606997,0.9518375666261907,5.526795640623716,538.5699058247931,0.6470588235294118,0.6666666666666666,0.8636363636363636,0.3076923076923077,50.47191706637785,48.93102187674155,52.09001082697042,46.96969696969697,0.628535089262837,0.37146491073716315,117.82170659710606,90.57731504079814,0.26783968043394324,0.7321603195660569,73.20769090965359,121.03816853846786,0.4570839972834468,0.542916002716553,98.0849645811679,106.8982886746709,0.36969690026071206,2.63862091115581,1.0645220541844553,1.016940523970118,-0.9705699317326246,-0.6007052151707664,-0.5180327268737877,0.0038414053209214066,0.48919126662032897,0.7168009916122702,1.3470736479666094,5.752832142689112,0.8870177358827102,1.0815169809194312,1.1509216255270345,1.1870969654332955,1.3970466897292129,1.8882493308594301,1.969173019819176,1.0742581484559421,Stress
70.4740627944586,856.6521739130435,144.48832907142244,,,,,,,210.38539565730875,211.9427729965354,0.16866627257994804,0.24559021976948187,850.0,78.5778,0.0924444705882353,103.0,0.6867792729623481,789.6,920.4000000000001,55.072463768115945,75.36231884057972,431.0,1712.0,11.5,429.6875,,,0.025612742812509966,0.18837492061730604,0.008372704322302279,0.2223603677521183,0.13596684064193265,0.11518573688033473,0.8471605013142524,-1.6693210434433643,149.86617200933125,140.54327480865834,1.0663347087462243,66170.36891234852,0.9377918507180364,5.527633665886188,527.2013511551412,0.6666666666666666,0.6911764705882353,0.8936170212765957,0.35714285714285715,49.18009411093683,47.65818594222731,50.858531101836824,47.05882352941176,0.6156543736712232,0.3843456263287769,117.5942619678409,92.91345676359906,0.2742495322810011,0.725750467718999,73.60088163999937,119.73020636312648,0.4559061438785718,0.5440938561214282,98.09561719553628,107.16396960620217,0.6680372821299213,1.782894706320883,1.072552449975952,0.7953570805034876,-0.05583192600964715,0.562920710950505,-0.655474896240213,0.0017618775597265646,0.20592712269925162,0.7167700895532745,1.4796263009121096,5.8077289857323215,0.9516874086772148,0.884360744444265,1.2018788072350353,1.22757826238642,1.4137087268709752,1.9202575337699863,2.007244525771734,1.327940099299602,Stress
70.13096982238342,861.0147058823529,147.75428297926996,,,,,,,214.44287413821127,216.05755280463083,0.171604830869705,0.2490583176723491,855.5,83.0256,0.09704921098772647,110.5,0.6890146551759065,789.4,928.2,57.35294117647059,73.52941176470588,431.0,1712.0,13.6,421.875,,,0.022269504725449762,0.18229304416347678,0.008972434494028899,0.21353498338295543,0.1221632170752435,0.10428972514312301,0.8536917055719666,-1.7021397540129888,152.775760714725,144.66588949679425,1.0560593187940857,69433.72567631725,0.9469165057336932,5.548540579226046,547.946074324644,0.6764705882352942,0.7014925373134329,0.9148936170212766,0.2857142857142857,50.58499655884376,49.28120250231703,51.974382745718096,44.776119402985074,0.6147768046231067,0.3852231953768934,119.79006257160519,94.82399964719328,0.28337840846509366,0.7166215915349065,77.01042499358911,122.46474605455022,0.4581095016322145,0.5418904983677857,100.69822403747322,109.51987247823197,0.6839717281298398,1.7604393664360825,0.9719279446912008,0.7745195426962427,-0.29098190074419783,0.45863182707147465,-0.6121358711686851,0.0012334451158784762,0.1629455852000678,0.6852735492328001,1.5362345084108056,5.870479201512643,0.9429881627497095,0.8415821959096877,1.0642994223686886,1.245509789888525,1.527870740868403,1.938267077940564,1.9942049389161471,1.0742581484559421,Stress
69.93144819629207,861.0441176470588,105.2358309423896,,,,,,,132.43207214018545,133.42486116750024,0.12221886055033207,0.1538040495556457,867.0,74.87129999999999,0.08635674740484428,100.75,0.7946400689932014,798.2,930.0,55.88235294117647,69.11764705882352,431.0,1108.0,11.333333333333334,421.875,,,0.03565686498616999,0.15195214131626564,0.02164894238858434,0.20925794869101996,0.23465852259334447,0.17039670516324887,0.7261475239854842,-1.8841896674760128,94.34562411041306,116.07074138593106,0.8128286507339282,34402.84770386017,1.23027159426168,5.243564502849756,571.1941442080182,0.6911764705882353,0.7164179104477613,0.9166666666666666,0.4166666666666667,50.75029505985502,50.47279629606072,50.94635771374488,43.28358208955223,0.5095845924856794,0.4904154075143205,67.35219507794962,66.0732490681686,0.36961617792699525,0.6303838220730048,70.56644585886345,92.15635477126787,0.4253046987760495,0.5746953012239504,68.97804528605492,80.18250422365227,0.7884710058124702,1.4116051577236526,0.9522283321158256,1.0822435838470597,-0.515162529961982,-0.5498270881759155,-0.40789545432031715,0.0002760748857660224,0.09394535133254757,0.6180965116262871,1.890850371872286,5.84106743680676,1.1806438702827748,1.4849497210449045,1.0567941533642808,1.4119918525801225,1.78545821540515,1.9126665715237654,2.676130237186336,1.253301173198599,Stress
69.11445421232534,870.8656716417911,107.74885157545737,,,,,,,131.21333542723235,132.21846370504443,0.12372614409329614,0.1506700053750697,886.0,68.19959999999999,0.0769747178329571,95.0,0.8211730250178131,815.8,943.6,50.74626865671642,64.17910447761194,431.0,1108.0,13.4,476.5625,,,0.021899422823220896,0.1189292806790024,0.02305104072564123,0.16387974422786453,0.18413819286714442,0.13363105322382685,0.7257106803488702,-2.129226242533347,93.4925722839043,121.67376994942784,0.7683872400991874,35737.48169883674,1.30142712920495,5.260094055925703,633.3981804993095,0.6268656716417911,0.6515151515151515,0.8604651162790697,0.38461538461538464,50.179533213644525,49.92477555904934,50.354398369046514,43.93939393939394,0.5065034611790009,0.4934965388209992,66.53795909103313,65.6780609664117,0.37162401764202274,0.6283759823579771,74.17351352116026,96.4510040675189,0.4216961364099009,0.5783038635900991,70.45924392183662,82.51182908510827,0.758313818143236,1.428069205223618,1.023250092740693,1.0355055529603112,-0.19669092976167235,-0.2461173733683082,-0.49141816084627404,0.0002910635903781142,0.11048320970901844,0.603903188585889,1.963609726154714,5.845866988932945,1.1341311489386332,1.4062500704178316,1.0356481816662624,1.071799028194817,1.7578235223252863,1.9136223309005127,2.4707073188997617,1.3580796695054713,Stress
68.07376178159444,887.2388059701492,146.12086005771812,,,,,,,212.90063836959675,214.53134099799092,0.16469169188101798,0.23995866381971542,893.0,65.2344,0.0730508398656215,86.5,0.6863335928756186,831.4,943.6,46.26865671641791,59.70149253731343,431.0,1712.0,13.4,421.875,,,0.04068375556331873,0.1424594043103412,0.017163432507020352,0.20030659238068027,0.2855813960494391,0.2031074218765588,0.711206768669894,-1.94869820189272,151.69656599672297,142.3685428082762,1.0655202547167217,67848.4080683031,0.9385086727101768,5.538509772196865,534.4564485867091,0.5522388059701493,0.5757575757575757,0.8421052631578947,0.21428571428571427,50.287133322986186,48.76293619960867,51.84217141996653,46.96969696969697,0.6165871262528158,0.38341287374718425,119.11720149628974,93.93135791629972,0.25930113250367987,0.7406988674963203,72.4963675521567,122.52786896496073,0.44926680316701467,0.5507331968329853,98.60180272328972,109.17000199939218,0.6142865358599375,2.218871931814801,1.1288389780595074,1.0433001827044734,-0.4156763613702399,0.08173300983178855,-0.538550577943934,0.0013700891592109427,0.31685971593456336,0.6511728028247901,1.1616252564968437,5.845866988932945,0.8827903103934281,0.9365134211942203,0.9252975629004435,0.9527208091414746,1.3189768066598575,2.0048738740052325,1.895662735610303,1.1770023802380751,Stress
68.7354586788597,879.1343283582089,143.42730135300496,,,,,,,203.16342876580615,204.64188346035243,0.16314605939783594,0.23109486481459054,880.0,63.751799999999996,0.07244522727272727,84.0,0.7059700765256272,828.2,930.0,40.298507462686565,58.2089552238806,431.0,1712.0,9.571428571428571,421.875,,,0.015536328639233328,0.047135585318042066,0.007712765533244371,0.07038467949051977,0.32960932879911636,0.22073452279236339,0.6696853016769202,-3.054727036304218,144.70366350960236,132.93752892519325,1.0885087505352244,60433.39615999894,0.9186880670534763,5.488247110831184,488.51248594860556,0.5671641791044776,0.5909090909090909,0.8461538461538461,0.2,53.311908587752185,53.20328506998635,53.90734054335486,50.0,0.6636570704892308,0.3363429295107693,117.92820501670302,83.95314627356599,0.26151153383331616,0.7384884661666838,67.98185732537708,114.24033294475586,0.47967268437176214,0.5203273156282379,96.25121937894986,100.24715567176817,0.492012091824831,2.022410558448187,1.0232489955176125,0.8802091991430996,-0.1715625186419487,0.06938473383913635,-0.5707273781661171,0.0019063688823807658,0.29495680088110177,0.600340408519179,1.0632729222228008,5.816016242664287,0.8101173942347264,0.9552682667312999,0.9388373244279737,0.9666680472303121,1.295714770039384,1.9750766210000334,1.5453005841790455,1.1770023802380751,Stress
68.46522605555292,877.5522388059702,63.86047375762388,,,,,,,72.85186297819665,73.38160945400834,0.07277113650181645,0.08301712394617279,869.0,60.7866,0.06995005753739932,74.0,0.8765798312767411,833.8,927.8,35.82089552238806,55.223880597014926,741.0,1063.0,9.571428571428571,140.625,,,0.016016352709646773,0.06667528714438274,0.005448399207196313,0.08814003906122582,0.24021422922355,0.18171483562108628,0.756469906917868,-2.70792090229592,51.888633659312156,73.55049642575857,0.7054831195012835,11989.683419047633,1.4174683594228519,4.785777825906692,417.0220060134253,0.5373134328358209,0.5606060606060607,0.8108108108108109,0.2,52.05521472392638,52.21111085722774,51.89902624515121,46.96969696969697,0.43450246654181696,0.5654975334581829,34.216617645187014,39.03519122338398,0.694228746223773,0.305771253776227,61.282560788809036,40.67091427102972,0.6078736988331981,0.39212630116680197,49.630278963103756,39.86144391192825,0.6950412175397334,1.8052661927202025,1.0615507658200471,1.0682653292129183,-0.21884366807627487,0.08330594290051563,-0.49628056880478466,0.0007504425011932865,0.19807552066166118,0.4934830797643994,2.4277482359480516,5.786165496395631,1.2469575424391823,0.0,0.0,0.0,1.7911753059420115,1.8730195252642512,2.376255983703067,0.995925090970679,Stress
68.35181900986366,878.0597014925373,64.56612316467208,,,,,,,73.60593273190234,74.14771529173156,0.07353272568473618,0.08382793630864281,870.0,59.303999999999995,0.0681655172413793,79.5,0.8771864001756992,833.8,928.0,37.3134328358209,59.70149253731343,729.0,1063.0,9.571428571428571,148.4375,,,0.0229615211439938,0.0538456310668635,0.004501849080517215,0.08130900129137451,0.4264323899460114,0.2823982680799404,0.6622345645828956,-2.921634010205649,52.43035229227284,73.40451593991311,0.7142660314685662,12090.81086583413,1.4000385793847017,4.789425537600768,411.0766168677506,0.5373134328358209,0.5606060606060607,0.7837837837837838,0.2,48.22122571001495,48.08190107398473,48.346708647064496,50.0,0.4077695153771077,0.5922304846228922,33.49041194592405,40.360681552528504,0.639219020641863,0.3607809793581369,58.68777218236865,44.090456525685426,0.5609983941953602,0.4390016058046396,47.7800287569885,42.26673024985474,0.7416335397466292,1.7265049883610977,1.0807171373185998,1.0222352737583071,-0.13908185588832467,0.31835654550386705,-0.5338729768836677,0.000498122026741053,0.16680228522566398,0.4757524331163432,2.772588722239781,5.816016242664288,1.182491420397546,1.2938368848364195,0.0,0.0,1.8787369245645422,1.8671647297283538,2.957193863674825,1.1770023802380751,Stress
67.89153370875736,884.3030303030303,61.93569113871126,,,,,,,75.2502491690227,75.7967867697265,0.07003899004788815,0.08509554597278285,879.0,54.1149,0.061564163822525594,74.25,0.8230629376335346,841.0,928.0,40.909090909090914,62.121212121212125,729.0,1063.0,11.0,156.25,,,0.017809010840815525,0.0439051003573099,0.0026332103745909173,0.06434732157271633,0.40562510268469176,0.2767638249043556,0.6823143416730175,-3.1257247843896248,53.59642191702439,68.29800368746004,0.7847436092318031,11499.889826262019,1.2743015530625532,4.767663789613172,348.12900868000924,0.5454545454545454,0.5692307692307692,0.8108108108108109,0.21428571428571427,52.27206946454414,52.20319991828293,52.340111919490404,50.76923076923077,0.46682551369444314,0.5331744863055569,36.6384361019954,39.15563896171278,0.5799715077750914,0.4200284922249087,52.01293236432738,44.263666528612525,0.5368217758901545,0.4631782241098457,44.987332289968556,41.78777474965742,0.8057320904801426,1.9897465351395778,1.1663932648519824,1.1673151336533214,-0.4987928114480127,0.10749247847753951,-0.4995366903346439,0.0005356561299663206,0.21089549517937106,0.4836876481279946,2.833213344056216,5.760229157204461,1.2168397228027654,1.156243203321068,1.2576094803481088,1.3680676684178688,1.8820353032312005,1.9004335690285166,2.9971500449188477,1.2821442071366418,Stress
69.71326943075898,863.1764705882352,111.4526793603952,,,,,,,113.76435451497518,114.5858331621558,0.1291192278265448,0.1317973304316872,879.0,64.4931,0.07337098976109215,84.25,0.9796801452929995,818.8,929.2,45.588235294117645,66.17647058823529,424.0,1063.0,13.6,507.8125,,,0.01524935700175311,0.05222253202788642,0.004680842290165305,0.07215273131980482,0.2920072315453811,0.21134829857185733,0.7237776182916603,-2.95224122918296,81.02441965687072,134.55173243754544,0.6021804267327411,34249.56781984432,1.6606318565113685,5.2416252056547314,893.763572938328,0.5588235294117647,0.582089552238806,0.8205128205128205,0.2,48.01798120147119,48.24132907804233,47.90043140996949,50.74626865671642,0.38675824784116913,0.6132417521588309,50.40532679883118,63.47058493125103,0.7274565474132247,0.27254345258677526,114.76060324738337,70.24366622152831,0.6367466679983801,0.36325333200161997,88.63039271999281,66.94284052741051,0.9390312291285515,0.891926428774664,0.9919850203671458,1.3686206679609334,0.07218396895715351,-0.7564133463458571,-0.07772789835231941,0.0011398836452364573,0.08545420406522934,0.5634771890001757,1.3249254147435987,5.940404017720928,0.9568074886246032,1.2241423029922647,1.0718118147740299,1.2080730358121732,1.7303909109307205,1.9248205583599485,2.329789779568582,0.9847366360846136,Stress
69.85405100588318,862.25,111.68991923939014,,,,,,,137.08026845611298,138.11466699542905,0.12953310436577575,0.15897972566670104,871.5,59.303999999999995,0.06804819277108433,78.25,0.8147775058899035,813.4,925.4,48.529411764705884,69.11764705882352,424.0,1080.0,13.6,500.0,,,0.04131064142513913,0.04015475404705323,0.007014830639046394,0.08848022611123876,1.0287858164124584,0.46689122802650534,0.45382743480526405,-3.2150144384494195,97.66181761378971,125.62439889395374,0.7774112232467776,38543.280196893975,1.2863205084994829,5.292918782159543,646.3729626608498,0.6176470588235294,0.6417910447761194,0.8604651162790697,0.2857142857142857,49.87026466009341,49.85224965921337,49.92709717112204,53.73134328358209,0.5022291554308709,0.4977708445691294,69.2111941375049,68.90331390192105,0.6783968692573009,0.32160313074269903,103.47034906261028,71.24167644243636,0.6120340840694947,0.38796591593050533,88.02358357019388,70.08224856907582,0.9480099144710901,2.1247981610177016,1.2657159918879435,1.8466645867001499,-1.4152948635708462,-1.9680953456170212,-0.22658645631830132,0.003002449729637171,0.37034351184565145,0.5601926139674558,1.3714792753347498,5.969815782426812,1.0090300778877725,1.141558393777988,1.0332988354395085,1.1647083955002202,1.7286614635249624,1.9489040974769418,2.5123834243646663,1.1637796608272708,Stress
71.79117189063194,839.2714285714286,148.13242424895245,,,,,,,164.13069200478932,165.18641333625214,0.17650121189172022,0.1955633021895735,868.5,79.31909999999999,0.09132884283246977,103.25,0.9025272631192583,788.6,927.2,52.85714285714286,71.42857142857143,364.0,1080.0,14.0,562.5,,,0.050180925208672594,0.042099166997188145,0.0062690312365098755,0.09854912344237061,1.1919695516071431,0.5091970730517691,0.4271896646732411,-3.1677273247796203,116.80443302994783,165.88715684608954,0.7041198080109314,60872.61547123201,1.4202128510273,5.491392072143926,942.3802878927908,0.5857142857142857,0.6086956521739131,0.8333333333333334,0.21428571428571427,46.63658158228741,45.62752344174039,47.424996412915924,53.62318840579711,0.4580841335432914,0.5419158664567085,79.12569115021996,86.0618792429234,0.5758104699379392,0.424189530062061,125.87878502856964,108.04203018367556,0.5367432011799994,0.4632567988200004,105.1340656501708,97.67222569654535,0.8341347692997687,2.138877247203239,1.197099902854254,1.6691395746464281,-1.1926504403807652,-1.6376275616079532,-0.2793049262600715,0.002517781813257835,0.3573419309895159,0.6038911902111965,1.176321272995426,6.04356873123068,0.9393787247896787,0.9074383844793478,1.3312292920701465,1.5910659431833851,1.7086578522591804,1.963655250894926,2.758301283651252,1.05073423147628,Stress
71.79581227136772,841.6,149.37690875622383,,,,,,,175.05568472238537,176.33728845861776,0.17749157409247127,0.20800342766443128,868.5,80.8017,0.09303592400690847,107.0,0.8533108136026282,794.6,930.6,51.42857142857142,71.42857142857143,364.0,1080.0,17.5,523.4375,,,0.01564536702234346,0.015356879522531537,0.002001167047085811,0.03300341359196081,1.0187855546687499,0.4740529939046809,0.46531185265854647,-4.17619172798679,124.68929244513693,168.79147875183963,0.7387179339097885,66119.49854483345,1.3536966602493763,5.527299661152224,913.9698442596754,0.5857142857142857,0.6086956521739131,0.8333333333333334,0.2,49.74489795918368,49.48669178919512,49.929826501928154,53.62318840579711,0.5321489545843637,0.4678510454156362,90.95946899581152,85.2874464936767,0.5857448421744105,0.4142551578255894,129.18281814223255,108.63868001804698,0.5668229244188362,0.43317707558116375,111.7180054941215,97.66348172545193,0.8555024524366674,0.8784235088336438,1.1112007346704973,1.1195243742031937,0.5007803996730953,-0.13318366447275531,-0.49052434338449297,0.0006499980782517349,0.07009050614776309,0.5604740756530529,1.171182981502945,6.0149973026592525,0.9447671011358381,0.962242111505621,1.0471292431188175,1.0897940027004231,1.747541405255172,1.9427319843631832,2.2648505833965222,0.9631730455199232,Stress
72.0065043192682,839.8,147.6431852302284,,,,,,,175.6423408067029,176.9291126756447,0.17580755564447298,0.2091478218703297,868.0,80.8017,0.09308951612903225,107.0,0.8405899429039835,794.6,930.6,51.42857142857142,72.85714285714285,364.0,1080.0,14.0,562.5,,,0.024824380287240575,0.0954946323359398,0.018206527528242925,0.1385255401514233,0.25995576588965846,0.1792043565403525,0.6893648076127616,-2.348685238981453,125.10777536226709,168.65136851089218,0.7418129865586423,66286.34058201012,1.348048656628563,5.5283941538864285,909.4010030387078,0.5714285714285714,0.5942028985507246,0.8292682926829268,0.11764705882352941,49.98676548438327,49.6652342755268,50.24625870835997,55.072463768115945,0.5347541605869591,0.46524583941304093,91.48742279358274,85.33467848970415,0.5846219691057772,0.415378030894223,128.951807892429,108.69551665947789,0.566920994143673,0.4330790058563271,111.80008338131434,97.71571699274384,0.9236578310435287,1.061311571482277,1.140560654622192,1.2147356912369645,0.15441383805311304,-0.29438112118848503,-0.4301100274340964,0.0003236105936360628,0.07363583665159107,0.6147850498822756,1.3328056761689042,6.0149973026592525,0.9749438853942363,0.9579095896931437,1.1338905409753561,1.1923951977469147,1.848242860836495,1.90059204194398,2.635399010357473,1.05073423147628,Stress
72.31331975550042,834.8732394366198,147.19432535427103,,,,,,,176.788493484648,178.00392207277883,0.17630739422621705,0.21175489299902164,865.0,78.5778,0.09084138728323699,108.5,0.8326012765477473,789.0,927.0,59.154929577464785,77.46478873239437,364.0,1080.0,14.2,507.8125,,,0.04092668159469773,0.13930507696748912,0.026374393806161175,0.206606152368348,0.2937917446056123,0.19809033334947135,0.6742542531798806,-1.9710889525756086,125.8677803754637,165.36639788256332,0.7611448395027025,65390.056525438675,1.3138103920580406,5.522481822743969,869.0403681412658,0.5633802816901409,0.5857142857142857,0.8292682926829268,0.11764705882352941,47.984071677451475,47.81396765679784,48.145193784020876,57.14285714285714,0.5245763765476791,0.47542362345232086,91.19432985170431,86.81681530838283,0.5583339191913905,0.44166608080860964,123.56465831930421,109.89913904616287,0.5459454417400705,0.4540545582599293,108.59242741247624,99.03277281631999,0.7904196404027282,1.79286290318921,1.1283591158516533,1.3391213206615387,-0.6756019786753491,-0.9057774619383943,-0.3824437694399422,0.00076744301713643,0.20339430661981267,0.5797437163355754,1.32687094064909,6.008902049082148,1.0779139980746204,1.0810487663192607,1.1109003219589055,1.1385377317680663,1.8763599643486513,1.9004270767494449,2.4861612599426417,0.9527777227401621,Stress
