PPG_Rate_Mean,HRV_MeanNN,HRV_SDNN,HRV_SDANN1,HRV_SDNNI1,HRV_SDANN2,HRV_SDNNI2,HRV_SDANN5,HRV_SDNNI5,HRV_RMSSD,HRV_SDSD,HRV_CVNN,HRV_CVSD,HRV_MedianNN,HRV_MadNN,HRV_MCVNN,HRV_IQRNN,HRV_SDRMSSD,HRV_Prc20NN,HRV_Prc80NN,HRV_pNN50,HRV_pNN20,HRV_MinNN,HRV_MaxNN,HRV_HTI,HRV_TINN,HRV_ULF,HRV_VLF,HRV_LF,HRV_HF,HRV_VHF,HRV_TP,HRV_LFHF,HRV_LFn,HRV_HFn,HRV_LnHF,HRV_SD1,HRV_SD2,HRV_SD1SD2,HRV_S,HRV_CSI,HRV_CVI,HRV_CSI_Modified,HRV_PIP,HRV_IALS,HRV_PSS,HRV_PAS,HRV_GI,HRV_SI,HRV_AI,HRV_PI,HRV_C1d,HRV_C1a,HRV_SD1d,HRV_SD1a,HRV_C2d,HRV_C2a,HRV_SD2d,HRV_SD2a,HRV_Cd,HRV_Ca,HRV_SDNNd,HRV_SDNNa,HRV_DFA_alpha1,HRV_MFDFA_alpha1_Width,HRV_MFDFA_alpha1_Peak,HRV_MFDFA_alpha1_Mean,HRV_MFDFA_alpha1_Max,HRV_MFDFA_alpha1_Delta,HRV_MFDFA_alpha1_Asymmetry,HRV_MFDFA_alpha1_Fluctuation,HRV_MFDFA_alpha1_Increment,HRV_ApEn,HRV_SampEn,HRV_ShanEn,HRV_FuzzyEn,HRV_MSEn,HRV_CMSEn,HRV_RCMSEn,HRV_CD,HRV_HFD,HRV_KFD,HRV_LZC,Labels
83.43420517438929,719.3414634146342,31.599820093328756,,,,,,,19.236025872253986,19.312712502326825,0.04392881781529444,0.026741160979297237,722.0,25.2042,0.03490886426592798,38.5,1.6427416090611673,693.2,739.8,0.0,23.170731707317074,631.0,782.0,7.454545454545454,132.8125,,,0.006182812869477368,0.010606859818109417,0.0012374090805333364,0.01802708176812012,0.5829070031566989,0.3429735854646937,0.5883847399453778,-4.546254334525261,13.656149973501515,41.63785300023448,0.3279744028450413,1786.3496857194614,3.049018433528399,3.958936587869929,507.8183253210427,0.5121951219512195,0.5308641975308642,0.7906976744186046,0.0,54.290429042904286,54.5325419402249,54.061505680535824,39.50617283950617,0.4551581476044308,0.5448418523955694,9.233769544449329,10.102598675588375,0.6085657142613876,0.39143428573861255,32.48194810702266,26.0506017136231,0.5936065592122841,0.4063934407877158,23.87822703664693,19.757230950234685,1.048271390260115,1.7163864498589083,1.0963867726419707,1.8896471798479229,-1.3477025100382019,-2.314067639354909,-0.0378311176535096,0.003038469689420453,0.2871516045085157,0.6970948307183615,1.791759469228055,5.729384016760438,1.1038871632666263,0.9241962407465937,1.3026451416566114,1.5418648668249846,1.6968643633433667,1.7684446813557682,1.9009584659311236,0.7753112200753761,Relax
82.34305747989143,728.7901234567901,27.878179661422802,,,,,,,18.857027867614768,18.97089292787803,0.038252685875038064,0.025874428399457857,727.0,25.2042,0.0346687757909216,35.0,1.478397330541206,709.0,754.0,0.0,22.22222222222222,666.0,782.0,7.363636363636363,85.9375,,,0.00901978488430353,0.01707272712982565,0.002206248042400099,0.028298760056529277,0.5283154129808693,0.31873427903857665,0.6033030102987328,-4.0702729933765145,13.414447034466473,37.23253880952159,0.3602882710495142,1569.0807653101367,2.775555243824661,3.9026154085683418,413.36387333469145,0.5185185185185185,0.5316455696202532,0.7619047619047619,0.045454545454545456,51.509922346850736,51.51331538338799,51.50493618077173,40.50632911392405,0.4178648012092664,0.5821351987907337,8.673763728347105,10.23768169959774,0.5512948915216914,0.4487051084783086,27.644875280101616,24.94038526066023,0.5359573240977386,0.46404267590226167,20.487475521249113,19.063485299551555,1.0845342971770207,1.8172420893923373,1.096914004999948,1.9345292403991996,-1.1682869964918243,-2.051034793543845,-0.0390733902276391,0.002799988364277823,0.30538886605938165,0.6377063305757145,2.1102132003465894,5.60516142258429,1.1814760425607098,0.8979544353177011,1.2415157533991623,1.4639688385791538,1.7269812582134245,1.7323685742729504,2.757042966675996,1.017506790586421,Relax
81.7327985254613,734.2375,25.87811927018703,,,,,,,19.38321079593094,19.482388288508496,0.035244889113109905,0.026399102192316438,733.0,28.9107,0.039441609822646655,35.5,1.335079081718471,712.0,760.8,0.0,23.75,676.0,782.0,6.666666666666667,62.5,,,0.01479397562015218,0.028907654678845943,0.003312939063383438,0.04701456936238156,0.5117667200784062,0.31466789594779304,0.6148658824465643,-3.543648851154892,13.77612887251373,33.43861093214072,0.4119826897256761,1447.1891496735893,2.4272864490152797,3.867495407695146,324.66034875791746,0.5375,0.5512820512820513,0.7674418604651163,0.047619047619047616,53.28218243819267,53.37711462047814,53.18957365104261,39.743589743589745,0.4403827364307133,0.5596172635692869,9.153603745982318,10.318641333739581,0.6246703297427072,0.37532967025729286,26.42857015498216,20.485882471454996,0.5978719630992013,0.4021280369007987,19.776978813449684,16.219521256939522,1.0195194534218992,1.990579400920307,1.3464231605740293,1.7600179269897724,-0.7197441383905794,-1.0999331364848608,-0.2922239292617389,0.002967859987696653,0.3368560493118207,0.6811583999950552,2.3978952727983707,5.618619813556231,1.2301321897714124,0.0,1.3301794340871884,1.681361501566332,1.7805268622241905,1.7391813990945493,2.2229960285143027,0.8692651130470124,Relax
81.42821465894228,736.9125,22.6917671737649,,,,,,,19.648171235801883,19.77365427634562,0.030793027901908167,0.026662827996270767,733.5,20.0151,0.02728711656441718,31.5,1.1549047950283096,720.0,760.8,0.0,26.25,677.0,782.0,5.714285714285714,78.125,,,0.010960766578510334,0.02791249247550921,0.002056806157717383,0.04093006521173693,0.39268318972687427,0.26779255106994726,0.6819557293914388,-3.5786809313901307,13.982085027642363,29.047345765281033,0.4813549967912907,1275.934163361115,2.0774688258478538,3.8127983758621142,241.37982120398001,0.6,0.6153846153846154,0.8125,0.1,50.16722408026757,50.17400097386098,50.16051273413763,43.58974358974359,0.4206177454259294,0.5793822545740704,9.068118285000985,10.6428018288997,0.5867930952450671,0.4132069047549329,22.25097018608766,18.671974233744745,0.5555327304078675,0.4444672695921325,16.990239013223608,15.197234165381188,1.1163924531575582,1.4576415404445924,1.2053406676437621,1.8331374048067552,-0.7510501232954532,-1.726898486149255,-0.06930649975061079,0.0023270720268153727,0.21707387833476927,0.5956547464660074,2.6026896854443837,5.593619813556232,1.3788533404666437,1.0428264008395574,1.035479248458221,1.540263018518469,1.7937271365420187,1.7456105448736778,3.2122450481986564,1.0273133154191965,Relax
81.28290647049495,738.2625,22.611604363661023,,,,,,,19.86887394642017,19.994367918448756,0.030628136148945696,0.026913020702555215,737.0,23.7216,0.03218670284938942,31.5,1.1380415631322187,720.0,760.8,0.0,27.500000000000004,677.0,782.0,6.666666666666667,101.5625,,,0.007235992881909651,0.02582013620048457,0.0023910504384119543,0.03544717952080617,0.2802461158889569,0.20413451732210156,0.7284115844909216,-3.656600618578151,14.138153140673866,28.86143012141004,0.489863221649085,1281.9184594214835,2.041386158025052,3.814830511314992,235.66929580261498,0.6125,0.6282051282051282,0.8367346938775511,0.15789473684210525,50.778050778050776,50.775925083828476,50.779819191104046,41.02564102564102,0.42152178792445577,0.5784782120755443,9.179827382322108,10.753949781240188,0.5983685231391462,0.401631476860854,22.325552581980787,18.290758610900905,0.5641399914663118,0.4358600085336882,17.068970807579756,15.003321073343754,1.0272871815827531,2.3999870221726347,1.4433392509915448,1.9155939502792982,-1.1509783208365825,-1.4296688160894844,-0.30322614458963376,0.0037829872338059037,0.4723892124864432,0.5728397345784133,2.751535313041949,5.659183719779188,1.3843852562099832,0.0,0.921846877792247,1.389374300564518,1.8067269779333714,1.7458901705209344,3.3940778809927843,1.1853615177913803,Relax
81.18256341619075,739.15,22.62355667121543,,,,,,,20.915138966181495,21.04802779826864,0.03060753117934848,0.02829620370179462,738.0,24.462899999999998,0.03314756097560975,31.25,1.0816833064220297,719.8,764.0,0.0,31.25,677.0,782.0,6.666666666666667,78.125,,,0.016837430728758783,0.019391219864709652,0.003228359194954487,0.039457009788422925,0.8683017801990609,0.4267285032252761,0.4914518350146043,-3.9429348996533546,14.88320318675871,28.526854052666973,0.521726060619267,1333.8290250266004,1.9167146812889546,3.832070273690502,218.7113598949364,0.6375,0.6538461538461539,0.8235294117647058,0.2222222222222222,49.46483180428134,49.47304127821525,49.45713097731611,42.30769230769231,0.4077492910469355,0.5922507089530646,9.504047720677914,11.45420088651836,0.5986360020822463,0.4013639979177538,22.07167517764042,18.07270198379017,0.557791789435931,0.44220821056406906,16.992436085273223,15.129793041274741,1.0166522129693853,2.069672825784932,1.1637809070032867,2.051488625861851,-1.7539851381916751,-2.7317414978321795,-0.07108789959500106,0.004730585168631854,0.4356800617017946,0.6138852073820278,2.7932080094425165,5.687492001110318,1.399518957016584,1.218162387780588,1.1436644587673008,1.472550603763061,1.6935120456477293,1.7855287912799769,2.9726977526875915,1.2643856189774725,Relax
81.40779130529336,737.0506329113924,22.532539851476802,,,,,,,20.57350798403692,20.69923609601028,0.030571223801100302,0.027913289895390738,735.0,20.7564,0.028239999999999998,30.5,1.0952210905869775,718.8,758.0,0.0,31.645569620253166,677.0,782.0,6.076923076923077,78.125,,,0.011836607731239839,0.017572766627005788,0.002746193705543642,0.03215556806378927,0.6735767897269725,0.36810445107854184,0.54649218425081,-4.041404926059864,14.636570208870227,28.147417990415033,0.5199969039382006,1294.2785552606122,1.923088373077786,3.8189978654239196,216.5198890781106,0.6582278481012658,0.6753246753246753,0.8653846153846154,0.2222222222222222,48.324240062353866,48.376845263568704,48.27125076436089,45.45454545454545,0.3906709071634107,0.6093290928365894,9.151679996221828,11.429342506455484,0.554692682092338,0.44530731790766204,20.963547683652077,18.783152239237825,0.5197618311701436,0.4802381688298564,16.17441773662967,15.547293625777044,1.1161949275087337,1.8775634237660555,1.3874563540561158,1.9192059965416517,-0.8633802673565452,-1.5472883964214486,-0.21678738744338047,0.0034916646165543672,0.33603155729548484,0.6074300035401357,2.5257286443082556,5.496509387280681,1.3556220398154217,1.2070784343255752,1.1102295381255183,1.412775554206822,1.6936703272493439,1.7712300639491951,2.4005585389748223,1.1171257022086005,Relax
81.52560036334587,735.9625,22.091549303589176,,,,,,,19.97213248377266,20.088832256619575,0.030017221398629924,0.02713743225201374,734.0,20.0151,0.027268528610354222,27.0,1.1061187042264284,717.0,754.4,0.0,28.749999999999996,677.0,784.0,5.714285714285714,78.125,,,0.01238463728032657,0.01965331028925999,0.0036446095697949795,0.035682557139381545,0.6301552816318401,0.34707818814526875,0.5507820028842424,-3.9295094922973295,14.204949514774754,27.507149936528137,0.5164093534790851,1227.538612853864,1.9364482716336013,3.796005271926342,213.06469180862496,0.625,0.641025641025641,0.82,0.23529411764705882,47.96557120500783,48.035398473073286,47.89444578490373,44.871794871794876,0.387058898197512,0.6129411018024881,8.84227897297396,11.127178553618279,0.5529340866318039,0.44706591336819623,20.454189563057092,18.39210229824654,0.5179817867027879,0.4820182132972121,15.75689956998792,15.200058051094219,1.0344008439944312,1.6807673280172408,1.3251176207107827,1.6237939879643661,-0.21524746517115645,-0.6004628054466572,-0.32229761236141796,0.002724111699733583,0.2553701527104133,0.6018869549113846,2.2335922215070942,5.530875438448058,1.3609630732292386,1.1077041997108283,1.0737124852753732,1.5146223877920275,1.649261875380444,1.8030499006308174,2.3128254878163674,1.0273133154191965,Relax
81.73439447079255,734.2,20.69391153657385,,,,,,,19.14865233054142,19.27090391620187,0.028185659951748637,0.026080975661320376,731.0,17.7912,0.024338166894664844,25.25,1.0806980658146785,718.6,748.4,0.0,26.25,677.0,778.0,5.333333333333333,78.125,,,0.01799679171667993,0.03350788453713973,0.00402924311626816,0.05553391937008782,0.5370912537535011,0.3240684597956456,0.6033769076127562,-3.3959745085261717,13.626586838740739,25.893710787712067,0.5262508317350665,1108.4886581947583,1.9002345263815865,3.751701363832117,196.81649301979925,0.6875,0.7012987012987013,0.8518518518518519,0.3333333333333333,50.20145044319098,50.21000898124658,50.193060311454616,46.75324675324675,0.43439085856319265,0.5656091414368073,8.981105522721377,10.248201843525576,0.5631476592221788,0.436852340777821,19.431460074823093,17.11439796540422,0.5352229272987933,0.4647770727012066,15.136741674642206,14.105464521664523,1.0774521535911987,2.0075299760056042,1.3260563017002989,1.9932575423180476,-1.52612607429913,-2.3500005166916136,-0.1676506709278216,0.002841582731223865,0.34740465017044025,0.6564709755304357,2.197224577336219,5.487003250893971,1.3411164704371654,1.0843226852081225,0.8958797346140275,1.4068823986911347,1.7402941350990524,1.7815101058743403,3.0124406718418624,0.9482892142331044,Relax
81.92394474779753,732.5125,21.951611774393033,,,,,,,19.34660536736371,19.470022897420936,0.029967559289968474,0.026411297237062453,730.5,20.0151,0.02739917864476386,26.25,1.1346492760649254,714.4,748.0,0.0,27.500000000000004,677.0,778.0,6.153846153846154,78.125,,,0.021262111037558058,0.033238600293506046,0.0024083073308113433,0.05690901866187544,0.639681299748116,0.37361584398224734,0.5840656028703107,-3.4040434189818023,13.767385220623693,28.032574250052615,0.49112097582682235,1212.4513412171352,2.036158195679708,3.7906344282340845,228.31502322097828,0.6875,0.7012987012987013,0.8703703703703703,0.4,50.28386050283859,50.28799353159391,50.2796755512873,48.05194805194805,0.43565896716155456,0.5643410328384457,9.087184551714744,10.342531059559294,0.5164388181471419,0.48356118185285807,20.145238827433342,19.493449455403855,0.5007407701530064,0.4992592298469936,15.627020997158272,15.603886060663438,1.0496712659039358,2.091058966730235,1.3530025290611416,1.8381461669464985,-0.9601013708860187,-1.3119728626608524,-0.26799141219629474,0.0033661151912871734,0.36752608042595464,0.5755288811866643,2.341805806147327,5.474747626002145,1.3455119985726478,1.257176909975372,1.2322254399819583,1.5046800170940666,1.7546817622416784,1.7747700093577476,3.5740903017832086,1.0273133154191965,Relax
81.73776459729972,734.175,21.304171458167232,,,,,,,19.256759457658667,19.377592067295602,0.02901783833305034,0.026229113573274312,734.0,19.273799999999998,0.02625858310626703,25.25,1.1063217310789164,718.6,748.0,0.0,26.25,677.0,778.0,5.714285714285714,70.3125,,,0.0191619351495253,0.02113193524918656,0.0055259038428816624,0.04581977424159353,0.906776162408642,0.4182023038457223,0.46119684347994355,-3.8569698637966985,13.702026753851369,26.907658217619908,0.5092240522394806,1158.2720763138252,1.9637721266349664,3.77078069643673,211.3620368031291,0.7,0.7142857142857143,0.8909090909090909,0.375,50.937245313773424,50.954432435684616,50.91987683045669,48.05194805194805,0.4408602150537635,0.5591397849462367,9.098816491086163,10.246950765959598,0.5117564297232272,0.4882435702767728,19.24897269910878,18.80157229556115,0.49715527015099276,0.5028447298490072,15.055089031777538,15.140989412604656,1.1180621070906893,1.2828684799823264,1.3499047369589443,1.561106863397451,0.05559893376636449,-0.46589850302159164,-0.3353672806417254,0.0012579238444645827,0.14151215184077484,0.6213838797040032,2.251291798606495,5.424747626002145,1.3201744479163864,0.9651824277601488,1.0894236195328293,1.2666021554793832,1.7670445785469886,1.7538915387722547,2.9590712882950485,1.1063374166052884,Relax
81.77662403239617,733.7625,21.854665956052337,,,,,,,18.935600387241923,19.054892604391178,0.02978438657747205,0.025806170780384555,734.0,19.273799999999998,0.02625858310626703,26.25,1.1541575397195838,716.6,748.4,0.0,27.500000000000004,690.0,778.0,6.153846153846154,62.5,,,0.035233531694439824,0.0413127039744201,0.005350164117030476,0.0818963997858904,0.8528498090140901,0.4302207641184987,0.5044507949363812,-3.186585224028833,13.473843775346392,27.880637104429894,0.4832688623605937,1180.168650135203,2.0692415296846596,3.778914183869141,230.76708868221354,0.6875,0.7012987012987013,0.8888888888888888,0.4666666666666667,50.82101806239737,50.80577415846989,50.836255178192026,49.35064935064935,0.4588364047165148,0.5411635952834851,9.127655918367134,9.912760489027288,0.465982770210652,0.5340172297893483,19.032139973784492,20.374188900841848,0.46462954694424313,0.5353704530557568,14.925422180726216,16.021398095672044,1.2352936547079743,1.611862784692529,1.3921323825140868,1.8593360007488244,-1.080342625491511,-1.5843050041699396,-0.21014678006610898,0.0014052634676220107,0.18500162595887407,0.5803543635343531,2.0243817644968085,5.457935401402815,1.315733031527052,1.3569478066915468,1.0367270108833357,1.0892475735743055,1.818705472264969,1.7698682759056907,3.778809686897957,1.0273133154191965,Relax
81.73868393785686,734.1875,21.388565352732314,,,,,,,18.871987143228377,18.992559058169572,0.029132292980651828,0.025704587919609605,734.5,18.5325,0.02523144996596324,25.25,1.1333499323841438,718.6,748.4,0.0,28.749999999999996,690.0,774.0,6.153846153846154,78.125,,,0.05100675269377327,0.09568625201473256,0.006501212912212702,0.15319421762071853,0.5330624997823082,0.3329548170026682,0.6246074656135822,-2.346680647951232,13.42976730211769,26.736097134226398,0.5023084422043591,1128.0188855716433,1.9908086665068634,3.7592864807357924,212.90581553354892,0.7,0.7142857142857143,0.9272727272727272,0.4375,49.917627677100484,49.924034667509346,49.911151445497296,46.75324675324675,0.4390816036394655,0.5609183963605346,8.899005994621405,10.058164179743075,0.48112597468432605,0.518874025315674,18.54502453921169,19.258789027631643,0.47265494346094244,0.5273450565390574,14.544934562456294,15.363391902140158,1.1863883013337775,0.6260495790717355,1.2917704199608158,1.4681254242077935,0.3104789149197966,-0.6297063376038272,-0.21830505100176711,0.000291527562445417,0.03504381769512984,0.5951445761301306,1.810108607896251,5.532935401402814,1.3163870755847942,1.028173425222574,1.1735909965590876,1.2043681683501117,1.8003532480972888,1.7503897364443604,2.6484736235115047,1.0273133154191965,Relax
81.82860255164961,733.2,20.22556347105116,,,,,,,18.952973114353792,19.069722940010518,0.02758532933858587,0.025849663276532722,734.0,18.5325,0.025248637602179835,24.5,1.0671446294477982,718.6,748.0,0.0,27.500000000000004,690.0,774.0,5.714285714285714,78.125,,,0.027173664352217526,0.05314047408006029,0.007952217570656351,0.08826635600293417,0.5113553242163077,0.30785981865292156,0.6020467648884676,-2.934816417349273,13.484330406230102,25.188768020774937,0.5353310807066322,1067.0534760641945,1.8680028790407783,3.7351562948760755,188.21076472919148,0.7,0.7142857142857143,0.9272727272727272,0.35294117647058826,51.292407108239104,51.26973434289124,51.315083640666245,45.45454545454545,0.45623370216364795,0.5437662978363521,9.11008176382571,9.945685831890462,0.49729976645037044,0.5027002335496297,17.762989307212326,17.85917818031599,0.48814924950852295,0.5118507504914772,14.11590200574744,14.454530638227958,1.1973052360476648,0.1601766803822433,1.2762909456520655,1.2759240596598553,0.882520621844876,-0.11398822171025413,-0.5022905081522142,0.0001072334327136374,0.004033397920546386,0.5621991370738728,1.8101086078962514,5.509183719779188,1.3632110668643174,1.3002621925007054,1.2024562415687077,1.4327566418245588,1.8665118494436035,1.8029847109498025,4.4320954439800895,1.1063374166052884,Relax
81.91531529238124,732.6375,20.394367396881606,,,,,,,18.580648705820632,18.699098385441808,0.027836914431600353,0.02536131266256591,735.0,18.5325,0.025214285714285713,26.0,1.0976133137102366,711.0,748.0,0.0,27.500000000000004,690.0,774.0,5.333333333333333,54.6875,,,0.045603565398407604,0.04024981428462202,0.005699656996903375,0.091553036679933,1.1330130637604223,0.4981108989080992,0.43963385316572634,-3.2126498891748674,13.222259270420322,25.499314257219652,0.5185339157376238,1059.214805952366,1.928514162043735,3.731954152769718,196.70315466980728,0.6625,0.6753246753246753,0.9038461538461539,0.3888888888888889,49.660441426146015,49.65187765794733,49.668818498767806,45.45454545454545,0.4106108381608858,0.5893891618391142,8.472807181711474,10.151101999037927,0.4826446940924976,0.5173553059075023,17.715045387601187,18.340997641995244,0.46738023234469617,0.5326197676553038,13.885447321264657,14.822905691843063,1.1836242618175492,1.540942130614643,1.3568094502627537,1.694621227755007,-0.8453506485490916,-1.1655851242855988,-0.2807758183900724,0.0007550915199594244,0.14362011759727006,0.6232749332806167,1.9136492868370918,5.443619813556232,1.3782497534751441,0.892969340860156,1.0882751734409462,1.2898977700558718,1.846174132644786,1.7801275169970083,3.0322136791729855,1.1853615177913803,Relax
81.87913201456904,732.85,20.532838779731126,,,,,,,18.791325766178204,18.911330706258273,0.028017791880645595,0.0256414351725158,735.0,19.273799999999998,0.02622285714285714,25.25,1.0926764314142967,710.8,748.2,0.0,27.500000000000004,690.0,774.0,5.333333333333333,78.125,,,0.054745121647194264,0.042977458759293416,0.006283961518713677,0.10400654192520135,1.2738101141300313,0.5263622906198098,0.4132188030076187,-3.1470795156373956,13.372330183656604,25.96343520305057,0.5150447188161537,1090.734668657758,1.9415789803621932,3.7446892272299723,201.64024019295516,0.675,0.6842105263157895,0.9038461538461539,0.3333333333333333,49.83305509181969,49.838160161177036,49.82807471749106,44.73684210526316,0.41586607398910236,0.5841339260108974,8.623536665161494,10.220329163247541,0.4899319539695618,0.5100680460304381,18.173142663534087,18.54283832841786,0.4744035442930074,0.5255964557069928,14.223721364054967,14.971505960974177,1.1377181218512569,0.441708872496684,1.2144883176342538,1.2771609274325812,0.6853061412032746,-0.12606873448033706,-0.35811331014457276,0.00014007515684139168,0.015323370695114755,0.5573745977561888,2.4638532405901676,5.505875438448058,1.4116967089307617,1.1358236955675007,1.063337607904277,1.1610728063005264,1.9993357370709945,1.7928362681073045,3.602584714513293,1.2643856189774725,Relax
81.96956489706588,732.1604938271605,20.39022853606812,,,,,,,19.34521904760967,19.466942931251623,0.027849397376638017,0.026422101725931766,735.0,17.7912,0.024205714285714285,25.0,1.0540190052067449,710.0,747.0,0.0,28.39506172839506,690.0,774.0,5.4,70.3125,,,0.055602508983480764,0.02935425876854275,0.006682749261099713,0.09163951701312323,1.8941888269741198,0.6067525320492273,0.32032315015736146,-3.5283176403880003,13.76520735565955,25.48152563592253,0.5402034223670688,1101.940276886348,1.851154506978482,3.7491281671621595,188.68096410250288,0.6666666666666666,0.6753246753246753,0.9038461538461539,0.3157894736842105,50.36794766966476,50.36486436436359,50.370943370331425,45.45454545454545,0.44276695948428474,0.5572330405157153,9.15962522034691,10.275631737024089,0.4832326513249558,0.5167673486750441,17.713466578840947,18.317785087025726,0.47409128556101826,0.5259087144389818,14.100809062194452,14.851428518654338,1.1791966190739764,0.3162101585353998,1.2916691056645488,1.2297303103402495,0.9156486458840276,0.14874959278516497,-0.6958785752209327,9.18257237054962e-05,0.008550743733172904,0.49279830488608845,1.9252908618525775,5.51121524388754,1.4072584875499372,1.0722332224995894,0.8212102201242437,1.1563667211176796,2.0078398866894442,1.7812529816008364,3.8298887676465188,1.1740462968304861,Relax
81.9665591973452,732.0123456790124,20.778891829907877,,,,,,,18.513508581573618,18.630042431853404,0.028385985499511546,0.025291251835924358,735.0,19.273799999999998,0.02622285714285714,29.0,1.1223637992956657,710.0,748.0,0.0,27.160493827160494,690.0,774.0,5.4,78.125,,,0.05095644898230458,0.03266776242225119,0.00671717987098249,0.09034139127553825,1.5598389728583402,0.5640432172102497,0.3616034905043204,-3.421366546003945,13.173429337356659,26.436160266200787,0.49831099542088864,1094.0750015434678,2.0067789175620527,3.7460172049390614,212.20611633401347,0.6419753086419753,0.6493506493506493,0.9,0.3,49.661590524534695,49.66795232984514,49.655436213416884,46.75324675324675,0.4518964259664479,0.5481035740335521,8.855735465386903,9.752961251053803,0.4757690103290527,0.5242309896709472,18.234608832007588,19.140783953744524,0.4710201790570405,0.5289798209429594,14.33396333693582,15.190290707035215,1.1818122117973755,1.8505824207486041,1.4109491744076572,1.8343507672843544,-1.2441888209299918,-1.5721197793901815,-0.2712063034158612,0.0010346347443188296,0.21375039273574264,0.5274556639140844,1.904237452654745,5.5018956450953995,1.4307872598754638,1.1491116732389135,1.0655388323981376,1.3829927760827934,1.9725554038598783,1.7887026152300356,3.381069514220761,1.0957765437084537,Relax
82.01598210436981,731.675,20.298266434677732,,,,,,,17.923183487570334,18.030510763789135,0.027742189407425063,0.024496099344067154,735.0,20.0151,0.027231428571428573,29.25,1.1325145696775636,710.0,749.2,0.0,25.0,690.0,772.0,5.714285714285714,70.3125,,,0.04524925876104139,0.023879122832820628,0.00472110168448912,0.07384948327835114,1.894929687234935,0.6127227538003118,0.3233485431823022,-3.7347507234263264,12.749496429332332,25.708591521641452,0.4959235677535981,1029.724837446856,2.0164397601221777,3.7196912982168557,207.35930448391102,0.6625,0.6710526315789473,0.9215686274509803,0.3,48.191681735985526,48.21148453424382,48.17223397921868,48.68421052631579,0.44018441169516914,0.5598155883048308,8.462208598171896,9.543087174521293,0.4530673751421795,0.5469326248578206,17.304524856575355,19.012761438433404,0.4505227351768054,0.5494772648231946,13.620858175438299,15.042533203142565,1.255332782242312,0.522281602966741,1.33587574855484,1.3532578095486096,0.5820408393515422,-0.0017269712545600058,-0.46671898666345235,3.515050067805393e-05,0.01405565193657307,0.48101850772656496,1.652923024373839,5.414063213848729,1.363060404217601,0.0,0.8423534010059989,1.0430155350603216,2.0970492395360347,1.744264361138798,2.7908465534735027,1.0273133154191965,Relax
82.06576172826446,731.1375,20.30822228569166,,,,,,,17.66602976321892,17.77890832713784,0.02777620117377601,0.024162390471312054,735.0,20.0151,0.027231428571428573,29.75,1.1495634592427693,708.8,748.2,0.0,25.0,690.0,772.0,5.0,70.3125,,,0.056215214265750824,0.026353798491382096,0.0034110695422439143,0.08598008229937684,2.133097218760842,0.6538167068741949,0.30651050553336234,-3.6361428591134706,12.571586640213143,26.016865925027496,0.48320911044552944,1027.5310264615582,2.06949740471155,3.7187650542983275,215.36734604229108,0.6375,0.6447368421052632,0.9183673469387755,0.21739130434782608,49.95417048579285,49.955969832411505,49.95240042706248,46.05263157894737,0.4615291016021093,0.5384708983978906,8.540626891060615,9.225105099811278,0.46907490362091997,0.53092509637908,17.81870253841932,18.95708712878077,0.4676465366006178,0.5323534633993823,13.972266599320578,14.90761074939156,1.1761223985101912,1.9807233467441927,1.5025640123974968,1.8601771434484866,-0.9010066228574996,-1.1950073686839566,-0.3194532660813964,0.00158652165899027,0.2783535391116766,0.4958096633523481,1.7047480922384248,5.522976257876192,1.342834816415268,1.3502796245757616,1.043567228173262,1.213941529971736,2.0862151211801794,1.723696827840608,3.6314039828836546,1.1853615177913803,Relax
81.93375562505562,732.375,20.465701471214242,,,,,,,17.53080471410399,17.624560184972825,0.027944292843439824,0.023936923999459278,735.0,20.0151,0.027231428571428573,28.5,1.1674136929235799,711.4,750.0,0.0,23.75,690.0,772.0,6.153846153846154,70.3125,,,0.061167428286065875,0.03358832170011255,0.004469026226196619,0.09922477621237503,1.8210921293474724,0.6164531745090219,0.3385074069426171,-3.3935768408779228,12.462446022224716,25.825620504769006,0.48256133942351465,1011.1228570051658,2.0722754151723723,3.711774037934339,214.0711938144173,0.6375,0.6493506493506493,0.9,0.23809523809523808,52.8978840846366,52.91128346601538,52.88476459541205,44.15584415584416,0.48581078298117736,0.5141892170188227,8.695342107069415,8.945705172072294,0.48808941727573324,0.5119105827242667,18.04265565597432,18.47769605054383,0.4876583018606752,0.512341698139325,14.162386759989229,14.516385437875437,1.3333008429084194,0.6937958592905469,1.426782171346832,1.477915806923971,0.40040954841927245,-0.06850633065867928,-0.426298730538077,8.127437852207487e-05,0.0248940548247493,0.49734727433151926,1.7491998548092589,5.5390632138487295,1.333353479472206,0.7838735539822874,0.7119530358693421,0.7504907058261567,2.006590796476812,1.734900773952095,2.5766914102842056,1.0273133154191965,Relax
81.71157458690311,734.475,19.571986568252292,,,,,,,19.30534129539402,19.427993535463756,0.026647587144902538,0.026284545145027427,735.5,20.0151,0.027212916383412646,27.25,1.0138119947623971,717.0,752.0,1.25,28.749999999999996,690.0,772.0,6.153846153846154,70.3125,,,0.053091646098868496,0.0331182539105723,0.007465761997083868,0.09367566200652466,1.6030931534684598,0.5667602978367057,0.3535417119151563,-3.407670670946247,13.737665973774828,24.118910496896138,0.5695807020612613,1040.9275691375096,1.755677459543643,3.724390621010957,169.38011003260445,0.6625,0.6753246753246753,0.9038461538461539,0.25,50.54667788057191,50.53626452441035,50.557066804245274,45.45454545454545,0.472811873790035,0.527188126209965,9.446543255984142,9.974968671630002,0.48743920099450166,0.5125607990054983,16.839062640913603,17.26753638863038,0.48385598579754263,0.5161440142024575,13.652677578258993,14.100847721549833,1.2126305017030492,1.4588392392523506,1.4441861776493128,1.772078000847661,-0.5201348236032768,-1.1390262805333489,-0.2752378642033295,0.0010270497579408567,0.16067333137192144,0.36105837564350773,2.1972245773362196,5.448499307625771,1.401680658961182,1.1748758068759726,0.7803552045207033,1.231696904704405,2.068972196679626,1.785742312500238,3.5803243558032896,1.1063374166052884,Relax
81.41626847560325,737.0,20.323958549929205,,,,,,,18.829010743255214,18.94314080549371,0.02757660590221059,0.02554818282666922,740.0,20.7564,0.028049189189189187,29.5,1.0793959824580535,718.6,756.0,1.25,27.500000000000004,689.0,772.0,6.666666666666667,70.3125,,,0.057527312275546735,0.04021788429951213,0.00831265855629961,0.10605785513135847,1.4303913116644122,0.5424144416676728,0.3792070304429604,-3.213443499215854,13.394823320536197,25.36798949994005,0.5280206900341019,1067.5123585470908,1.8938651815621386,3.7353430214974823,192.17420816068153,0.6375,0.6493506493506493,0.88,0.21052631578947367,51.62950257289879,51.65225849067422,51.60654253527679,46.75324675324675,0.49450157097972014,0.50549842902028,9.422422792575764,9.526615886893428,0.4442868690211963,0.5557131309788036,16.908994705417303,18.9108643197829,0.4552402917088507,0.5447597082911494,13.687515355788312,14.972928898142277,1.1093257165184598,1.6451716915470338,1.4112971129620346,1.7233561256558956,-0.5320557364565079,-1.1005776757538674,-0.3103182699427457,0.0013387873824253361,0.21102465834347003,0.48312338499830876,1.969440646465507,5.453378801695312,1.3429553582291096,1.310829229735218,1.1565423243402513,1.309719767466398,2.0880268487659297,1.8028586983496266,2.8883065967125465,1.0273133154191965,Relax
81.15239355547831,739.3875,18.888408976694837,,,,,,,20.013286725813437,20.14102342006632,0.025546021506577858,0.02706738581030033,740.5,20.0151,0.027029169480081026,26.5,0.9437934525932856,722.0,756.0,2.5,27.500000000000004,701.0,775.0,5.714285714285714,70.3125,,,0.056577268222369026,0.03910327488788798,0.009085334851997104,0.1047658779622541,1.4468677721899328,0.5400352607435137,0.3732443773532488,-3.241549058774738,14.241854240365962,22.78438155498702,0.6250709156180155,1019.4211840333724,1.5998184766144292,3.7153237641440526,145.80349835960496,0.675,0.6883116883116883,0.9056603773584906,0.2631578947368421,49.75288303130149,49.75500892089843,49.75080776307188,46.75324675324675,0.44858099993679285,0.5514190000632072,9.538720013040507,10.575734198917532,0.47646542717955104,0.5235345728204488,15.727255472401573,16.48579625462621,0.46863136359613267,0.5313686364038672,13.006416573779358,13.84968649456011,1.0893969598923585,1.3644767602239445,1.2375541881957752,1.4312989785005799,-0.653536881555894,-0.7407476604482146,-0.3580079954802555,0.00019695955388457744,0.085305259360671,0.3903622694788571,2.2335922215070942,5.507935401402814,1.3806599793368102,1.2925088565615568,0.833051127543801,0.9607575334852987,2.103852775960908,1.8197017311228916,4.972685337681445,1.2643856189774725,Relax
81.10073859930672,739.8875,19.366546747197663,,,,,,,20.998794419885336,21.132969545655236,0.02617498842350717,0.028381063904830577,744.5,20.0151,0.02688394895903291,28.25,0.9222694579484061,722.0,757.2,2.5,32.5,701.0,775.0,5.333333333333333,70.3125,,,0.046268045770076316,0.03697140332394781,0.010341795609946155,0.09358124470397028,1.25145495194408,0.4944157979137602,0.3950727887933218,-3.2976105483026124,14.943266072341608,23.07173803050247,0.6476870555909379,1083.1178518347815,1.543955512724611,3.741645823851101,142.4869484813294,0.7,0.7142857142857143,0.9090909090909091,0.2777777777777778,49.961089494163424,49.964866054195255,49.95724226438517,48.05194805194805,0.4444380651643462,0.5555619348356537,9.962107695843773,11.138118885507208,0.47913357903914944,0.5208664209608506,15.970136056608297,16.651121586294217,0.46888015482608875,0.5311198451739113,13.309561138710963,14.165407554836634,1.058810516069265,1.7430408743964803,1.3496451627400863,1.6772029012174579,-0.5879478706897192,-0.978071562776683,-0.3120768461090811,0.0016467547112006293,0.23285765349990123,0.4053097291632235,1.824549292051046,5.403378801695312,1.363255997365038,1.3532061272352511,0.6294241181527478,0.8027109132927341,1.9335714898344873,1.8341825889162122,3.7597075965630493,1.1063374166052884,Relax
80.94275673153118,741.1518987341772,21.8421426390942,,,,,,,22.04569845826665,22.16727569838278,0.02947053455087773,0.02974518245978831,745.0,20.7564,0.027860939597315434,30.5,0.9907666423199161,722.0,758.0,3.79746835443038,34.177215189873415,701.0,821.0,6.583333333333333,78.125,,,0.055512919531786685,0.03457081111586801,0.009638974532435172,0.09972270518008987,1.6057742858774362,0.5566728202121628,0.34666940746780145,-3.3647455623250706,15.674630966758226,25.23259267165649,0.6212057227224762,1242.5362693082582,1.609772678231991,3.8012791844943594,162.4749531351575,0.6962025316455697,0.7142857142857143,0.9090909090909091,0.23529411764705882,52.82592313489073,52.66934245979922,52.99205189052042,46.75324675324675,0.5043393389432589,0.4956606610567413,11.142232749738744,11.045948895997437,0.5435452421983598,0.4564547578016404,18.602860366653875,17.04750184374565,0.5326135326774428,0.4673864673225573,15.333228043542757,14.363674775723279,0.9352266577602532,2.0478917597336848,1.1946930214715192,1.5453375551994966,-1.4629971151200625,-1.4111845779009204,-0.3287777993825336,0.0006003035119142172,0.2183129547982406,0.49724853902023325,2.3513752571634776,5.51562046328482,1.3440861978842988,1.3015584655628716,1.307406116750671,1.6377857489550358,1.915813968452873,1.860935853451436,2.9367357139231194,1.1969203952235006,Relax
80.81589093500155,742.5443037974684,20.568707542230406,,,,,,,24.65895582874714,24.818398023500237,0.027700310186260072,0.033208733408414855,744.0,20.7564,0.027898387096774193,29.0,0.8341272714496546,724.2,758.0,5.063291139240507,35.44303797468354,701.0,811.0,6.583333333333333,78.125,,,0.051411562918175065,0.030106404698395706,0.009277086929351322,0.09079505454592209,1.7076619886437205,0.5662374803924178,0.3315863936528456,-3.5030173491843066,17.549257540603826,23.35861279859726,0.7512970779522361,1287.821489644649,1.3310313980265145,3.8168257777719585,124.36418819710778,0.6962025316455697,0.717948717948718,0.9107142857142857,0.25,49.756097560975604,49.76023566911799,49.75183830482762,47.43589743589743,0.4240443610449302,0.5759556389550696,11.427922059473568,13.318525326894,0.5491268467187157,0.4508731532812844,17.30945468389342,15.684628475709328,0.5039971264565932,0.49600287354340666,14.666537151815396,14.54975407531256,0.9300368889900201,1.8389741430739264,1.2143990038322106,1.4236425676328732,-0.681549040109207,-0.5861568953688434,-0.386217234435443,0.0008128564475823693,0.1982376378917471,0.45432606636454986,2.2246235515243336,5.520561723102076,1.3991136974449665,1.583414692011811,1.202509356383845,1.511039838000321,2.0823993176769156,1.8926157783367568,3.0713014726438925,1.1969203952235006,Relax
80.90492686048198,741.6625,20.864204553386873,,,,,,,24.590314034265553,24.74738977905223,0.028131669800464325,0.0331556658645483,743.0,22.238999999999997,0.029931359353970385,31.5,0.8484724727107387,722.0,758.0,5.0,36.25,701.0,811.0,7.2727272727272725,101.5625,,,0.022880439834486503,0.024748267780484404,0.010796019038266306,0.05842472665323721,0.924526921941955,0.391622539721694,0.42359235888890795,-3.698999781084056,17.49904712943449,23.9829574077931,0.7296450905486865,1318.460155333884,1.370529333991693,3.8270371196467248,131.47738657301528,0.725,0.7468354430379747,0.9322033898305084,0.3125,49.862258953168045,49.87038353263442,49.853993383977404,49.36708860759494,0.42863722001256005,0.5713627799874399,11.456719000499673,13.227302765928451,0.540505596607559,0.4594944033924409,17.63205101641008,16.2570914673791,0.5016400449413763,0.49835995505862374,14.868517634614724,14.819827283748431,0.9600805339370909,2.306846086258027,1.3178445973420119,1.6450280105228499,-1.045477788523911,-0.8515838153874067,-0.358168511922021,0.001946612073536366,0.3491765093687438,0.45729994358774784,1.5260563034950492,5.529627120071685,1.370972076076638,0.9063465514871992,0.9958788764686363,1.2796651345648637,1.9642015877267025,1.8755166280843139,3.50218795054326,1.1853615177913803,Relax
80.61088836582755,744.2658227848101,21.55179144244043,,,,,,,25.054044148702385,25.199559827858415,0.028957115566317908,0.03366276319790956,746.0,23.7216,0.03179839142091152,31.5,0.860212080513822,723.6,760.4,6.329113924050633,35.44303797468354,701.0,811.0,6.076923076923077,78.125,,,0.017150548825922696,0.04467007679991607,0.014538097963603277,0.07635872358944204,0.3839381987799699,0.22460497006387972,0.5850029269752292,-3.108451424346786,17.818779637194794,24.28967740087192,0.7335947424544699,1359.7202847001215,1.363150445509176,3.8404196864897946,132.4419382810909,0.7468354430379747,0.7692307692307692,0.9333333333333333,0.35714285714285715,52.429842573579734,52.454456633401605,52.40532674583201,47.43589743589743,0.4640836584220092,0.5359163415779905,12.146828991364558,13.053088404018295,0.5597961185372592,0.44020388146274075,18.173421034845653,16.115681683647693,0.5262801410596745,0.4737198589403256,15.456692509318172,14.664554425753526,0.774150328293539,2.6173904446014573,1.1795237495361,1.5210692097851326,-1.4031081186994019,-0.9806026541216273,-0.3695091666764915,0.0019491960426761764,0.4216341842799127,0.4661576064901971,1.5686159179138452,5.52676710279414,1.3627797064775318,0.9678002527269727,1.133725608138435,1.4992187916059434,1.9464624807019313,1.8661617951892364,2.5135755153992445,1.0373310091937005,Relax
80.55772488085223,744.9240506329114,20.937496820909814,,,,,,,24.679483849483624,24.827154738060752,0.028106887948000394,0.033130201432636175,745.0,23.7216,0.03184107382550335,31.0,0.8483766090330084,725.6,762.4,5.063291139240507,37.9746835443038,701.0,811.0,7.181818181818182,85.9375,,,0.03218571363744895,0.061334532433491344,0.019181385709693292,0.11270163178063358,0.5247568108935994,0.28558338622901536,0.5442204470728076,-2.7914122596863162,17.555449472850476,23.5830554882209,0.7444094545602434,1300.6543529089229,1.343346721181484,3.821132008699638,126.72088106217018,0.759493670886076,0.7792207792207791,0.95,0.42857142857142855,52.04918032786884,52.056310434516874,52.04158442420772,46.75324675324675,0.45226067188684005,0.54773932811316,11.81183645837854,12.99900096061332,0.5704829214633724,0.42951707853662774,17.812357237518942,15.455757367515599,0.5283032799146451,0.47169672008535507,15.112900960379411,14.28030920144131,0.8868320477393257,2.7689920219867625,1.2110638280846158,1.7232920608137507,-2.189253272101313,-1.7754979905214174,-0.31501274519324574,0.0018680340161910322,0.43165681594228783,0.4596085600316586,1.5260563034950492,5.588219672063422,1.363944865009298,1.3170667709290655,1.0002427500391033,1.4252543742724058,2.015533656645614,1.897775398047196,2.704223176353828,1.0373310091937005,Relax
80.1922454790249,748.746835443038,20.602133543006076,,,,,,,26.302481115296192,26.443727597877142,0.027515486634164765,0.03512867082734695,747.0,22.238999999999997,0.029771084337349395,28.0,0.7832771917104397,729.6,765.4,6.329113924050633,43.037974683544306,701.0,817.0,6.076923076923077,85.9375,,,0.03633597580722886,0.05891200062440452,0.01817562289648187,0.11342359932811524,0.6167839391313515,0.3203563986901442,0.5193980879938582,-2.831710463332534,18.69853910430878,20.94952944299188,0.8925517470543419,1230.6422530667842,1.1203832195727204,3.7971019321055803,93.88600498349098,0.759493670886076,0.7792207792207791,0.95,0.4,53.116883116883095,53.048302879639266,53.18928975424208,48.05194805194805,0.5052073681479559,0.49479263185204403,13.305110823513422,13.167255726863642,0.5761888739312269,0.4238111260687732,15.90218151805667,13.63830659757877,0.5446766926800036,0.4553233073199961,14.66126445875657,13.404850432328292,0.6682177226269781,2.729871840056516,1.059344939762452,1.4740016495285895,-1.508127096719166,-1.0609482667248844,-0.34810396455917403,0.0027616541564950306,0.48033122323911903,0.6143817992028207,1.774952350911674,5.450817735705531,1.425111764962354,1.316727478421566,1.0633072129298504,1.4809411953257636,1.8660737489539607,1.9107516972439702,2.7547616801258408,1.0373310091937005,Relax
80.04981374037504,749.7179487179487,18.999588126702875,,,,,,,25.357188586020595,25.522127962243296,0.02534231461203913,0.03382230428040642,750.0,18.5325,0.02471,24.0,0.7492781805147491,731.4,766.0,5.128205128205128,42.30769230769231,701.0,811.0,6.0,85.9375,,,0.029103910836070796,0.08014748794625351,0.020173525145374144,0.12942492392769844,0.36312942029558964,0.22487099047730033,0.6192585285275258,-2.5238867423235005,18.046869752413034,20.001268756748882,0.9022862485322892,1133.9902020122568,1.1082957338944903,3.7615794121109243,88.66928334232776,0.7307692307692307,0.75,0.9473684210526315,0.29411764705882354,50.663129973474796,50.68011755581411,50.645897859653374,47.368421052631575,0.44241567360129264,0.5575843263987071,12.004385163676428,13.476587886131696,0.549044864742591,0.4509551352574087,14.820452454495488,13.431490644144374,0.5011902541971539,0.49880974580284615,13.486123870739437,13.454058160576857,0.8103792259385639,2.3590188892263546,1.0398584459961593,1.4840267904724826,-1.783237510578422,-1.4094841057012317,-0.31171479952753184,0.0015519021927091843,0.30318035882782046,0.43409458666505696,2.0476928433652555,5.442140199492796,1.5039969358848337,1.039628230184587,1.176388022910252,1.2020798028814617,1.9583988350029709,1.9145990078493902,3.0334151937173743,1.1281491162060446,Relax
80.03479489527504,749.7692307692307,19.589238416494442,,,,,,,26.404200767715317,26.573843774138712,0.0261270236395227,0.035216436850343605,750.5,18.5325,0.024693537641572283,24.5,0.7418985557951977,733.0,766.6,6.41025641025641,43.58974358974359,701.0,811.0,6.0,93.75,,,0.02989807885931378,0.06233093496077868,0.017869586624599816,0.11009860044469227,0.4796667798762676,0.2715573017145935,0.5661373960161324,-2.77529742810095,18.790545134885402,20.252823571321425,0.927798786609357,1195.569512428061,1.0778199049542871,3.784544941761387,87.31558550679041,0.717948717948718,0.7368421052631579,0.9464285714285714,0.2777777777777778,48.96291640477687,48.94780036637791,48.977969067675424,48.68421052631579,0.42935379915429467,0.5706462008457053,12.314144627002594,14.196459899714807,0.5325986399684874,0.46740136003151245,14.780380210711721,13.846198880482486,0.48483083532591054,0.5151691646740896,13.603267935829528,14.022423063117248,0.6594442260883407,2.652581961187767,1.0238113234217574,1.6516938861724582,-1.7364780769713484,-1.9025266567573382,-0.26329381261812207,0.004228482243360209,0.5427224517685982,0.41261792675023345,2.740840023925201,5.451818244392328,1.518390567264989,1.3893280790057603,1.2906001899228976,1.4006334173435244,1.9942330792883023,1.9396515890650394,4.012526211334956,1.208731195935048,Relax
79.90938069556395,750.9113924050633,18.679613097498812,,,,,,,25.54533426213293,25.709628837947367,0.024875921828367318,0.03401910600971817,751.0,17.7912,0.02369001331557923,22.5,0.7312338490394504,738.6,767.0,5.063291139240507,40.50632911392405,706.0,811.0,5.266666666666667,78.125,,,0.03277608800839474,0.0728251676933113,0.023700048490601054,0.1293013041923071,0.4500653969850741,0.2534861362237117,0.563220673977116,-2.619693673450498,18.1794528931018,19.32149958777388,0.9408924400777497,1103.4979019696814,1.0628207406123553,3.7497416217559247,82.1411620064766,0.7215189873417721,0.7402597402597403,0.9473684210526315,0.3333333333333333,49.42233632862645,49.43495785086839,49.40998752607803,48.05194805194805,0.4248722986247544,0.5751277013752456,11.850256175651706,13.78734597705117,0.5620064473485858,0.43799355265141404,14.484765844101227,12.787177357098976,0.49760897242706975,0.5023910275729302,13.2332349217229,13.296669016201273,0.5900892074163773,2.8187385710910657,0.9119686738973782,1.5508552863738574,-2.3078107820700264,-2.122284322881929,-0.2733430765701761,0.0029132738307881072,0.5031675801160854,0.36741825049814647,2.639057329615259,5.385688026493803,1.501583599197899,1.097869896943213,1.3798789677581265,1.5428897321818118,2.0234973765465734,1.9226069196644735,3.9610219003621223,1.2767150882384006,Relax
79.91655495583852,750.7948717948718,19.086514566442933,,,,,,,26.5329983228432,26.70570735245193,0.025421743386198365,0.03533987686864809,751.0,17.7912,0.02369001331557923,22.75,0.71935008377891,736.2,767.0,5.128205128205128,44.871794871794876,706.0,811.0,4.875,78.125,,,0.027820103924873715,0.10336564623777614,0.022932529982671455,0.1541182801453213,0.26914264978209507,0.1805113831963448,0.6706903693728644,-2.269482613526372,18.8837867653022,19.39426175256131,0.973679070965839,1150.567793531742,1.0270324481844433,3.7678823231353613,79.67414451385181,0.717948717948718,0.7368421052631579,0.9464285714285714,0.35294117647058826,50.61124694376527,50.611849610302706,50.610434470316704,44.73684210526316,0.4293462219598583,0.5706537780401417,12.37410283829222,14.265803794204407,0.5862675038780687,0.4137324961219316,14.849819127564011,12.474785000371613,0.5098954316500569,0.49010456834994326,13.668129886235306,13.400250346546391,0.6594368235691442,2.66556561446674,0.9014832776757422,1.5758021735471368,-2.5662950980716914,-2.4653455946102416,-0.24702596244050984,0.002393639893973755,0.4222924280510437,0.42688561881085807,2.772588722239781,5.344580706230785,1.5705503098893507,1.1339791914157908,1.5727687670929682,1.675670312743966,1.9048729447972104,1.9552395166064733,4.184217415943699,1.289313275664051,Relax
79.79306412881967,751.9615384615385,18.478799581304894,,,,,,,25.130826519604195,25.29549899309436,0.024574128643748517,0.033420361593254004,752.0,17.7912,0.023658510638297874,22.75,0.7353040922426427,738.4,766.6,3.8461538461538463,39.743589743589745,706.0,811.0,5.571428571428571,85.9375,,,0.03143257967181727,0.06998317042577867,0.013759522036955563,0.1151752721345515,0.4491448369741036,0.2729108348456664,0.6076232261385244,-2.6595004883277737,17.886618871514504,19.2109516427789,0.9310636559869644,1079.510832393932,1.07404041986792,3.7401971145989763,82.53335427389025,0.6923076923076923,0.7105263157894737,0.9444444444444444,0.2631578947368421,49.80263157894738,49.811760252523634,49.793593545208665,48.68421052631579,0.4447254780999384,0.5552745219000615,11.92823938126839,13.32859016511025,0.5470636504484052,0.4529363495515949,14.209140492981287,12.929075352549724,0.4995430031489077,0.5004569968510922,13.118356762303018,13.13035234221425,0.6135911756948814,3.342968434537469,1.0531350466059872,1.8323855911059383,-1.934336028464612,-1.7251938666909965,-0.26689862325673813,0.01171725309266741,1.0027654857045196,0.38165835924250935,inf,5.493422250774847,1.5286489756663728,0.9574340781960761,1.2404769476758906,1.4384203127872066,1.9845147075628353,1.9528811348865003,3.9673903300483593,1.3698953553930542,Relax
79.78875327024438,751.6455696202531,21.207181883820024,,,,,,,27.460694521256077,27.617677259974226,0.028214337635934353,0.036534100154584546,752.0,19.273799999999998,0.02563005319148936,25.0,0.7722740540085214,736.8,768.0,5.063291139240507,41.77215189873418,683.0,811.0,6.076923076923077,109.375,,,0.03882378813676627,0.11034624120940051,0.022818863926656892,0.17198889327282366,0.35183607263152367,0.22573427503356638,0.6415893439953693,-2.2041322093026605,19.52864687114928,21.566416168670827,0.9055119180867065,1323.1223531368398,1.1043476955145342,3.8285701165341854,95.26728798551608,0.6455696202531646,0.6623376623376623,0.9019607843137255,0.25,47.467968273337405,47.38668871774655,47.545314039518765,49.35064935064935,0.3845696118601133,0.6154303881398868,12.119534515942306,15.33161575172172,0.49419786203815086,0.5058021379618489,15.161019722141804,15.337985113603857,0.44476572398127406,0.5552342760187261,13.724788448247383,15.334800763354819,0.5870707138251534,3.356918197734151,1.0255484662532968,1.8784458797237678,-2.0174431384214504,-1.9853379378781497,-0.24592844888321713,0.013119505992388265,1.0674502061693896,0.5268403580861323,1.9459101490553135,5.436320937886205,1.4991318623248948,1.1297750083305196,1.4890230862112759,1.610873161052722,1.968089877670159,1.9930088087815758,3.171495895927013,1.2767150882384006,Relax
79.78505667173516,752.1794871794872,19.11533252119715,,,,,,,23.809307358323483,23.964522935689786,0.02541325953048198,0.03165375786516502,752.0,19.273799999999998,0.02563005319148936,25.5,0.8028512645713161,737.4,768.0,2.564102564102564,41.02564102564102,706.0,814.0,6.0,85.9375,,,0.030695017540345697,0.13237132942451726,0.01933149271551388,0.18239783968037684,0.231885693630123,0.16828608054861738,0.7257286032360741,-2.0221442040605564,16.945476675726795,21.232926074670285,0.7980754332273505,1130.3514881972862,1.2530143873193582,3.7601836203908277,106.42064742580085,0.6538461538461539,0.6666666666666666,0.94,0.19047619047619047,50.528401585204755,50.53390580390579,50.52269612811789,48.0,0.48258877434135167,0.5174112256586483,11.772235400117918,12.189566289076469,0.5410791441512371,0.4589208558487629,15.618533193202039,14.383969222202154,0.5183195853628358,0.481680414637164,13.829752445776883,13.331993416234655,0.6782127986511012,2.6965967610860213,1.0010883709088318,1.6364887559562535,-2.070124359265108,-2.043103504246661,-0.2643695215329407,0.0034149657496879496,0.4982890904529402,0.4106336821411771,3.332204510175204,5.422784109693732,1.6078085320696571,1.078815234590405,1.610873161052722,1.802819924891791,1.951606650122765,1.9856210728788781,3.2445923595355093,1.289313275664051,Relax
79.66581733627682,753.3717948717949,18.84668765851537,,,,,,,24.418962186909464,24.572955531247555,0.025016449761996476,0.03241289673057771,752.0,18.5325,0.024644281914893616,24.5,0.7718054319531531,739.4,768.6,2.564102564102564,43.58974358974359,706.0,814.0,5.571428571428571,85.9375,,,0.02701027827118459,0.162087280608223,0.020061832147153454,0.20915939102656106,0.16664033210891138,0.1291372963873019,0.7749462255206108,-1.8196203196472005,17.375703489940626,20.132120847428077,0.8630836076150621,1098.9597799252265,1.1586363026442774,3.7479519082304407,93.30322425220739,0.6666666666666666,0.6799999999999999,0.9411764705882353,0.19047619047619047,51.33757961783439,51.34883027084233,51.32601666009455,48.0,0.49187611621727567,0.5081238837827242,12.189296426308658,12.388980672567987,0.5347206897972151,0.46527931020278485,14.721532528460036,13.732398546100411,0.5164248685380856,0.48357513146191455,13.514852336502386,13.077951137968896,0.6106332756505509,3.025772021946837,0.9397647051807572,2.036214910698532,-2.3518737797841798,-3.1656292785465534,-0.1376296040928098,0.014154362450527163,1.0241930949919313,0.43459477283918835,3.295836866004329,5.355539077670186,1.6718049912315942,1.4650297915911152,1.6548662091416022,1.8540598571989841,1.973037415865616,1.995499989552699,2.9939054308135784,1.208731195935048,Relax
79.49177486315324,754.8461538461538,18.244427665979025,,,,,,,24.119561495873985,24.277551802665368,0.024169729915186726,0.03195295011172545,753.5,17.049899999999997,0.02262760451227604,22.75,0.7564162254400856,742.4,768.6,2.564102564102564,42.30769230769231,706.0,814.0,5.2,85.9375,,,0.013379225495440662,0.10746137736375562,0.023513320084148588,0.14435392294334487,0.12450264293702588,0.09268349084417787,0.7444299065286324,-2.23062377630822,17.16682151027237,19.47922022324843,0.8812889486091331,1050.5369492002358,1.1347016226383173,3.7283814418599475,88.41241118019649,0.6410256410256411,0.6533333333333333,0.9387755102040817,0.13043478260869565,50.2262443438914,50.22718712718086,50.2252341437143,49.333333333333336,0.4882464560776872,0.5117535439223128,11.99533900707841,12.280708020048527,0.5236566905582161,0.4763433094417838,14.095967700140848,13.444095919859985,0.5081770061347842,0.4918229938652157,13.087865817201651,12.875548620856513,0.539685093182025,3.1371582103983515,0.8859357537665912,2.039349518463698,-2.50320406439943,-3.3661067801453886,-0.13233803100078662,0.015387204556923826,1.1143028191461308,0.4295811982015527,2.367123614131617,5.3236131161871985,1.6969033540177694,1.3397414485065318,1.4157401200339863,1.655410278997251,1.9776932713880908,2.0051867931238196,3.8547633307282387,1.289313275664051,Relax
79.45429484479345,755.2307692307693,18.58565504432312,,,,,,,24.363854428177053,24.52027074433022,0.024609239720533766,0.03226014540296411,755.0,17.7912,0.023564503311258277,23.75,0.762837222620597,741.0,770.0,2.564102564102564,41.02564102564102,706.0,814.0,5.571428571428571,85.9375,,,0.030060506192723782,0.15262046660541315,0.01534934206558853,0.19803031486372547,0.1969624838747387,0.15179749733473846,0.7706924402480444,-1.879801049823442,17.338449719846007,19.807079625248406,0.8753662855853017,1078.8984856758873,1.1423789292174573,3.739950693491018,90.50876165286476,0.6282051282051282,0.64,0.9375,0.125,50.98789037603571,50.99450789451087,50.980927104410526,48.0,0.4904719189620844,0.5095280810379155,12.144416087456126,12.378089725929357,0.5320879784106839,0.4679120215893163,14.448147641514948,13.548853568103668,0.5140307292846074,0.4859692707153927,13.346082053851555,12.97668174598332,0.6289398066702415,2.026425249454035,0.8481990279468472,1.4120923847619378,-1.6259040959066553,-2.029285644606523,-0.22172999869251714,0.0018746779224275013,0.2821263934187375,0.3912423508672469,2.0149030205422647,5.400536193110275,1.724545133304374,1.4467672686422772,1.306306527864749,1.7608197708356923,1.998561286540753,2.002445681622768,3.205619644489276,1.208731195935048,Relax
79.27468748475654,756.8571428571429,19.29188149790796,,,,,,,24.661124318075583,24.821139123102732,0.02548946215276627,0.032583591964237275,757.0,19.273799999999998,0.025460766182298544,25.0,0.7822790741040062,743.0,773.4,2.5974025974025974,42.857142857142854,706.0,814.0,5.923076923076923,93.75,,,0.030914800838248165,0.1676443811119092,0.007564457579153326,0.2061236395293107,0.18440702058252295,0.1499818308508573,0.8133195275162519,-1.7859103222181432,17.55119579072066,20.93551293267941,0.8383456305636543,1154.357129355576,1.1928254451897826,3.7693102994695846,99.88965013679906,0.6363636363636364,0.6486486486486486,0.9375,0.13043478260869565,51.04364326375713,51.03648095241029,51.05047317216346,48.64864864864865,0.4939529651024427,0.5060470348975574,12.337206599010438,12.487326909043958,0.5414067256798397,0.4585932743201603,15.404422766413212,14.177427869257395,0.521817092239275,0.47818290776072503,13.95533782165549,13.359131602041534,0.5976394594522451,2.9707839469756028,0.9128971498781473,2.0249796615832105,-2.2188295714014874,-3.1009079881251904,-0.1256602527971732,0.0154240743402466,1.0477754926485352,0.4070464663490916,2.0476928433652555,5.484128586065156,1.7056204297146702,1.2732182939801096,0.8230107668769034,1.3330558993254968,1.9147814910942667,2.0005142746978657,3.6118730542084454,1.302189411053486,Relax
79.20430025830619,757.6025641025641,19.672209776632556,,,,,,,24.749918011145848,24.911799299948253,0.025966398094145488,0.03266873580406099,757.0,19.273799999999998,0.025460766182298544,24.75,0.7948393917011521,743.0,774.0,2.564102564102564,43.58974358974359,706.0,814.0,6.0,85.9375,,,0.019869932435449215,0.15046638717877786,0.009699870420682152,0.18003619003490923,0.13205562257463252,0.11036632374633351,0.8357563395981789,-1.8940155607423212,17.615302216551697,21.74969064290805,0.8099104720965556,1203.6301428919987,1.2347043709798857,3.7874631653406867,107.41775241703556,0.6410256410256411,0.6486486486486486,0.9166666666666666,0.18181818181818182,50.345260514752056,50.34449430407748,50.3458582750494,50.0,0.500646638539657,0.499353361460343,12.464159143636394,12.448049942397445,0.5179489416363863,0.4820510583636139,15.65296301650816,15.10078778958332,0.5110950354068448,0.48890496459315524,14.14868393798637,13.838131001592117,0.6034979480374905,3.1565566284353768,0.9658386744221996,2.048018666378307,-2.2718777019050744,-2.970814144333618,-0.15716439800019807,0.015378345953379474,1.1093493144712936,0.3456168674641411,2.0794415416798357,5.477459270033353,1.6917780991654954,1.345448329928668,0.5972531564093516,0.9202434863103743,2.0097536081095506,2.013241585874284,4.01718804388808,1.208731195935048,Relax
78.94496716476158,760.012987012987,20.78492210745537,,,,,,,24.993683412540776,25.14882020880377,0.02734811439097185,0.032885863583425434,761.0,22.238999999999997,0.02922339027595269,29.0,0.8316070010323637,743.2,777.8,2.5974025974025974,44.15584415584416,706.0,814.0,7.0,101.5625,,,0.023805256062650895,0.16140138055434963,0.011043338671443644,0.19624997528844418,0.14749103124700233,0.1213006831091949,0.8224275203965005,-1.8238609695623649,17.78290130848643,23.197126258799106,0.7665993239891532,1295.9453187154259,1.304462407814684,3.8195567872053506,121.03911669573728,0.6623376623376623,0.6712328767123287,0.9183673469387755,0.2,51.77664974619288,51.769071444969384,51.783915305908366,50.68493150684932,0.5236329935125116,0.4763670064874884,12.873745893613611,12.278979327832316,0.4701422270677439,0.5298577729322563,15.905554585322282,16.885496735364345,0.4899525711432851,0.510047428856715,14.469277798148738,14.763016855191443,0.6982079905918364,2.2787136773179686,0.9410777531973831,1.4462012798893857,-1.6496070316074025,-1.5943629088870326,-0.2783295322620217,0.0021201078431928567,0.3267496988877156,0.5541367292549073,1.727220948090484,5.500298878244851,1.6278413789657231,1.401972112626402,1.0915435331836096,1.206261369756362,1.9875165333562488,2.007030197258533,3.1784330455598413,1.220802572862643,Relax
78.66136396966735,762.7792207792207,19.38842803040228,,,,,,,24.561148181630273,24.724315043817995,0.02541813869889631,0.032199550685897964,763.0,20.7564,0.027203669724770643,28.0,0.7893942044982749,746.2,779.0,1.2987012987012987,45.45454545454545,707.0,814.0,6.416666666666667,101.5625,,,0.037497049765734466,0.17169530605267602,0.0072588992562169635,0.21645125507462748,0.2183929813097534,0.17323553865652724,0.793228507700172,-1.762033849526505,17.482730827676274,21.261849121611597,0.8222582489265226,1167.7776947121715,1.2161629285027222,3.7743302856587557,103.43149077248876,0.6753246753246753,0.684931506849315,0.92,0.2631578947368421,49.90353697749196,49.90107138558926,49.906067976131965,52.054794520547944,0.5220407005910965,0.4779592994089036,12.631706139710502,12.08663173372411,0.4609247211518631,0.5390752788481369,14.434974891402483,15.610820861016734,0.4855777203622801,0.5144222796377199,13.563342141880446,13.960379554679413,0.6834360824227067,2.7258171989636,0.9348121623103819,1.980670298728738,-2.0419763905371617,-2.8590731239505485,-0.11631391246045103,0.013634515841076958,0.8840110401554083,0.34173394141804403,2.1594842493533726,5.500298878244852,1.6859705864966463,1.1402692460795987,0.7131578574783295,0.8530618044621852,1.9110276140893119,2.0014163809612597,3.9063586440981903,1.1394157346718001,Relax
78.63970711975392,763.0519480519481,19.488117907489507,,,,,,,24.504833035653665,24.661081634194822,0.02553970009151037,0.03211423953272627,763.0,22.238999999999997,0.029146788990825685,29.0,0.7952765023591463,746.2,779.0,1.2987012987012987,44.15584415584416,707.0,814.0,6.416666666666667,85.9375,,,0.015483763342755159,0.12674842625557772,0.005635179411698529,0.14786736901003142,0.12216138535348305,0.10471386247296204,0.8571764487605039,-2.0655510527174896,17.438018054934183,21.26795423149539,0.8199198599511036,1165.1255144057677,1.2196313918529007,3.7733428226866037,103.75625848489005,0.6623376623376623,0.6712328767123287,0.8979591836734694,0.2631578947368421,48.588312541037446,48.59852911247866,48.578462464367135,54.794520547945204,0.5101562328812149,0.4898437671187851,12.458464324840897,12.207920925912541,0.4342045132276965,0.5657954867723035,14.014347552664368,15.997622944241204,0.46474759560588935,0.5352524043941107,13.259247163021797,14.229498817587462,0.695803841589876,2.8874721074538288,1.0018464413035684,2.0302423121748174,-2.063840126548266,-2.7877193838863144,-0.14384214544739346,0.01370841401783886,0.9480044808577037,0.33484909742114155,2.0794415416798357,5.5424431963985725,1.6344945772683703,1.3955273363350842,1.039720770839918,1.1968729356955115,1.9325515787520113,1.969759503657182,3.047373035745473,1.302189411053486,Relax
78.82464266807143,761.3376623376623,20.594206127995772,,,,,,,25.229212391486517,25.396819112885606,0.027050029371674503,0.03313800648456172,762.0,23.7216,0.03113070866141732,31.0,0.816284147456985,743.2,779.0,1.2987012987012987,48.05194805194805,707.0,814.0,5.923076923076923,85.9375,,,0.023300196887333632,0.10139089872199736,0.008960083969590376,0.13365117957892136,0.2298056056413919,0.17433588660229374,0.7586232986602693,-2.2887719480467026,17.95826301528953,23.164512710670333,0.7752489007471055,1306.884988294212,1.2899083107841913,3.823207479373262,119.5203898430388,0.6753246753246753,0.684931506849315,0.9,0.2777777777777778,50.09276437847867,50.09135803313091,50.09412375923983,54.794520547945204,0.5401963824289407,0.45980361757105936,13.198989860339061,12.177301288326024,0.41064062221973124,0.5893593777802687,14.844108615729267,17.783337384395516,0.4592752315845223,0.5407247684154773,14.045655804000418,15.240304380062522,0.7739102913082266,1.8925772611954081,0.9187855577908508,1.3045949281246185,-0.9361100654872168,-0.725771853381159,-0.29614603945411505,0.002446472121234596,0.23684946610196828,0.4703044159364205,1.897119984885881,5.536076638013208,1.602057236360581,0.0,1.336236233972805,1.3947965187010551,1.9427931752042804,2.0102802731837754,4.31843232357454,1.1394157346718001,Relax
78.83737247480387,761.2435897435897,20.345193693521487,,,,,,,24.16447967414316,24.320182809058586,0.026726259462328445,0.03174342615125666,762.0,23.7216,0.03113070866141732,30.75,0.8419462768441713,743.4,779.0,0.0,47.43589743589743,709.0,813.0,6.0,39.0625,,,0.030286350746407224,0.10001207221565796,0.008940099854746735,0.1392385228168119,0.3028269495416532,0.21751416298960044,0.7182787506819365,-2.3024643781237994,17.196966183981825,23.187322266178093,0.7416538221434034,1252.71508745511,1.3483379578763146,3.8048224179742887,125.05738701199427,0.6538461538461539,0.6621621621621622,0.8775510204081632,0.2777777777777778,50.893997445721595,50.89429698383897,50.89324755703998,51.35135135135135,0.54586094924603,0.4541390507539701,12.706970735118496,11.590320371576857,0.4159831618444628,0.5840168381555372,14.955070815803516,17.719982245191442,0.46207828665547745,0.5379217133445229,13.876621497483743,14.972195849067855,0.7964386213729312,1.501942447289153,0.8941363094588384,1.4874791580006193,-1.0509093934283804,-1.876372003234973,-0.1049496772578058,0.0026376605966555813,0.21727504545175277,0.551630401086936,1.9042374526547454,5.503100295674378,1.6101135484248164,0.7051320461322251,1.2522848746399509,1.3680381853686037,1.9736080638750917,2.0111992050872676,3.5987454530599994,1.208731195935048,Relax
78.77934445886977,761.5454545454545,21.306995055087235,,,,,,,25.612753813183325,25.782909476097366,0.027978625475224974,0.033632600208310444,762.0,23.7216,0.03113070866141732,32.0,0.8318900501874249,743.0,779.0,3.896103896103896,46.75324675324675,709.0,831.0,6.416666666666667,39.0625,,,0.012619588188144841,0.05321251972769149,0.004296305033809693,0.07012841294964602,0.23715449395600938,0.17994971877099267,0.7587868809450947,-2.933461577093775,18.231270129267344,24.186053324976292,0.753792687227742,1385.2616292096852,1.3266247032426726,3.8485019146918704,128.34326325943252,0.6623376623376623,0.6756756756756757,0.88,0.3157894736842105,49.906774394033555,49.90427609266072,49.909352597648045,54.054054054054056,0.5540846821910664,0.44591531780893356,13.570801990548189,12.174289849241037,0.3945227851991441,0.6054772148008559,15.191513757968329,18.819752527067283,0.45233655556842545,0.5476634444315747,14.403970926886927,15.849233711971516,0.7092460782029942,1.1632804693978653,0.8327947569267757,1.2311574861253278,-0.9582754123283141,-1.839538513582208,-0.15755229312432983,0.0003288478463753031,0.08526629316859866,0.5202974760887122,1.8607523407150064,5.441984267911435,1.576412210880308,0.9850484705987106,1.0362435279007665,1.189225530107621,1.9107615843483101,2.005455411752473,3.9147932988304563,1.1394157346718001,Relax
79.0070951103865,759.6753246753246,22.110036753070908,,,,,,,24.208795704736826,24.36956327132449,0.029104587229446276,0.0318672924055857,761.0,25.2042,0.03311984231274639,32.0,0.9133059332127264,741.2,779.0,1.2987012987012987,48.05194805194805,709.0,825.0,6.416666666666667,93.75,,,0.013076002476022312,0.050566724623168066,0.004429552857992718,0.0680722799571831,0.2585890736144556,0.19208997383732423,0.7428387098973932,-2.9844615351559804,17.231883443708174,25.800521890546342,0.6678889487899144,1396.7256604403128,1.4972548981560578,3.8520812219764053,154.5198311024124,0.6233766233766234,0.6351351351351351,0.851063829787234,0.25,49.840051183621235,49.83151161108499,49.848274360326194,52.702702702702695,0.5257403291349544,0.47425967086504567,12.494532137432492,11.867041192591634,0.46815554575030055,0.5318444542496994,17.653205511179678,18.81571856200599,0.4859190014750121,0.514080998524988,15.292955864601158,15.729874946598963,0.9177873421582075,0.4653463052928819,0.9177873421582075,0.9303503675576565,0.26663511932427575,-0.03791458205675369,-0.47300284700543155,9.231037308376908e-05,0.007516597926702553,0.45022000190376765,1.9740810260220099,5.562050663987233,1.500265856541052,0.840093846785475,1.2382336902299518,1.3343945946083746,2.0232760720572536,1.9856440169536957,2.830086116203222,1.302189411053486,Relax
78.88666952277812,761.2948717948718,25.157740785132543,,,,,,,29.940200139871884,30.129442775152956,0.03304598745794679,0.03932799398646043,761.5,25.9455,0.03407156927117531,34.25,0.8402662863842898,740.4,783.0,5.128205128205128,47.43589743589743,706.0,840.0,7.8,39.0625,,,0.04743499619952493,0.09740540366562131,0.006426748082892912,0.15126714794803917,0.4869852637987357,0.31358425701143666,0.6439296634261951,-2.3288735907594016,21.304733299682685,27.111620872413,0.7858155511963868,1814.602301341537,1.272563260522806,3.965751567290716,138.0050106218242,0.6025641025641025,0.6133333333333334,0.8043478260869565,0.2631578947368421,51.43348623853209,51.32024726014293,51.55284891489631,54.666666666666664,0.63602515067223,0.36397484932776997,16.99477473875581,12.856239525492752,0.448191038742629,0.5518089612573709,18.150436220387885,20.139554397729146,0.5199202567373127,0.4800797432626874,17.582103165028652,16.89503693508738,0.9669817818817306,0.3077120117329941,0.9669817818817306,0.9907383419200702,0.29789322966001475,-0.2700253283319505,-0.4227961238674248,0.00010752201418794091,0.005326079889317322,0.47274411818403417,1.7047480922384253,5.647268404621001,1.4280795844145378,1.4077414644817468,1.277542500285961,1.4945583251100736,1.99131415215634,1.9801095449302606,3.3141474721866624,1.208731195935048,Relax
78.70818541083624,762.4155844155844,22.974442693745043,,,,,,,24.93016562108517,25.094274876532044,0.030133752724054927,0.03269891923863929,764.0,23.7216,0.031049214659685864,33.0,0.9215519480670423,741.4,784.6,2.5974025974025974,46.75324675324675,709.0,825.0,5.923076923076923,93.75,,,0.04922592576397791,0.06811676026754422,0.002603366203084925,0.11994605223460705,0.7226698035935911,0.41040054963789097,0.567894974436608,-2.68653198351498,17.74433193415502,27.1791893428287,0.6528646498736325,1515.1164897276763,1.5317110525030857,3.8874161348140026,166.52265885793918,0.6233766233766234,0.6351351351351351,0.8085106382978723,0.2777777777777778,50.68049254698638,50.657472779599686,50.70348756302666,52.702702702702695,0.5636921774108182,0.4363078225891819,13.323162787666696,11.721490235176299,0.4753409667775959,0.5246590332224041,18.738685475062898,19.686797606517928,0.5017471704380975,0.49825282956190253,16.257998031738097,16.201285957190766,0.8545365321002151,0.9896982109102916,0.9527398185016132,1.1480831430225042,-0.408377099939468,-0.8839206878249861,-0.3026233427852509,0.00010185707647871378,0.045328293220055826,0.4584114131485837,1.8191584434161696,5.474324852270826,1.446160775785702,1.0835482784233983,0.9027294781610562,0.8884398747010689,1.9393382720813857,1.9147498334321993,3.721722703572999,1.220802572862643,Relax
78.46956961456097,764.4935064935065,24.351387822021763,,,,,,,24.405834073887032,24.56362665377336,0.031852968815541664,0.03192418753931474,765.0,28.1694,0.03682274509803921,37.0,0.9977691296392315,743.0,786.8,3.896103896103896,42.857142857142854,709.0,825.0,6.416666666666667,101.5625,,,0.03906683993891853,0.056488228918020376,0.00269331949350141,0.09824838835044031,0.6915925793250667,0.39763339220966926,0.5749532370600685,-2.873723000269215,17.36910697741776,29.60173507242854,0.5867597603626817,1615.267779943597,1.7042750160336329,3.915214640165497,201.797990060746,0.5974025974025974,0.6081081081081081,0.7777777777777778,0.2777777777777778,51.18805159538356,51.1460042051737,51.230454822256576,55.4054054054054,0.5771278358258412,0.42287216417415896,13.197474505879272,11.296902230257638,0.4118571877054562,0.5881428122945438,18.99723925367344,22.701709628064016,0.4541960727585003,0.5458039272414995,16.356473223079668,17.930248465051097,0.8864709112971582,0.6979975288576821,0.9752432293977202,0.9254033412439018,0.3109137653796248,0.11957441799788615,-0.5714041040165065,4.1356857584417124e-05,0.018407832871794153,0.4118454079027347,1.3862943611198904,5.604194982140954,1.381485560736779,0.991773758764621,0.9952103066317438,1.4931328910233794,1.8778408838075002,1.8933819848900386,3.72436465594694,1.302189411053486,Relax
78.6115458260038,763.4025974025974,24.314961681766693,,,,,,,24.64110814322919,24.80206556197187,0.03185077148610179,0.03227799882665863,764.0,29.651999999999997,0.03881151832460732,39.0,0.9867641317278941,741.4,786.0,5.194805194805195,42.857142857142854,709.0,825.0,5.923076923076923,101.5625,,,0.041016923963508596,0.07151374187116186,0.004512832677203651,0.1170434985118741,0.5735530387628731,0.35044171171410615,0.6110014035842133,-2.6378656537468124,17.537708746303647,29.303433724909695,0.5984864746889895,1614.5118585394666,1.670881535826957,3.91501134920617,195.85026538912226,0.5454545454545454,0.5599999999999999,0.7380952380952381,0.2222222222222222,50.93959731543624,50.97471616052254,50.905447197838484,56.00000000000001,0.5859446105837992,0.4140553894162006,13.426093996393739,11.286274850454422,0.4070631335066593,0.5929368664933407,18.696030113714702,22.56434546042159,0.45424621176399665,0.5457537882360035,16.27577251642648,17.83997878442192,1.0556801130863673,0.556534127900254,1.0556801130863673,1.1025503916776809,0.25266536994481914,-0.04006327010226762,-0.41578184294258774,0.00014619257070933232,0.012336764572456202,0.3703166043415842,1.3862943611198908,5.5424431963985725,1.349520849641165,0.7394585890605215,0.9634572526320548,1.1533629664967824,1.9348754397988297,1.8745137116417372,2.5519474378550906,1.1394157346718001,Relax
78.48385225378294,764.3896103896104,24.221106413597997,,,,,,,23.714585784857565,23.872155842349123,0.03168685979555958,0.03102421260379273,764.0,31.1346,0.04075209424083769,39.0,1.0213590333533829,743.0,786.8,3.896103896103896,41.55844155844156,709.0,825.0,5.923076923076923,62.5,,,0.03459786911567341,0.04448701077800853,0.002451950671654224,0.08153683056533617,0.7777072118492694,0.4243219766550754,0.5456063286929053,-3.1125580250479095,16.880163277667126,29.84650057362215,0.5655659106845357,1582.7777421239994,1.7681405139670545,3.9063900443150095,211.091227457449,0.5324675324675324,0.5466666666666666,0.7560975609756098,0.2222222222222222,50.03489183531053,50.02975857334654,50.04003484180932,54.666666666666664,0.5610303923633047,0.43896960763669546,12.643575443678897,11.18391702401265,0.4241984720411702,0.5758015279588299,19.43918122002772,22.647998365995825,0.4573592359061011,0.5426407640938988,16.397282800895372,17.86073668674041,1.0268602425614604,0.7737621368937302,1.0898427322948727,1.1032511882909641,0.259257230595904,0.14751867909294925,-0.48267108797812247,6.66917341364299e-05,0.022965341579373345,0.4070228649497194,1.6341305250244722,5.474324852270825,1.3821749678275361,1.0118136765646,1.1878653280608367,1.3513368702294575,1.9570353966633556,1.8527715289249662,3.077961832113305,1.220802572862643,Relax
78.5771863414157,763.6493506493506,23.73303617643017,,,,,,,23.348053001211223,23.50319127267614,0.03107844740030141,0.030574311339828648,764.0,26.686799999999998,0.03493036649214659,33.0,1.0164888770467917,743.0,785.0,3.896103896103896,42.857142857142854,709.0,825.0,6.416666666666667,101.5625,,,0.04412549465563315,0.05190865473140518,0.0022901221331462756,0.09832427152018461,0.8500604549271213,0.44877520039977925,0.5279332755671529,-2.9582697448822928,16.61926592843378,29.3673228116355,0.565910145607455,1533.2962267182754,1.7670649797709275,3.892596176884686,207.57587076027593,0.5194805194805194,0.5333333333333333,0.75,0.15,50.0,49.996103211957184,50.003903154176854,53.333333333333336,0.554839488293507,0.44516051170649285,12.379283770342557,11.088432411000815,0.4330674618698012,0.5669325381301987,19.32600708531113,22.11210300404082,0.4626057216029296,0.5373942783970704,16.22869705996391,17.491404068779673,0.9285283589233931,0.6961209261098569,1.063282197577756,0.8696203438271781,0.7379667580883034,0.7736396181401552,-0.7782014539238482,0.00012797771851759442,0.027941287336521625,0.4156792676233487,2.2512917986064953,5.490495144450521,1.4123726296945152,0.9093965399315964,1.0072414573378006,1.0107628169586376,2.0977215257022666,1.8643305499383984,3.4541533968928158,1.1394157346718001,Relax
78.74796719618499,761.5384615384615,25.747874610403223,,,,,,,23.836564731139806,23.977354604596947,0.03381034039749918,0.031300539545941156,764.0,26.686799999999998,0.03493036649214659,34.75,1.0801839485186597,741.0,783.8,5.128205128205128,39.743589743589745,675.0,825.0,5.571428571428571,125.0,,,0.05307002559596801,0.06452439667265661,0.0047747069395317875,0.12236912920815642,0.822479997220298,0.43368802196584294,0.5272930933658698,-2.7407118837093316,16.95455003582499,30.829451148208832,0.5499465415170077,1642.1088214882668,1.8183585576182295,3.922372044112977,224.23598528807474,0.5128205128205128,0.5263157894736842,0.75,0.14285714285714285,47.69874476987447,47.528395522811635,47.85883992170591,53.94736842105263,0.5039085714285714,0.49609142857142857,12.04323352277994,11.9494549534366,0.3991687532569756,0.6008312467430243,19.47798656351527,23.896926528976763,0.42351466379023084,0.576485336209769,16.193076209489842,18.89249283730874,1.0023688651776936,1.0202682535800958,1.1785118238551564,1.141852678963075,0.31794290700602446,0.2373813885608036,-0.5359308885319576,0.00011060375257121307,0.05381779138087163,0.5650839171976871,2.2857779746776647,5.5640603918559615,1.322581659026052,0.9474638428634847,1.2474086690634512,1.2264197126267984,1.8892027890031078,1.8289729951040872,2.8835685940270883,0.9669849567480383,Relax
78.71799407183245,762.3506493506494,23.97957806231127,,,,,,,21.682821238070133,21.826408437101094,0.031454788006983994,0.028442057807045878,764.0,26.686799999999998,0.03493036649214659,35.0,1.1059251837675326,741.4,784.4,3.896103896103896,35.064935064935064,709.0,825.0,5.5,62.5,,,0.05326621602669617,0.051665423635233805,0.0023682684563780497,0.10729990811830803,1.030983823974119,0.49642368722222263,0.48150482643720366,-2.9629665096933087,15.433601414821455,30.160836404708323,0.5117099939712599,1462.3809929017812,1.95423191217986,3.8720306437047216,235.76507600046833,0.4805194805194805,0.4933333333333333,0.7027027027027027,0.09523809523809523,50.42668735453839,50.437196035788524,50.41631448360898,53.333333333333336,0.5707089082309479,0.4292910917690521,11.659616917663575,10.11236866416568,0.44273014480061573,0.5572698551993841,20.06840827029467,22.51521801201017,0.4692880797954892,0.5307119202045107,16.411698223674144,17.45272245422397,1.075631646892755,0.9579035038080961,1.2193344933133479,1.1949378723142174,0.3143934854123813,0.26533638124819214,-0.5254687668456612,7.35876702908873e-05,0.04338436034297565,0.4489245818524119,2.2512917986064953,5.49900192408758,1.3400981631002507,0.8638161507331078,1.3143469002959574,1.4547747838225427,1.936709517674987,1.8135313353904878,2.5449290576665424,0.9766420582901144,Relax
78.77178886246786,761.7662337662338,24.67093757093242,,,,,,,22.142184079026027,22.289211456855558,0.032386494015306126,0.029066901494902552,764.0,28.1694,0.03687094240837696,35.0,1.114205242033993,741.0,784.4,3.896103896103896,36.36363636363637,707.0,825.0,6.416666666666667,101.5625,,,0.05947273306134728,0.04951864370399935,0.0028668994853689993,0.11185827625071564,1.2010170031483312,0.5316793272233783,0.44269092429968987,-3.0054060398338796,15.76085256844345,31.27010090367979,0.5040230799699387,1548.3133623398737,1.984036127987716,3.896828971839909,248.1640396748881,0.4805194805194805,0.4864864864864865,0.6944444444444444,0.09090909090909091,50.18839487565939,50.18842699326601,50.188312994430085,54.054054054054056,0.5661147043825984,0.43388529561740175,11.8586114982601,10.381714694596457,0.4453713320285,0.5546286679715,20.868460515216775,23.287906008294396,0.4698313105744049,0.5301686894255951,16.972320273637134,18.02923412476462,1.019683516103971,0.6304355630228011,1.0782308898044095,0.8313585175480172,0.8458885855119718,1.1581898845210024,-0.8915901746923874,0.00032467307461863873,0.032096623440417596,0.41918267867396697,2.456735772821304,5.494267794521342,1.3221613737701317,1.0999784165354727,1.316525580557183,1.488437744862263,1.8831292987293913,1.8220684367439455,2.7998441864633765,0.9766420582901144,Relax
78.79697544264934,762.1410256410256,25.929336721761757,,,,,,,26.353983902485552,26.500112846198295,0.03402170444761581,0.03457888109398074,764.0,27.428099999999997,0.035900654450261776,35.75,0.9838867936515759,740.4,785.0,5.128205128205128,34.61538461538461,690.0,825.0,6.5,117.1875,,,0.03498722550893268,0.0291234772082728,0.003412743126855501,0.06752344584406098,1.201340940806142,0.5181492897997589,0.4313091081804492,-3.536210653157661,18.738409495755555,30.882085072102026,0.606772808636658,1817.9804689750654,1.6480633043640731,3.9665593231371137,203.58252467832352,0.5256410256410257,0.5394736842105263,0.7560975609756098,0.15789473684210525,53.19747013352073,53.13704461030815,53.257940923647595,53.94736842105263,0.6763589446324726,0.3236410553675274,15.426182459155534,10.670914724269497,0.4221681778775657,0.5778318221224341,20.06547116469987,23.475094149739736,0.4906711965033204,0.5093288034966796,17.896790750363035,18.233875978405912,0.9917013689392121,2.3259016266310013,1.2446278539526714,1.7691228320359431,-1.2255280008791427,-1.2650030416686069,-0.27449821089682674,0.004409115666371617,0.4191829849374622,0.5698587715833052,2.793208009442517,5.6363100331816,1.2935656471437038,1.2229473544597254,1.3293439177789945,1.4052789804262176,1.9504639913884987,1.845330825578293,2.5880591644699535,1.0475670364770413,Relax
78.99801821018823,759.7922077922078,23.24035604307485,,,,,,,19.57139427031734,19.701398115852037,0.030587778875235255,0.025758877321455546,762.0,26.686799999999998,0.03502204724409449,32.0,1.1874655286221474,739.0,781.4,2.5974025974025974,29.87012987012987,707.0,811.0,6.416666666666667,39.0625,,,0.016534697228302225,0.019008942721126604,0.0010337070769522172,0.036577347026381046,0.8698378163834176,0.4520474712498077,0.5196916743966311,-3.962845741012879,13.930992206574844,29.505127416427968,0.4721549583554178,1291.3067357729683,2.11794874183497,3.8179995263805173,249.9613899572164,0.4935064935064935,0.5066666666666667,0.7105263157894737,0.1,49.87102321582114,49.858868579742754,49.883203841450495,56.00000000000001,0.6100786644223832,0.38992133557761677,10.881176406988354,8.699042092859036,0.3914605925421295,0.6085394074578705,18.46041751040199,23.01663592276883,0.4313130316436226,0.5686869683563772,15.152343294988343,17.398834192764554,1.1203427224690745,1.109079741263014,1.2042459604659834,1.4775084404879242,-0.4283092811464204,-0.8386846837290207,-0.2536133157470256,0.0005391548852638363,0.07410378655258237,0.49854396470836404,2.128231705849268,5.505368482472944,1.283116510672856,0.8786315167422896,1.2164526168145697,1.369630059940717,1.9257499577973016,1.814649712583394,2.5613277044416685,0.8952552200992716,Relax
79.02085191437905,759.3116883116883,22.893494674860978,,,,,,,18.35325870964494,18.47330933792689,0.030150325653176928,0.024170915570196187,762.0,25.2042,0.033076377952755906,32.0,1.2473803719025696,741.0,778.8,1.2987012987012987,33.76623376623377,707.0,811.0,5.923076923076923,39.0625,,,0.02104397372534496,0.020698331269713356,0.0007443304889060364,0.042486635483964356,1.0166990493643013,0.4953080771313969,0.4871727552426571,-3.8777021969500693,13.062602303804875,29.671771687712205,0.4402366815600166,1217.6516345524017,2.2715054012682767,3.792493166048702,269.5983586153496,0.5194805194805194,0.5333333333333333,0.725,0.10526315789473684,49.12126537785589,49.140681951621,49.10214368188345,54.666666666666664,0.5437109375,0.4562890625000003,9.632929633986397,8.824586864739524,0.4215557840032453,0.5784442159967548,19.265088341579546,22.56702032344667,0.44139042926754174,0.558609570732458,15.23051151705348,17.133939121115557,0.9877312097996716,1.7951800591101637,1.109514261747883,1.7119792776793938,-1.0666211596645399,-1.553505764837107,-0.1643985583094427,0.004368793155577948,0.3047067800603983,0.5099944401761478,2.3513752571634776,5.38186491098818,1.2986893003326159,1.0743213515546977,1.169397573917931,1.2526935385144986,1.8647128089599776,1.8419172912908977,2.5843824723766593,0.8138683819084287,Relax
79.1955759125162,757.4487179487179,24.768878375843663,,,,,,,21.2883725351377,21.381410851644826,0.0327004030621656,0.02810536479986359,756.0,22.9803,0.03039722222222222,30.75,1.16349327948678,737.4,778.6,2.564102564102564,37.17948717948718,707.0,837.0,5.571428571428571,85.9375,,,0.036522381545728205,0.022859924178280228,0.0016143492284443311,0.06099665495245277,1.5976597849099172,0.598760400454707,0.37477340677287413,-3.7783699374066146,15.118940604533691,30.321934067232263,0.4986139924653468,1440.2176623329024,2.0055594409928217,3.865398242617137,243.24976455079815,0.5128205128205128,0.5324675324675325,0.7317073170731707,0.10526315789473684,45.865237366003065,45.990466747225426,45.733259000614765,54.54545454545454,0.4494784502521779,0.5505215497478223,10.158286739095535,11.242248791711418,0.38191609026385853,0.6180839097361416,18.738761208452804,23.838592952398944,0.3954155802050043,0.6045844197949958,15.072026424822573,18.63688106745468,0.9877579833344216,2.405257632307972,1.1586913188253884,2.0441341019604353,-2.0635953675446306,-2.6500245947900956,-0.13187195781375916,0.006746222296200863,0.5454006806209748,0.49500344805799124,2.917770732084279,5.544704302056898,1.2604958089202019,1.1318021611295948,1.28559354628017,1.4780688807786675,1.857777589077922,1.8864667220883806,2.1328548705477672,0.8864028770190351,Relax
79.83998438316853,751.525641025641,24.22873916512788,,,,,,,19.477259467482494,19.60131504788106,0.03223940454255403,0.025916959321442442,747.5,24.462899999999998,0.03272628762541806,29.75,1.2439501155477255,731.8,769.4,1.282051282051282,35.8974358974359,698.0,811.0,5.571428571428571,85.9375,,,0.018546272240107443,0.018826861193617345,0.0012743770985317435,0.038647510532256533,0.9850963498044472,0.47988271391059173,0.48714292160949935,-3.9724706419964724,13.860222790530614,31.44138455954491,0.44082736764602676,1369.0576816907962,2.268461700415512,3.843391856351651,285.2943067254531,0.48717948717948717,0.5064935064935064,0.717948717948718,0.047619047619047616,48.82017900732303,48.8003478130315,48.84085449940848,51.94805194805194,0.5317175036801206,0.46828249631987945,10.108620604529374,9.486486233196755,0.43071397837297287,0.5692860216270271,20.634604334294377,23.72285326406394,0.4471533691875355,0.5528466308124643,16.247632236101296,18.066089616197257,1.054859348097974,1.1951167559691052,1.1740936254987067,1.5999807663976326,-0.6743317757378602,-1.5689270304851823,-0.14364390443711966,0.0009227227332885038,0.11658253622364238,0.48623842902835346,3.4965075614664802,5.589701417496987,1.2595588377101319,0.0,1.3699101305184922,1.5310036773874962,1.914834665323312,1.8597399246553026,3.4125252904171637,0.8058207972900319,Relax
80.29232308174426,747.0253164556962,21.799185284437556,,,,,,,19.420779249728028,19.53164990433087,0.029181320638321902,0.025997484719622373,746.0,22.238999999999997,0.029810991957104554,28.0,1.1224670752973434,726.6,765.0,1.2658227848101267,35.44303797468354,698.0,804.0,5.642857142857143,85.9375,,,0.027590266628040132,0.02748286790018393,0.0015480291740471684,0.05662116370227123,1.0039078428148864,0.48727833947597604,0.4853815446940649,-3.594192453893536,13.810962095113938,27.25389223624108,0.5067519154841561,1182.5032427730268,1.9733521856441123,3.7797724503369685,215.12611124678173,0.5063291139240507,0.5256410256410257,0.7317073170731707,0.043478260869565216,47.65687053216839,47.60665743890715,47.70662032763758,50.0,0.45202080288249097,0.5479791971175091,9.292505009449785,10.23141330324497,0.5128905296883318,0.48710947031166835,19.518249910969978,19.021371202875,0.5004381784578277,0.49956182154217244,15.28582233538204,15.272432363893127,1.0187603815797994,1.1747173094633037,1.1390638180285109,1.4067513836122505,-0.2791055435321095,-0.7160494912486097,-0.27212597156158463,0.0007402337157782429,0.0937168667898971,0.6011833304885825,3.1354942159291497,5.540936918981022,1.3754494565318842,1.3595198272307987,1.3482598597561684,1.5987106452502189,1.8986647759821678,1.8787634161385778,3.1992973601537713,1.1171257022086005,Relax
80.35147305065144,746.7692307692307,21.201521065822032,,,,,,,18.53532955084537,18.650259894212407,0.02839099442271183,0.024820692641222684,745.5,21.4977,0.028836619718309857,27.0,1.1438437610544163,727.0,765.0,0.0,33.33333333333333,698.0,804.0,5.571428571428571,78.125,,,0.03792226894228347,0.03963972182122146,0.0030541261649992754,0.0806161169285042,0.9566734376521648,0.4704055514843947,0.49170963985249544,-3.22792358717309,13.187725242089094,26.954947729659594,0.4892506331065194,1116.7559036114092,2.0439421685577677,3.7549283669633624,220.37741726368682,0.5256410256410257,0.5454545454545455,0.7380952380952381,0.09090909090909091,48.42192691029899,48.430848373328125,48.41387184200252,51.94805194805194,0.49002041279201625,0.5099795872079838,9.23487383437598,9.421071008508981,0.5039414042226444,0.4960585957773557,19.13500212948203,18.98475442594396,0.5012512213791747,0.49874877862082534,15.0238344178862,14.986285056023178,0.9602710329598875,2.2484440878771075,0.9968736300989676,2.0746497161166513,-2.1949726819209907,-3.1752859603574106,-0.0206569325745265,0.006456767665187144,0.5246455729464512,0.6180332464209561,2.5257286443082556,5.493422250774847,1.3655898613181825,1.517496642719726,1.2232130646099681,1.599417461950341,1.8670515431880683,1.8803015005858374,2.819078146850691,1.0475670364770413,Relax
80.61802259359386,744.2025316455696,18.194377651461064,,,,,,,19.1863332769809,19.305236108168717,0.024448153396132537,0.02578106424141875,744.0,19.273799999999998,0.02590564516129032,26.0,0.9482988431817793,727.0,760.8,0.0,32.91139240506329,698.0,782.0,5.642857142857143,78.125,,,0.06318010111141464,0.07870627438440705,0.006957888017500629,0.14884426351332233,0.8027327122973517,0.42447118632663794,0.5287827191093759,-2.5420324013947817,13.650863364493492,21.71669408231377,0.6285884634535996,931.3302429915727,1.5908659769315296,3.676073815945917,138.19339898793305,0.5569620253164557,0.5769230769230769,0.7555555555555555,0.09523809523809523,48.59663191659984,48.62060088247631,48.57272964955403,51.28205128205128,0.49315640998850696,0.506843590011493,9.588954684847142,9.72111104761179,0.4726627874605549,0.5273372125394453,14.93033043361983,15.770226219294614,0.4784692176146904,0.5215307823853097,12.54716738561191,13.099618983156098,0.9164249964130807,2.362963415480683,1.0958638292815535,2.0410342743930605,-2.1802814451972203,-3.064292069487144,-0.10000631456275136,0.006505453007244459,0.5521895923397309,0.5056832375960387,2.538973871058276,5.341260494793461,1.5329819046200386,1.2103897410130804,1.3473585525896397,1.602463789172777,1.865593049501884,1.9051508243921198,2.771411006318679,1.0373310091937005,Relax
80.96004483577602,741.025,17.136809888790765,,,,,,,19.689359717267326,19.807242158726613,0.02312581881689655,0.026570439212263184,741.0,18.5325,0.025010121457489876,24.5,0.8703589215124143,725.6,754.2,0.0,35.0,698.0,782.0,5.333333333333333,78.125,,,0.05282883896962917,0.08026219562346812,0.005455535544220739,0.13854657013731803,0.6582032619374591,0.3813074471440815,0.5793156448688527,-2.5224565581324456,14.005835247039657,19.64786150038883,0.7128427308367622,864.5182668696912,1.402833972685899,3.6437442841094945,110.25075041349116,0.55,0.569620253164557,0.7333333333333333,0.1,48.31029185867895,48.31076304334097,48.310137181640734,53.16455696202531,0.4975837523672695,0.5024162476327304,9.883617628980666,9.931496130222042,0.4550994653116801,0.5449005346883199,13.254655689073838,14.50353626197984,0.4694214512152168,0.5305785487847835,11.691274414532295,12.429545033652268,0.8706030075649964,2.251771640121247,0.860859560794101,1.975081979426293,-2.1422050529210654,-3.099391356522412,-0.005179655530168835,0.006737055585306621,0.5280860059317536,0.5117075541900329,2.5902671654458262,5.315311532225101,1.599545894220168,1.5106929769663502,1.064084522536265,1.2925088565615568,1.889927589239477,1.9143276116700094,3.115507161387425,0.9482892142331044,Relax
81.07698299955628,739.85,18.023964356912174,,,,,,,21.653192824469812,21.78224236484311,0.024361646762062813,0.029267003885206207,740.0,19.273799999999998,0.026045675675675672,24.25,0.8323929178954004,724.0,753.4,1.25,40.0,697.0,783.0,5.714285714285714,70.3125,,,0.03467911105258949,0.0729599007324532,0.0065493243002015845,0.11418833608524427,0.4753174100353993,0.3037009929516857,0.6389435491728939,-2.617845293791915,15.402371285629462,19.907828832279016,0.7736841327797485,963.2995532802117,1.292517136686166,3.6907314688486164,102.9248396797423,0.5625,0.5822784810126582,0.782608695652174,0.09523809523809523,48.24929971988795,48.20187594186556,48.2957331942876,53.16455696202531,0.4853941684665225,0.5146058315334774,10.735455276791942,11.053772995493324,0.45309480213574976,0.5469051978642501,13.400420853543794,14.722444422147712,0.4651956900489928,0.5348043099510075,12.141278331627428,13.017992687029858,0.8682094626461504,1.4360219439254505,0.8898562909733511,1.5862204346088757,-1.3582572895747749,-2.348498373678881,-0.015074162632938452,0.0014861116897520418,0.1763606550589881,0.38120603270432163,2.169053700369523,5.305875438448058,1.6327420238373545,0.9763221924139099,1.0810903023176388,1.2830804646468243,2.0120585063233243,1.9460428678103585,4.294547867082118,1.0273133154191965,Relax
81.62217372250265,735.9,24.081402036647138,,,,,,,29.167130797994886,29.33060386817266,0.03272374240609748,0.03963463894278419,737.0,19.273799999999998,0.026151696065128897,26.0,0.8256349314380498,723.0,751.4,1.25,41.25,638.0,817.0,6.153846153846154,132.8125,,,0.04746120776424097,0.07393120921177534,0.015383917676793936,0.13677633465281025,0.6419644460066752,0.34699868134875345,0.5405263227695094,-2.604620223375168,20.739868891481265,25.64941018382915,0.8085904799696665,1671.2186062901185,1.2367199772590867,3.930003372120822,126.8845519170167,0.5625,0.5822784810126582,0.8043478260869565,0.09523809523809523,52.911068458093425,52.718706055425045,53.10813146978699,53.16455696202531,0.7200589224336751,0.2799410775663249,17.61282312582337,10.981919873253679,0.26344521500157697,0.7365547849984232,13.165050829624768,22.01303430769404,0.44413271207311816,0.5558672879268818,15.548795802378754,17.395060269143634,0.7161621500604576,2.61115316969652,0.9181165537974514,1.9197660339631577,-2.422163566670344,-3.188977441822098,-0.11639573970985294,0.00771824088997759,0.6566264837367544,0.5638646965581837,2.379546134130174,5.387003250893971,1.3843195619531157,1.4652406768846507,1.4836186987373032,1.7084844914502555,1.8076193671368297,1.925708819252651,2.863437260635472,1.0273133154191965,Relax
81.60642705401989,734.8395061728395,21.35910624893014,,,,,,,24.668552855812194,24.805289222617855,0.02906635540074832,0.03356998725380175,737.0,19.273799999999998,0.026151696065128897,26.0,0.8658435042288136,722.0,751.0,1.2345679012345678,41.9753086419753,670.0,782.0,5.4,101.5625,,,0.0519527231887283,0.06440278295366979,0.019328439450407603,0.1356839455928057,0.806684444461075,0.3828951388592503,0.4746529345995418,-2.7425984332392073,17.53998821860667,23.730606672354053,0.7391293640647039,1307.6394404324187,1.3529431363688311,3.823458121062418,128.4246456769192,0.5555555555555556,0.5750000000000001,0.8043478260869565,0.043478260869565216,47.52729608220938,47.44822784639085,47.603088485168755,51.24999999999999,0.41127292894850365,0.5887270710514965,11.257065291955172,13.468434733747467,0.43768548811615887,0.5623145118838412,15.699647983183763,17.79502026529019,0.42834473307350723,0.5716552669264928,13.660169577703414,15.780707848815018,0.803220758994866,0.34742088830713413,0.8343032984814793,0.9692801008509111,0.33998755023104366,-0.6325715661499629,-0.11148909892226512,3.038134893418517e-05,0.007585184125121608,0.5444478797529486,2.5649493574615367,5.439409299556877,1.5204088281623103,1.111265453749722,1.4775100078981407,1.8291482805480683,1.9118639576071514,1.9242539977465918,3.12787795810607,1.0957765437084537,Relax
81.84640041037503,733.275,20.781549143654487,,,,,,,22.81821391073257,22.9627430628641,0.028340730481271677,0.031118221554986288,730.0,19.273799999999998,0.026402465753424656,25.75,0.9107439006818963,719.4,751.0,1.25,41.25,670.0,782.0,5.714285714285714,101.5625,,,0.04189955674564731,0.05889853063410761,0.010039735773743843,0.11083782315349877,0.7113854334658674,0.37802579979959383,0.5313937874126174,-2.8319391354251167,16.237111334395557,24.559392206183833,0.6611365296860726,1252.7841668311974,1.5125468872137953,3.804846365929415,148.5889289333044,0.5625,0.5822784810126582,0.8043478260869565,0.045454545454545456,49.35854152599594,49.346477228790725,49.37061938059396,50.63291139240506,0.47336688303795,0.52663311696205,11.172023208179553,11.783843785411209,0.4806842870012069,0.5193157129987933,17.02737017182949,17.698373105137506,0.4784584904405519,0.5215415095594483,14.40044161705833,15.034816010308024,0.9029124694620717,0.9327621050225358,1.0059425094231291,1.3692935219733395,-0.7998927794681698,-1.8097234328055039,-0.11045693152228583,0.0005179058286385526,0.0677282826492128,0.5240851735143992,2.1400661634962708,5.372976257876191,1.5568439486087533,1.097771886551287,1.56618713713397,1.8306761960571738,1.827555234969626,1.9057492733206942,3.868760426947162,1.1853615177913803,Relax
81.65453356403,734.9,21.483346508753936,,,,,,,22.735963815789983,22.877380831649543,0.029233020150706134,0.030937493285875608,734.0,20.7564,0.028278474114441416,28.0,0.9449059069065675,720.8,753.2,1.25,38.75,670.0,782.0,6.153846153846154,70.3125,,,0.05041415874804698,0.06404825913795101,0.01219389720976141,0.1266563150957594,0.7871276975610206,0.3980390453482797,0.5056854771870386,-2.7481184307441167,16.17675112184653,25.806406693299888,0.6268501970887135,1311.5012651087595,1.5952774756142853,3.8247388238202933,164.67351729745215,0.575,0.5949367088607594,0.8297872340425532,0.09090909090909091,51.1141120864281,51.11258469250802,51.11488020895896,48.10126582278481,0.487915370864657,0.5120846291353429,11.301520206342108,11.578051738150165,0.49528608050344186,0.504713919496558,18.16166240436102,18.333702439224133,0.4932063391903141,0.5067936608096859,15.125646106271617,15.33257850430408,0.8858461785312054,0.60389209179319,0.9438786847966891,0.9549128568190568,0.31863174101080993,-0.001990702259563548,-0.48172823891499733,3.615224337600679e-06,0.012267213716525619,0.450572759117172,2.1517622032594614,5.429104070322104,1.5177497844356778,0.7831478640677969,1.5756551729908082,1.9726813454325274,1.8190479808022046,1.874232920225629,3.703396124436433,1.1853615177913803,Relax
80.30379042870592,747.3291139240506,27.284691640602286,,,,,,,33.81795153692556,34.03683779387161,0.03650960618587003,0.04525175174744016,748.0,22.238999999999997,0.02973128342245989,30.0,0.8068108918664201,731.6,769.0,8.860759493670885,53.16455696202531,669.0,809.0,5.266666666666667,117.1875,,,0.01134463559257977,0.09065748091751388,0.01766893420138417,0.11967105071147782,0.1251373353612358,0.09479849575258797,0.7575556525870696,-2.400666819896573,24.067678814193183,30.428613444429498,0.790955488594542,2300.733112382555,1.264293647897825,4.068836352905965,153.8828107685223,0.6329113924050633,0.6538461538461539,0.9411764705882353,0.08695652173913043,50.024142926122636,50.034012930264204,50.014141337661535,48.717948717948715,0.46228350428787635,0.5377164957121237,16.363961035740118,17.648626744708096,0.5150655971010052,0.4849344028989949,21.838028807728833,21.18964402587551,0.4947525902933472,0.5052474097066528,19.29609705337345,19.49967999631465,0.5831877967107183,0.9879985979667776,0.7109768482769683,1.0568534299872976,-0.585158222327423,-1.544490890913804,-0.14992199136505277,0.00039780987292584554,0.06699866292268282,0.5083305751684795,1.85238409104449,5.56290321636722,1.4646880550247265,1.6865705050001936,1.1397402949569455,1.3090695982502845,1.9495984608755736,1.9695201571644885,4.307681354371151,1.0373310091937005,Stress
79.27426125386314,757.0384615384615,28.970402409773595,,,,,,,33.453010269688676,33.66029380973203,0.038268072075095944,0.044189313977132834,754.0,25.9455,0.034410477453580904,34.25,0.8660028552355209,735.4,774.6,8.974358974358974,53.84615384615385,669.0,840.0,5.571428571428571,70.3125,,,0.0155300203552898,0.08468451859514281,0.01713763593912659,0.11735217488955921,0.18338677024941538,0.1323368771810594,0.721627176273809,-2.468822473308421,23.80142200959309,33.05028636141339,0.7201578149525971,2471.314424622346,1.388584528608945,4.0998981140410455,183.57246523021544,0.6282051282051282,0.6493506493506493,0.94,0.08333333333333333,51.69699950811608,51.66213385595102,51.73260940224114,48.05194805194805,0.4688236181545995,0.5311763818454004,16.30284928277392,17.35314320079704,0.4321506316059889,0.5678493683940112,21.726651727173678,24.905301309109465,0.4446807648072837,0.5553192351927161,19.20716389801916,21.46398858838797,0.6781579772587012,0.608819361519263,0.8054914682625558,0.9825676580183327,0.06387108592655455,-0.9137661204712112,-0.209148228607749,0.0002365246405472342,0.029356342780138097,0.49145049929297624,1.7540191412452082,5.550989237898861,1.451514156673407,1.4212280776661945,1.2570046188745516,1.485035647308354,1.8611270160400106,1.9537858160719765,3.3120766859811965,1.1281491162060446,Stress
78.82900654920589,761.0,29.45960660043904,,,,,,,28.381100086241602,28.548521330805183,0.03871170381135222,0.0372944810594502,756.0,26.686799999999998,0.0353,35.0,1.0380008706822563,736.0,780.8000000000001,6.493506493506493,54.54545454545454,711.0,851.0,5.923076923076923,23.4375,,,0.02264899120576907,0.08978773349477023,0.00883963175992079,0.1212763564604601,0.25225039461641247,0.18675520824335903,0.7403564562400409,-2.4103069110581306,20.186853025861144,35.23191709879182,0.5729706098381288,2234.3683409254168,1.7452902170366336,4.056124879119651,245.95968095986822,0.5584415584415584,0.5789473684210527,0.9090909090909091,0.04,52.2347872913301,52.10205897680491,52.37554598659593,50.0,0.5317803878007742,0.46821961219922575,14.731824960495107,13.823410095438343,0.42655075376927026,0.5734492462307296,23.010265634307732,26.679873648402776,0.45258784753106845,0.5474121524689316,19.319666032673418,21.24738012745811,0.8660909144218444,0.5974007541027597,1.316864510327152,1.0652176885934048,-0.46262441959925305,-1.462624419599253,-0.9212361969842123,0.0007575968959452731,0.05845709154734635,0.501573107705565,1.9459101490553135,5.6105615405263185,1.458778959139541,1.438885001646385,1.465479309827012,1.7302933102221725,1.9959016381855599,1.9136418242598898,3.5414897344292506,1.220802572862643,Stress
78.46492436107017,764.5131578947369,30.866375846456883,,,,,,,29.406801934246438,29.58385851583063,0.04037389746365459,0.03846474273278022,759.0,31.1346,0.04102055335968379,43.75,1.0496338879512994,736.0,788.0,9.210526315789473,53.94736842105263,711.0,850.0,6.909090909090909,23.4375,,,0.00431500147781641,0.06248251806447608,0.018781601511041097,0.08557912105333358,0.06905934030001376,0.05042119414999913,0.7301140429513933,-2.772868472334573,20.91894697020723,37.94003091651278,0.5513687381077647,2493.3736878417117,1.8136682965230986,4.1037574820899385,275.24252496954176,0.5657894736842105,0.5866666666666667,0.9090909090909091,0.04,52.21569674319273,52.172591961797664,52.25897670616965,49.333333333333336,0.530921874277256,0.4690781257227439,15.253267261874164,14.337392050537323,0.4357780302105727,0.5642219697894272,25.045536906181884,28.498544296630783,0.45798333903092897,0.5420166609690712,20.735731010517583,22.55801229982196,0.856625120358122,0.49796165362001954,0.9003004662655762,0.9604868050397877,0.3423132692697122,-0.23728417831177406,-0.37913459131506155,1.3129631382437146e-05,0.00944398800379134,0.5392942996899346,2.0243817644968085,5.681880802803402,1.4512985189393057,1.1119244317534844,1.2127806581468774,1.4394658007992178,2.1554221242930813,1.9183474725421739,2.89429882736418,0.9043052979984136,Stress
77.9247977119685,770.1558441558442,31.611567226281412,,,,,,,30.017977069889653,30.215762123463882,0.04104567597085543,0.03897649715661366,764.0,34.099799999999995,0.044633246073298424,41.0,1.0530878597408968,741.0,796.0,10.38961038961039,55.84415584415584,711.0,850.0,8.555555555555555,23.4375,,,0.005201661276907076,0.02491835926842629,0.005902076505242635,0.036022097050576005,0.20874814512759793,0.1444019560994409,0.6917520441255887,-3.6921504271812204,21.365770296220944,39.457465439981924,0.5414886652747641,2648.4855785313666,1.8467607248853057,4.129967722430198,291.47398991231165,0.5454545454545454,0.5657894736842105,0.9069767441860465,0.0,50.624349635796065,50.63914583691827,50.60913371218441,48.68421052631579,0.4971671388101984,0.5028328611898017,15.065855435387663,15.15145757564818,0.4735719612672832,0.5264280387327169,27.153272335440942,28.628506430212976,0.47892216243689534,0.5210778375631047,21.957688841526814,22.903690173107613,0.7922529766516772,0.42155611402085225,0.9243524000967924,1.0030310336621033,0.21107891261266687,-0.7886172631515024,-0.31336142224373237,0.0001082308076392553,0.013889546309601623,0.5244868248913477,2.005333569526114,5.701724527651695,1.4762520696924992,1.2535472461535095,1.27270002174647,1.6581078050013889,2.03813856636811,1.9325920923640119,2.9643073241094084,0.8952552200992716,Stress
77.5470359120643,773.7894736842105,31.784824802400568,,,,,,,30.43616270162847,30.640884187369394,0.04107683792991503,0.039333906361783494,770.5,31.1346,0.04040830629461389,44.5,1.044311173980547,747.0,801.0,10.526315789473683,55.26315789473685,711.0,850.0,8.444444444444445,70.3125,,,0.011798986661133591,0.023916255786145573,0.0017878418456560494,0.03750308429293522,0.4933458968927994,0.31461376800297647,0.6377143703524909,-3.7331968928314443,21.666376990440554,39.678430385258906,0.5460492459018721,2700.788974614477,1.8313366559976996,4.138460761997893,290.65825606791026,0.5394736842105263,0.5599999999999999,0.8809523809523809,0.0,50.23646873357856,50.24314194579978,50.22945628553636,49.333333333333336,0.467809490910661,0.5321905090893388,14.819180412833502,15.806045712988467,0.48226681393490833,0.5177331860650919,27.554857716631084,28.55009026350099,0.47894614779473965,0.5210538522052605,22.123271592283675,23.07529777852428,0.8961685760739809,0.5495845509694646,1.1961932505395465,1.1411299806901065,-0.1486138844467355,-1.1486138844467355,-0.6001907163371107,0.00042960692751259333,0.03603386022352994,0.5105499264447375,2.4203681286504293,5.708196592277087,1.4789002288548894,1.3182176424678527,0.9822972076875416,1.6584544845679474,1.9621625198046782,1.9288028711058354,3.3518532911869383,1.0687244430890344,Stress
77.36061115893808,775.76,31.82377149918646,,,,,,,30.58837440349926,30.7769561400803,0.041022702252225506,0.03943020316012589,773.0,34.099799999999995,0.044113583441138415,42.5,1.0403877982984893,748.6,804.0,10.666666666666668,54.666666666666664,711.0,850.0,9.375,125.0,,,0.025107783090164225,0.025641796776760043,0.005471165542590936,0.05622074540951521,0.9791740925472192,0.44659285299897145,0.45609136965338487,-3.6635315722882273,21.76259439093173,38.95238171750379,0.5586974000399162,2663.143435605763,1.7898776688929552,4.132364667919515,278.879992745417,0.5333333333333333,0.5540540540540541,0.8780487804878049,0.0,52.19251336898396,52.26936667991551,52.11711328805313,45.94594594594595,0.47644357144920424,0.5235564285507958,15.031473829250812,15.757146671681289,0.515430197796703,0.48456980220329693,27.96526551505378,27.115161185924514,0.5061464690659027,0.4938535309340974,22.449958583557656,22.17565824695565,0.8528392541063766,0.5324009380530668,0.9277466588279788,0.9392123148436575,0.4539622823850902,-0.07561785137720634,-0.4784642452779903,6.974388239812844e-06,0.011689772418405575,0.48895052013710316,2.327277705584417,5.665289857076006,1.4524155514991743,1.454034560133427,0.9612098618153022,1.5029679405527874,1.9895109694354265,1.9300899905051905,2.524607394924873,0.8305091587327841,Stress
76.95346607251587,780.0263157894736,30.737153927762204,,,,,,,29.681868764168698,29.858392515398474,0.03940527813687,0.03805239408381669,775.0,31.875899999999998,0.041130193548387095,46.25,1.0355531914778702,753.0,809.0,9.210526315789473,53.94736842105263,728.0,850.0,9.5,109.375,,,0.02474769143855609,0.03586415157079994,0.00440458486027484,0.06501642786963087,0.690039784984215,0.38063751346320457,0.5516167643462931,-3.3280170458720377,21.113071822967918,37.63336166103036,0.5610200867288099,2496.170876798618,1.7824673726582407,4.104244421865845,268.32095713693656,0.5394736842105263,0.5599999999999999,0.9047619047619048,0.0,52.39651416122004,52.40326867714632,52.38933570598356,45.33333333333333,0.47478660935892,0.5252133906410799,14.559291637060264,15.312951592899603,0.54045369441888,0.45954630558112,27.666374990321824,25.5115974569372,0.5247145904018141,0.4752854095981858,22.106574565930355,21.03958282964863,0.8020773086328032,0.6476721549833044,0.8883234672866416,1.1088075723230268,-0.006376961450452967,-0.9721653338475957,-0.1595745187747513,0.00017242478300092583,0.029342304021186098,0.4966484461635412,2.5649493574615363,5.681880802803402,1.4807240408926194,1.0435968174739092,1.1179722877216638,1.7269831557948703,2.0142755133967483,1.9155387073691157,2.822752264798941,0.8220957254531033,Stress
76.82937056215746,781.2933333333333,29.15836226693965,,,,,,,28.82847691226647,29.022390467766982,0.03732063365053627,0.036898403816236075,775.0,31.1346,0.04017367741935484,40.0,1.0114430379266002,755.8,809.2,8.0,53.333333333333336,730.0,850.0,6.25,39.0625,,,0.02836347801744148,0.061549666954297796,0.002516828861821062,0.09242997383356033,0.4608226075130851,0.3068645033754516,0.6659059220889856,-2.787910837344416,20.521929106001853,35.492827961816985,0.578199323200711,2288.2773385912506,1.72950738590344,4.066478769645913,245.54043242625045,0.5333333333333333,0.5540540540540541,0.9024390243902439,0.0,50.85324232081911,50.90034429354353,50.80739894514811,44.5945945945946,0.4608130081300813,0.5391869918699186,13.932321739074787,15.07061006300783,0.5701077535261206,0.4298922464738792,26.79903017744531,23.27128742196086,0.5427197345198539,0.45728026548014605,21.35764040680431,19.604541641501676,0.9517284491076795,0.4641367489245425,1.254562144178582,1.1413680556842967,-0.017686597895786527,-1.0176865978957865,-0.7438809009555237,0.00033287378458220885,0.028354235253969517,0.5302823847449285,2.8622008809294686,5.5752246903804945,1.483264085882585,1.264856364566422,0.958762106470939,1.1628607883923843,1.9701783774711172,1.8995378879092921,2.6574458513508348,0.9135600746060626,Stress
76.47910090749987,784.8133333333334,27.98005724804014,,,,,,,28.825195435450077,29.008890618446532,0.035651862754676446,0.03672872798047528,785.0,31.1346,0.039661910828025476,40.5,0.9706805738992298,763.0,810.0,9.333333333333334,50.66666666666667,733.0,850.0,6.818181818181818,109.375,,,0.05600666844947394,0.0513157498508955,0.0029073613715150577,0.11022977967188449,1.0914128432734298,0.5080901786811713,0.46553435925976216,-2.969757559287424,20.512383271002363,33.58863235710678,0.6106942090680955,2164.5036185271047,1.637480731192745,4.042328426147021,220.00295308751805,0.5333333333333333,0.5540540540540541,0.926829268292683,0.0,51.839080459770116,51.89034759851303,51.7882413517435,45.94594594594595,0.49731646228409715,0.5026835377159028,14.471985218496581,14.549867014408974,0.5392849944158038,0.46071500558419604,24.66615685824036,22.7986168322897,0.527877182959722,0.47212281704027803,20.2219886549234,19.124272007092838,0.9187162740117968,0.8299125069664344,1.0918951269363202,1.0208926963407383,0.5976070756082965,0.3687160868825168,-0.5855541156442091,0.00013956673430649732,0.041390726434785356,0.511752048559611,3.4339872044851463,5.611956523742674,1.5433067782772187,1.344974338385115,1.1691101323447866,1.2608562792298117,2.018364297603135,1.8898649983963764,2.696757476702297,0.9135600746060626,Stress
76.47420397825279,784.8933333333333,27.856084459978245,,,,,,,29.21981001473653,29.41855705918715,0.03549028036927936,0.03722774646415207,785.0,29.651999999999997,0.03777324840764331,40.0,0.9533287330044065,763.8,810.0,9.333333333333334,52.0,733.0,850.0,5.769230769230769,39.0625,,,0.05773585581694969,0.08202713273067007,0.0036537285798039173,0.14341671712742368,0.7038629035897309,0.40257409996110993,0.5719495911888023,-2.5007051994895098,20.80206118927461,33.437372040051756,0.6221200985638946,2185.1858499427185,1.6074066764735708,4.046458489562118,214.98982024363957,0.5333333333333333,0.5540540540540541,0.926829268292683,0.0,50.4254112308565,50.44283033273087,50.40808691730844,45.94594594594595,0.4839904401639733,0.5160095598360266,14.472221857042271,14.943271725529643,0.5281946890803617,0.47180531091963807,24.301280169926756,22.967490743386833,0.5158596473210219,0.48414035267897815,19.99996779218316,19.375332266964786,0.8819476683214496,0.8212129654428661,1.0352341530284412,1.2012829352848886,0.05940401483042912,-0.7638466847045171,-0.2978005837171603,0.00021685085566013475,0.04612549316899058,0.4740280072629388,2.7408400239252013,5.558623190409341,1.540948496781928,1.0875694840898253,0.9730331426055561,1.031783596261273,1.9748186875679477,1.8902136066861888,3.0004711190009052,0.9135600746060626,Stress
76.35800152233706,785.68,27.52107791729332,,,,,,,29.107907349554868,29.306598443503592,0.03502835495022569,0.037048044177724865,785.0,29.651999999999997,0.03777324840764331,40.0,0.9454845924440591,763.8,810.2,9.333333333333334,52.0,736.0,850.0,7.5,101.5625,,,0.026864294225246995,0.10048927886730451,0.004884191282618286,0.13223776437516976,0.2673349289402418,0.20315145489779085,0.7599136248417502,-2.2977042351107713,20.72289449291251,32.21178413862786,0.643332713386153,2097.0803393389865,1.5544056429783348,4.028585178607037,200.2807161419327,0.52,0.5405405405405405,0.9,0.0,50.0,50.000762371403816,49.99915978546102,45.94594594594595,0.48960094420874667,0.5103990557912532,14.500118091158232,14.804895525023111,0.5205385462213605,0.4794614537786393,23.24027311555365,22.304455673878977,0.5114823401489692,0.4885176598510309,19.36961175582851,18.929787035448673,1.016734386107714,0.7782291089747029,1.2355838506898547,1.4058489405950656,-0.47070863205528646,-1.4755172962226994,-0.2812146989341856,0.0003703936364201995,0.04857501114070247,0.42241875037417076,2.6026896854443837,5.585289857076007,1.5436053314447888,1.604704666680484,0.7999857104634339,1.2620838308367308,1.9909304995703103,1.9346201886291026,2.7125862250623607,1.0796619063526194,Stress
75.97057054796512,789.76,26.155377722062887,,,,,,,29.30109305220633,29.49768595144692,0.03311813427125062,0.037101262474937106,787.0,29.651999999999997,0.03767725540025413,40.5,0.8926417071015521,765.8,814.4,8.0,54.666666666666664,738.0,850.0,7.5,101.5625,,,0.023490176350362168,0.07319162197370936,0.0032012226105336554,0.09988302093460519,0.3209407814298733,0.2351768712095874,0.7327734112250063,-2.614674318476294,20.85801376557927,30.495490104235397,0.6839704393759647,1998.2896541735474,1.462051489991836,4.0076285498536155,178.3439069797146,0.5333333333333333,0.5540540540540541,0.9024390243902439,0.0,49.05768132495718,49.083446873499035,49.03187167970404,45.94594594594595,0.4758629373711299,0.52413706262887,14.39011266341419,15.102390267133938,0.5578166643579365,0.4421833356420635,22.776204819257316,20.278545577253787,0.5316926192272007,0.4683073807727995,19.050339215280573,17.878780754145136,0.8456655657962052,1.2042431497587387,0.9993107033605766,1.2527357360697966,-0.648322051219731,-1.183327606034124,-0.2895565918228459,0.00017791296525428572,0.07586314211108532,0.47428463339420857,3.4011973816621555,5.63862319040934,1.6146329769616967,1.8202179525317752,1.082383615602067,1.3661646545431496,1.9299207575332946,1.960460140107473,3.1953390903947665,1.0796619063526194,Stress
76.11696694497262,788.32,25.427246505763552,,,,,,,30.79750779667872,31.00754109230353,0.03225498085265317,0.039067266841737766,786.0,26.686799999999998,0.03395267175572519,36.5,0.8256267576464642,765.8,810.2,10.666666666666668,58.666666666666664,738.0,850.0,7.5,93.75,,,0.03276862745349123,0.07957222812318082,0.004075749752485347,0.1164166053291574,0.411809851582441,0.2814772631519439,0.6835126990535204,-2.5310901399339603,21.925642574288354,28.79265584709683,0.761501220683646,1983.2795281244596,1.313195531193291,4.004354038976252,151.24154795837578,0.56,0.5810810810810811,0.9302325581395349,0.0,49.78471474703983,49.78827838366088,49.781134910738906,41.891891891891895,0.457784806519633,0.5422151934803668,14.834936550782865,16.1451040121036,0.644623251988018,0.3553767480119821,23.117172281708903,17.16430529987011,0.5760451266052012,0.42395487339479887,19.422654256923327,16.66249921213491,0.8085588012198888,1.1480198397278873,0.9477686324664049,1.2675827658026264,-0.7164719547221772,-1.471806168222117,-0.22142107455910656,0.00025678402989203234,0.07789542767724768,0.48753908275923186,3.4339872044851463,5.675355023771522,1.7067008287695562,1.5897967394833552,1.0878485860725655,1.42731431990137,1.9151768758800711,1.9765561600124124,5.037844130066692,1.1627128222258978,Stress
76.39426150932644,785.3333333333334,25.680644374615984,,,,,,,29.55617647070689,29.750760290702843,0.032700311173110334,0.037635199241137805,783.0,28.1694,0.03597624521072797,36.5,0.8688757289045169,763.8,810.0,8.0,57.333333333333336,738.0,848.0,7.5,93.75,,,0.04756055781493821,0.08907284802304867,0.010711738259366386,0.14734514409735328,0.5339512418265928,0.3227833404778796,0.6045183814418534,-2.418300726939541,21.036964347011445,29.620898543211332,0.710206826316307,1957.6325261232553,1.408040535440625,3.998701282181339,166.82970338006285,0.5733333333333334,0.589041095890411,0.9302325581395349,0.0,48.64712514092447,48.633680661416676,48.66083753064785,43.83561643835616,0.43303322814182293,0.5669667718581772,13.846764124239597,15.844060293224793,0.64476730359385,0.35523269640614985,23.7848124735465,17.654470428348915,0.5737542825141839,0.426245717485816,19.460860478330627,16.773708186933337,0.7180767120242478,0.9011329199431248,0.8750782870025787,0.9719084131455418,0.15782501072263777,-0.3725270004689536,-0.39254623374643277,0.00016629849883742292,0.048182740268753035,0.5085687232716007,3.465735902799727,5.575224690380495,1.6490171447165776,1.5782704949843775,1.4968675771192994,1.8052762745456241,1.942077094317197,1.9145360984402349,4.315024391159163,1.245763738099176,Stress
76.65677696015709,782.7866666666666,24.974740392197425,,,,,,,28.12688432126142,28.31338416836693,0.031904912865400654,0.035931736600770016,779.0,22.238999999999997,0.028548138639281125,32.5,0.8879312798011809,763.8,808.2,5.333333333333334,52.0,738.0,848.0,6.818181818181818,85.9375,,,0.0429856331176396,0.07664753254197579,0.00940516662575138,0.12903833228536676,0.5608221385874184,0.3331229748271806,0.5939904149758435,-2.568537865415655,20.020585943792096,29.135611188351113,0.6871517406779731,1832.5287185220893,1.4552826410850062,3.9700208993857022,169.60219679923787,0.5733333333333334,0.5945945945945946,0.9090909090909091,0.0,48.77024595080982,48.78599682372158,48.7549697169502,44.5945945945946,0.4269511299386775,0.5730488700613223,13.084289439514334,15.158523078380961,0.5836568870177039,0.4163431129822959,22.25886113655482,18.799652662279165,0.5333827578060805,0.46661724219391953,18.257266077282996,17.07641300361625,0.7212594669213364,1.0049978046437704,0.8957719256562402,1.0887726937354993,-0.19275338898025485,-0.9181402522958695,-0.30795901524613783,0.00023602261366696152,0.06339373090108903,0.3820246360520265,3.2188758248682006,5.578753523800367,1.6425259379574344,1.3040076684760487,1.2115958151525592,1.563272154747564,1.8651604925128737,1.8944331343664065,3.5394761289308656,1.1627128222258978,Stress
76.83910943901886,780.9605263157895,24.47771274144362,,,,,,,27.705354476466578,27.89166299927032,0.031343085747135194,0.035475998520908124,778.0,20.7564,0.02667917737789203,29.0,0.8835011572306511,760.0,800.0,5.263157894736842,51.31578947368421,738.0,848.0,5.846153846153846,62.5,,,0.042051146810494947,0.08847851522264535,0.007140834448096208,0.13767049648123653,0.47526958047022355,0.305447774834067,0.6426831999890719,-2.4249955222864665,19.72238404535396,28.722383524271017,0.6866555496234541,1779.6301753459854,1.456334257472144,3.957299870982025,167.3175643305975,0.5657894736842105,0.5866666666666667,0.9090909090909091,0.037037037037037035,49.73262032085562,49.735742171693545,49.729484018234196,44.0,0.4405322308881516,0.5594677691118483,13.090382275094495,14.752003986632515,0.5969502598275943,0.4030497401724059,22.19164772676488,18.23474942209205,0.5468302468418879,0.4531697531581122,18.21849797509302,16.585049112199034,0.7515686222963487,1.262839427156075,0.9536894832987214,1.2301371810705783,-0.6256272985099578,-1.3140443652747575,-0.2810903810673543,0.00033214736690030704,0.09756693146295826,0.4008257452056836,3.295836866004329,5.6391819541476575,1.6381524267425946,1.4381431597064083,0.8958797346140276,1.355353128825968,1.884538362770623,1.8943055428573254,4.248286481894281,1.3153531607249653,Stress
