PPG_Rate_Mean,HRV_MeanNN,HRV_SDNN,HRV_SDANN1,HRV_SDNNI1,HRV_SDANN2,HRV_SDNNI2,HRV_SDANN5,HRV_SDNNI5,HRV_RMSSD,HRV_SDSD,HRV_CVNN,HRV_CVSD,HRV_MedianNN,HRV_MadNN,HRV_MCVNN,HRV_IQRNN,HRV_SDRMSSD,HRV_Prc20NN,HRV_Prc80NN,HRV_pNN50,HRV_pNN20,HRV_MinNN,HRV_MaxNN,HRV_HTI,HRV_TINN,HRV_ULF,HRV_VLF,HRV_LF,HRV_HF,HRV_VHF,HRV_TP,HRV_LFHF,HRV_LFn,HRV_HFn,HRV_LnHF,HRV_SD1,HRV_SD2,HRV_SD1SD2,HRV_S,HRV_CSI,HRV_CVI,HRV_CSI_Modified,HRV_PIP,HRV_IALS,HRV_PSS,HRV_PAS,HRV_GI,HRV_SI,HRV_AI,HRV_PI,HRV_C1d,HRV_C1a,HRV_SD1d,HRV_SD1a,HRV_C2d,HRV_C2a,HRV_SD2d,HRV_SD2a,HRV_Cd,HRV_Ca,HRV_SDNNd,HRV_SDNNa,HRV_DFA_alpha1,HRV_MFDFA_alpha1_Width,HRV_MFDFA_alpha1_Peak,HRV_MFDFA_alpha1_Mean,HRV_MFDFA_alpha1_Max,HRV_MFDFA_alpha1_Delta,HRV_MFDFA_alpha1_Asymmetry,HRV_MFDFA_alpha1_Fluctuation,HRV_MFDFA_alpha1_Increment,HRV_ApEn,HRV_SampEn,HRV_ShanEn,HRV_FuzzyEn,HRV_MSEn,HRV_CMSEn,HRV_RCMSEn,HRV_CD,HRV_HFD,HRV_KFD,HRV_LZC,Labels
105.4953000885403,571.1826923076923,78.21414025846238,,,,,,,122.87877837428756,123.47964654388781,0.1369336664289697,0.2151304302968858,562.5,24.462899999999998,0.043489599999999996,34.75,0.6365146308683414,543.2,591.0,32.69230769230769,42.30769230769231,367.0,1148.0,7.428571428571429,242.1875,,,0.04552690819244759,0.12422909006539286,0.037492064566065034,0.20724806282390545,0.36647542188776167,0.2196735041674715,0.599422201455981,-2.0856279173797474,87.3132954097011,68.61965223154144,1.2724240442822736,18822.563251284384,0.785901527477078,4.981648875178803,215.71315801485719,0.6538461538461539,0.6633663366336634,0.8955223880597015,0.28,50.04053834927842,50.345281890000436,49.71798389922837,51.48514851485149,0.4708590505376419,0.529140949462358,59.91366337342033,63.513507904023925,0.5389245537400068,0.4610754462599934,50.37470293585909,46.594484399997796,0.4968475425955914,0.5031524574044086,55.35005760927255,55.70014211281757,0.4735002644542798,3.484847568392559,1.5453995405323628,1.6085013471756842,-0.24022517543608934,-0.016405602541002984,-0.4818925202882179,0.015703785638576672,1.3749474782491928,0.5910243359228633,0.6603573577369541,6.125685511306309,0.6256074200610132,0.8330940476332321,1.0205008254606478,1.0650882965466144,0.9221409057115889,1.9119090481665135,1.9924667412705486,1.0308368797140142,Relax
105.22072794809213,571.8846153846154,72.96991103431255,,,,,,,111.52377951835318,112.06749890096657,0.12759551327541369,0.1950109803939191,561.0,24.462899999999998,0.043605882352941175,39.5,0.6542991221195483,544.0,591.0,30.76923076923077,41.34615384615385,449.0,1148.0,6.5,148.4375,,,0.03691324723536655,0.12470987237193953,0.03472365441268807,0.19634677401999415,0.2959929838214817,0.18800027359557048,0.6351511146255973,-2.081765260448774,79.24368842348942,66.4824448773536,1.191949071212373,16550.897022566613,0.8389620195625179,4.925791646526317,223.1049848790334,0.625,0.6336633663366337,0.875,0.23076923076923078,49.42613846723435,49.53442260488083,49.29192214787903,49.504950495049506,0.4879444338629954,0.5120555661370043,55.354915469781595,56.70607049842678,0.5011817500552077,0.49881824994479207,47.06570910752312,46.95460044635003,0.4934126277650887,0.5065873722349116,51.37775608403237,52.05916314372006,0.5146624443392571,2.466723609945129,1.3680514906789774,1.0981572584820065,0.5616594778830653,0.9848501446613638,-0.6094140547845872,0.009723683248469502,0.7283554517020233,0.6471561374719959,0.7956401526183361,5.983811593016276,0.6618948750826718,0.8165396727808,1.0943583795433554,1.1031207121606375,0.9463894434693628,1.8952182023734971,2.050044236250434,1.0308368797140142,Relax
105.1872172606744,572.4134615384615,72.46366489247555,,,,,,,110.6926120792713,111.23282983407141,0.12659322283881436,0.19337877166928516,562.5,25.2042,0.044807466666666664,38.5,0.654638674897124,544.0,591.0,28.846153846153843,39.42307692307692,449.0,1148.0,6.933333333333334,156.25,,,0.051728136062966085,0.16970318175062885,0.04675258269736614,0.2681839005109611,0.3048153577873292,0.19288307748679298,0.6327866118260623,-1.7737043576506102,78.6534882662412,65.5215018119656,1.2004225497144727,16190.181008007818,0.8330399993217852,4.916221814202474,218.3281273000087,0.6153846153846154,0.6237623762376238,0.8571428571428571,0.2,49.5205216724204,49.64003695494299,49.36532869399128,51.48514851485149,0.4939463283372054,0.5060536716627947,55.27923767244858,55.95262351696631,0.4882345710484437,0.5117654289515562,45.78235274344726,46.872629294397164,0.49160644346011195,0.508393556539888,50.75341338458179,51.61268959956142,0.5151656060699165,2.879791689022991,1.4174477912530279,1.2911960420416897,0.026872064458071776,0.3796373639532947,-0.5438405839188218,0.008152592333049625,0.847933247742688,0.5924542477415105,0.7668123155966802,6.021312886572913,0.6391508791214083,0.8921696890049722,1.1226768541073315,1.2058726258139765,0.9345033265577815,1.8727145736907636,2.0700539133605376,1.09526418469614,Relax
105.62014482137131,569.75,71.33413104837813,,,,,,,109.01919310845874,109.55215672378465,0.12520251171281813,0.19134566583318777,557.5,24.462899999999998,0.043879641255605374,34.0,0.654326353135,541.6,589.8,25.961538461538463,36.53846153846153,449.0,1148.0,5.777777777777778,140.625,,,0.04427223693333455,0.115019590926657,0.03357767620299902,0.19286950406299058,0.3849104015816317,0.2295450343402935,0.5963596551225224,-2.162652809243829,77.46507291299955,65.36769217202945,1.1850666642648662,15908.123687170075,0.8438343851485615,4.908589068969637,220.6380253302596,0.5865384615384616,0.5900000000000001,0.847457627118644,0.2,50.18292682926829,50.32793658657456,49.97338943636338,49.0,0.49076275104682837,0.5092372489531718,54.26780904034375,55.27981406568997,0.5037343098855198,0.49626569011448024,46.394224360701145,46.04900787059505,0.49615770658287434,0.5038422934171257,50.484745973760674,50.87420254413517,0.711444499921925,2.4281244486056375,1.3857303883258187,1.2350871264262078,-0.203608804845139,0.40286598705056753,-0.5620409971103906,0.004327760681193288,0.48248923015254436,0.6393075323924844,0.7579317344211093,6.0285714202475615,0.6140646419197002,0.754967386451798,0.9036256239192612,1.0623108731819044,0.9024916329039026,1.8760262601398747,1.8363319677421321,1.159691489678266,Relax
105.98270682244583,567.6634615384615,70.14736368931916,,,,,,,107.13366118649779,107.6556775449944,0.12357209586681561,0.18872742116631552,557.0,25.2042,0.04524991023339318,34.0,0.6547649255373337,538.6,584.2,22.115384615384613,32.69230769230769,449.0,1148.0,6.5,140.625,,,0.033245603177056895,0.11091047826087126,0.03047944504529191,0.17463552648322006,0.29975168891491294,0.190371362840947,0.6350968814557223,-2.199031905221946,76.12405962529786,64.20159687211053,1.1857035234954802,15353.862385254291,0.8433811489840038,4.893187753723012,216.58566614643362,0.5961538461538461,0.6039603960396039,0.8688524590163934,0.2,49.294551769047125,49.35532104596715,49.20233248324077,50.495049504950494,0.48810306252352614,0.5118969374764738,53.184519714432895,54.46540546215425,0.49703564117357957,0.5029643588264202,45.26261031730584,45.531759774828714,0.49181577880230537,0.5081842211976946,49.382674239004025,50.19771678248709,0.5067341750379076,3.3355465846051846,1.4127722843635968,1.5796398406370704,-1.1419334672281725,-0.9176639316692392,-0.44997294984767094,0.007207751538277706,0.9505094051414584,0.6465030624714401,0.7548105476655832,5.951648343324485,0.5703881571066853,0.7040041974307368,0.9913832699008488,1.055318114471935,0.8632730246067504,1.8703946014460138,1.8537561836250696,0.9664095747318882,Relax
106.50222735379586,565.0865384615385,69.42036166100071,,,,,,,104.72441875463022,105.23317685747794,0.122849080514286,0.18532456823293816,554.0,24.462899999999998,0.04415685920577617,32.5,0.6628861013175249,538.2,580.2,18.269230769230766,29.807692307692307,449.0,1148.0,5.473684210526316,125.0,,,0.041703215264485435,0.15132927329615697,0.03864824128835078,0.2316807298489932,0.2755793003966305,0.18000295187116816,0.6531802338277837,-1.888297198408279,74.4110929617259,64.259395000283,1.1579799803810507,15021.876550417419,0.8635727879085915,4.883694298594343,221.97065955885523,0.5769230769230769,0.5841584158415841,0.864406779661017,0.15384615384615385,51.01992409867173,51.159804359327,50.74703874886327,50.495049504950494,0.5040385190798337,0.4959614809201662,52.8303333100129,52.4053301435167,0.48253100747443894,0.5174689925255609,44.63743651722008,46.2251999127483,0.49485121230104884,0.5051487876989509,48.90575046186241,49.4119810087823,0.6582931680489128,2.563875104209359,1.3971902270408783,1.196250825456218,-0.34571419715875606,0.26373030548170884,-0.5783733190648636,0.004413362282375053,0.5265079431642298,0.6459909646601223,0.6916262677192383,5.86020819905211,0.5685126335494497,0.6866660466573774,0.9753875468961952,1.025828351904554,0.7921846035745742,1.8638145061339644,1.740343432529676,0.9019822697497624,Relax
106.0789437743431,566.75,67.57286610030471,,,,,,,101.26611102791716,101.7530296381796,0.11922870066220505,0.1786786255455089,554.0,20.7564,0.03746642599277978,28.25,0.6672801533938253,541.6,579.0,13.461538461538462,23.076923076923077,449.0,1148.0,4.16,125.0,,,0.042703988738607035,0.12591941983055718,0.030365822205961235,0.19898923077512545,0.339137432463328,0.21460452192443585,0.6327951484613592,-2.0721131017684074,71.95025726343255,62.59134425305571,1.1495240775232263,14148.047286445728,0.8699252321487759,4.857666612631797,217.79915871937376,0.5673076923076923,0.5656565656565656,0.8214285714285714,0.11538461538461539,48.15840487399613,48.270989707567615,48.09697098231186,50.505050505050505,0.47142855790359633,0.5285714420964035,49.40553473797341,52.31419032923974,0.5066131776992259,0.49338682230077396,44.550493574604474,43.965098631342286,0.48658375658524733,0.5134162434147528,47.04069164290621,48.32030839857904,0.3678819408980369,3.0689221235990494,1.3166830693150413,1.3334070812311662,-0.8102297555090647,-0.6989094082535703,-0.49455052580594255,0.00824221913724812,0.8470765400700127,0.6099777420969019,0.576915735594981,5.7134666131978795,0.48447697499695125,0.5653376582937583,0.8742195602824497,0.8568723926629375,0.6699423620810147,1.8616071831055852,1.7855261820607913,1.0308368797140142,Relax
107.53345997222172,558.6320754716982,64.26260491092084,,,,,,,96.29963160687089,96.74877496834497,0.11503565178683794,0.1723847158714568,552.0,17.7912,0.032230434782608695,25.0,0.6673193223964085,539.0,571.0,11.320754716981133,21.69811320754717,431.0,1148.0,3.925925925925926,132.8125,,,0.04104390208541243,0.05320552164545505,0.019070657969210102,0.11332008170007758,0.7714218527715253,0.3621944272334947,0.46951538374525037,-2.9335930976922793,68.41171485160804,59.05636703336472,1.1584138728506257,12692.497207974528,0.8632493303444297,4.810517186504741,203.92147717650784,0.5566037735849056,0.5588235294117647,0.8070175438596491,0.16,47.49388753056235,47.131337934488904,47.80131543224858,50.98039215686274,0.4595175253920492,0.5404824746079508,46.38084402323541,50.301208121292056,0.5218033474974579,0.4781966525025421,42.659931860292346,40.83851981713711,0.48610953560693493,0.5138904643930651,44.55924415108765,45.81482423471817,0.46669516987939524,3.065186669023456,1.2872171762833995,1.42687102877471,-1.2457962813814678,-1.1127725334953573,-0.45443871203583075,0.005454808853995546,0.7219717688798692,0.6431602905965339,0.6304370522524891,5.653265709296832,0.5226626168277616,0.6785738481588325,0.9033009186205453,0.8548624551622017,0.6226960505426741,1.9392913914990966,1.6181150123305086,1.0790061106374942,Relax
108.45748395419015,553.5,25.01285383843389,,,,,,,34.16152109917712,34.310935473115464,0.04519034117151561,0.06171909864349977,551.5,17.049899999999997,0.030915503173164095,22.0,0.7321937968106578,539.0,570.0,8.49056603773585,17.92452830188679,449.0,653.0,3.7857142857142856,117.1875,,,0.050571616987043974,0.019423259556950668,0.013234891139424705,0.08322976768341935,2.603662729150256,0.6076145397810431,0.23336914300699269,-3.941283984840353,24.261495141894002,24.579302767615772,0.9870701122514959,1873.427941045266,1.0130992597060924,3.979607103143803,99.6050937518538,0.5471698113207547,0.5490196078431373,0.8035714285714286,0.11538461538461539,52.77777777777778,52.93736819212651,52.63199145096748,47.05882352941176,0.5406737611803877,0.45932623881961226,17.847107070033246,16.449807106654895,0.5000669458255913,0.4999330541744087,17.381355156154086,17.37902809358913,0.5201146718714444,0.4798853281285556,17.615770460493557,16.92079742984819,0.6983590632115039,2.6893820858265447,1.29032366530729,1.3100195471994869,-0.6357109741185489,-0.11063524128318525,-0.49267642853873495,0.002238548938505401,0.4927544589812728,0.6777177789686291,1.0864909281357649,5.544682926237144,0.9293781305938148,1.3212870973968287,1.2668003824106293,1.5620307090834746,1.4589860087284683,1.8008634444384017,2.0032505059943633,1.1424770583220525,Relax
108.80053177444711,551.3518518518518,26.542265647406087,,,,,,,33.40308900596151,33.542294537426606,0.04814034007187481,0.06058397898505094,550.0,16.3086,0.029651999999999998,24.0,0.7946051229773701,536.4,567.0,9.25925925925926,20.37037037037037,440.0,642.0,4.153846153846154,117.1875,,,0.050467811470337604,0.013934618481139138,0.004558215198249421,0.06896064514972616,3.62175767773241,0.7318349670418941,0.202066243012729,-4.273378996884512,23.71798392397084,27.22797036050225,0.871088943095696,2028.8171725834154,1.147988397655671,4.014213022191946,125.02957626227634,0.5370370370370371,0.5384615384615384,0.7678571428571429,0.12,47.0558631102164,46.79346992149552,47.29043614442713,49.03846153846153,0.3821270322564431,0.6178729677435566,14.669471572841847,18.653493779683185,0.4655214297555205,0.5344785702444794,18.577407527079156,19.9058358157906,0.4295207162404551,0.5704792837595448,16.737883179386696,19.289830607264168,0.6132733200753713,3.0700357923123605,1.2590572910784228,1.3728226331956268,-1.3046901813632914,-0.7212880292663161,-0.46294331733783617,0.0024695132312150653,0.604469582764763,0.6133319524797063,1.0216512475319812,5.641202956100179,0.924114482646735,1.2761925307906736,1.240155489959522,1.6237370236230266,1.563646713676134,1.8310305603653312,2.5387233424460574,1.1258145836939113,Relax
108.73736622039014,552.2897196261682,25.08213276184689,,,,,,,30.66172711107387,30.790059480345835,0.04541481014498041,0.055517468497925444,551.0,16.3086,0.02959818511796733,22.5,0.818027395227458,539.0,566.6,7.476635514018691,17.75700934579439,426.0,651.0,3.689655172413793,132.8125,,,0.049968188530623604,0.017048301549050023,0.009236061959641334,0.07625255203931496,2.9309775162563314,0.6552985728905253,0.2235767996362943,-4.071704696106098,21.771859851689687,26.48594619627454,0.8220155583776,1811.5940900802832,1.2165219864861017,3.9650310051866056,128.88294352262366,0.5420560747663551,0.5436893203883495,0.7857142857142857,0.16,53.02609661299278,52.79404523343146,53.27278392428554,48.54368932038835,0.5145451808740154,0.4854548191259846,15.626138053792769,15.177991585563241,0.5284896455208558,0.4715103544791439,19.254565993342766,18.187001795786955,0.5228629325289974,0.47713706747100265,17.53445896040397,16.750200937472158,0.7831712378363246,2.818748197710099,1.31448871456165,1.3314462417069897,-0.9711596907761724,-0.11669233590216566,-0.4939840219998666,0.0017998236207433672,0.47095447329482826,0.6695315761140126,1.0775588794702775,5.620780977071848,0.9719515059917205,1.1488073293442327,1.2217054768050986,1.4115372166991664,1.500735438845674,1.7915018323584169,2.427696159817588,1.0710741941011168,Relax
109.14454427577324,550.1775700934579,23.341118097465937,,,,,,,29.53843035647846,29.675957336629644,0.04242469952655652,0.05368890329618637,549.0,14.825999999999999,0.027005464480874316,19.5,0.7901949364193853,535.2,563.6,4.672897196261682,16.822429906542055,441.0,641.0,3.566666666666667,117.1875,,,0.03935716599849766,0.019293379988635007,0.0021175508031170912,0.060768096790249755,2.039931107026424,0.6476616526982053,0.31749192434360773,-3.9479932476814388,20.984070670933495,24.24037030576569,0.8656662586520937,1598.0076826520121,1.1551795972238468,3.910548972878033,112.00792482548523,0.5607476635514018,0.5631067961165048,0.8103448275862069,0.16666666666666666,51.31820968730839,51.09680133143991,51.543027692259926,50.48543689320388,0.6166163893303923,0.3833836106696076,16.47927991954341,12.99413787242613,0.3877590387905687,0.6122409612094312,15.094551555396718,18.967078475667183,0.4858048383692925,0.5141951616307074,15.802090895277056,16.257270449705516,0.6637708032479617,3.0747381037147745,1.2601406630998166,1.294348163452732,-1.0372445006326956,-0.13936142868912715,-0.4888746621015991,0.0025730320202891877,0.592128667982957,0.6819964330652528,1.2391942392892994,5.507698122211008,0.9816657439233212,1.345356568763417,1.3137227541310301,1.4204370898130136,1.4836113333227279,1.771196788455044,2.078900104418088,1.0080698297422277,Relax
109.16308861691678,550.0,22.367850918605953,,,,,,,28.111972873989554,28.230243192855475,0.040668819852010825,0.05111267795270828,549.0,14.825999999999999,0.027005464480874316,20.0,0.795669909716713,535.0,560.8,4.672897196261682,17.75700934579439,486.0,647.0,3.566666666666667,70.3125,,,0.05527094950784382,0.06662575214297077,0.06293900507820849,0.18483570672902308,0.8295733666051391,0.29902744705531037,0.3604593145016451,-2.708664107359539,19.96179639621348,22.8305410114415,0.8743461833081243,1431.7450731726742,1.143711746091759,3.8628358072840165,104.44623169766109,0.5700934579439252,0.5769230769230769,0.8333333333333334,0.16666666666666666,52.937649880095925,52.68544838429457,53.207136497956675,47.11538461538461,0.5890533603915484,0.4109466396084517,15.328933116045308,12.803459353962563,0.49164405663776084,0.5083559433622393,16.008166758671518,16.277966700472035,0.533873613200712,0.4661263867992879,15.672230113318689,14.644124612455466,0.8494453742822868,2.3861228189147425,1.242186013493738,1.2208966106107386,-0.6462325745700284,0.19960100274034365,-0.5089221739611384,0.0012950924481175653,0.31357339094653297,0.730977439881674,1.504077396776274,5.508847216196187,1.036701631191297,1.1905006283405133,1.285171889002852,1.537669831108463,1.6059117985404145,1.8019578639948108,2.5496844331112865,1.0710741941011168,Relax
109.43405897917958,548.3425925925926,18.254771255468455,,,,,,,22.493820542914058,22.597284734589778,0.0332908139948767,0.04102147242759694,548.0,11.8608,0.021643795620437955,17.25,0.8115460519764404,535.0,558.6,2.7777777777777777,15.74074074074074,494.0,641.0,3.272727272727273,62.5,,,0.043132486340899556,0.020823436851456954,0.014297287165409053,0.07825321035776557,2.071343296910265,0.5511912692616993,0.2661032915615137,-3.871676154900988,15.978693272231682,20.248774592781103,0.7891190254015792,1016.4590306497471,1.267235952765306,3.71405998863549,102.63990065365154,0.5833333333333334,0.5904761904761905,0.8387096774193549,0.20833333333333334,48.81676808654496,48.84254729044935,48.79280361216106,51.42857142857142,0.43428951402870397,0.565710485971296,10.531175640799013,12.019441797857148,0.4929012139536913,0.5070987860463086,14.216041734479155,14.41932834471857,0.4704062477756603,0.5295937522243399,12.510026038618218,13.273733669259752,0.8574845441359296,2.4518467965068798,1.1995332908207368,1.1932540004419785,-0.8248598862968866,0.2223834287764399,-0.5025610451630601,0.0015171176201220296,0.3107309098003269,0.6763540925837872,1.488077055429833,5.3441957534723485,1.1648244949802535,1.2225639175199812,1.1892294116279782,1.551012934487165,1.7149439972784846,1.7763642656679044,2.6427687620584415,1.1258145836939113,Relax
109.37403371319076,549.0934579439253,26.536743025146258,,,,,,,35.26396418174396,35.40871614159495,0.048328281171866105,0.06422215320828899,548.0,11.8608,0.021643795620437955,17.5,0.7525172974989648,535.0,558.8,8.411214953271028,20.5607476635514,464.0,678.0,3.566666666666667,93.75,,,0.0408523726155137,0.05495594111969787,0.05404331712314814,0.1498516308583597,0.7433658997220043,0.2726188055579289,0.36673568919408306,-2.9012234853290835,25.03774329683135,25.197690962254665,0.9936522887885676,1982.0098129831406,1.0063882620540947,4.004075910319866,101.43464166111858,0.5887850467289719,0.5922330097087378,0.8360655737704918,0.2,53.38042381432897,52.99950521181627,53.79723662485891,51.45631067961165,0.6169812465861503,0.38301875341384967,19.679334096360844,15.505452190086158,0.461443880693692,0.538556119306308,17.1167059825351,18.491673967943985,0.5387673441685056,0.46123265583149425,18.442584067434034,17.064012625343796,0.750761642101003,1.9965959140948901,1.1337571571037737,1.3508607277691913,-0.6993469320064349,-0.9042000441132654,-0.3912631398608083,0.0012971882447315715,0.26439678431323416,0.785585616617047,1.296887773404306,5.479843449394689,0.9265256278028315,1.1640936848925663,1.2520616015252224,1.3143377430119292,1.454258548581481,1.857481965279896,2.367928513790175,1.0710741941011168,Relax
109.42739833643557,548.6666666666666,24.56195675483059,,,,,,,31.024410045826638,31.158694155527336,0.044766628350238015,0.05654509728886994,547.0,13.343399999999999,0.02439378427787934,18.5,0.7916977863092236,535.0,559.6,8.333333333333332,20.37037037037037,464.0,649.0,3.857142857142857,93.75,,,0.04752287004390504,0.07372490953326824,0.055767635293598766,0.17701541487077205,0.6445971971313227,0.26846741047156,0.41648864076097675,-2.6074145513650597,22.032523930291024,26.002958541981144,0.8473083512678009,1799.8523803428739,1.1802078883133056,3.962206996714247,122.75558716292,0.5833333333333334,0.5825242718446603,0.85,0.2,52.44492208490059,52.29085661497269,52.59967560898372,56.310679611650485,0.6004524755070929,0.3995475244929069,17.0791719122312,13.931943748227438,0.384559034019043,0.6154409659809569,16.12516891487709,20.39933284209735,0.47482137795824103,0.5251786220417591,16.60902143024786,17.467567618395602,0.907412379653733,2.088279471385557,1.309944122435014,1.4083919130259097,-0.5630480769401007,-0.41551474299628177,-0.4528569849295236,0.001114097359326651,0.27313539327421843,0.7513412766367704,1.506922348908505,5.5455971416622845,0.9663993421669883,1.385125625964267,1.240407375742684,1.6879591938102079,1.5765013118402023,1.7949439821558995,2.4625593019921928,1.000724074394588,Relax
109.10111942819901,550.392523364486,31.781909239271904,,,,,,,45.94746795331332,46.16247333380978,0.05774407879851412,0.08348127200646141,549.0,14.825999999999999,0.027005464480874316,19.5,0.6917009936557359,535.0,562.0,13.084112149532709,25.233644859813083,442.0,705.0,3.962962962962963,117.1875,,,0.05535246149922987,0.07233165318719245,0.038310134477438564,0.16599424916386088,0.7652591785228402,0.3334601155042956,0.4357479463989768,-2.6264934422063897,32.64179793068006,30.678189366148473,1.0640066641839794,3145.963420032633,0.939843737507915,4.204723778480993,115.3308166154262,0.5887850467289719,0.5882352941176471,0.85,0.2608695652173913,48.865414710485126,48.65520989151339,49.08362665282345,56.86274509803921,0.5856406177385336,0.41435938226146646,24.981612285458127,21.013261119044394,0.3282040680372523,0.6717959319627478,17.57525778509902,25.144812915839744,0.4649070996251973,0.5350929003748026,21.59827121083579,23.1713050930426,0.6297865571275484,2.3275786814817527,1.22885975884652,1.2717543312157806,-0.371704763398812,-0.32126981861135007,-0.4815711611768355,0.002527808476078403,0.4244595726883348,0.7338361316986233,1.1667500938353277,5.652649290475746,0.8421345018060467,1.0335815347372372,1.1632888989869,1.2208116654175296,1.3733744128353769,1.877418331577622,2.506328706550684,1.0080698297422277,Relax
108.82959955397217,552.2616822429907,32.4070037994346,,,,,,,45.679255024821074,45.888506039344,0.058680522008723715,0.08271306247302265,549.0,17.7912,0.03240655737704918,23.0,0.7094468546351154,535.2,573.0,14.018691588785046,27.102803738317753,442.0,649.0,4.6521739130434785,117.1875,,,0.052380152773964614,0.05401013288236844,0.04106608156030963,0.14745636721664268,0.9698208461742939,0.35522476080675286,0.3662787433452557,-2.9185836040513795,32.44807379893998,31.40978395821733,1.0330562554044889,3201.870353773816,0.9680014953381741,4.212373852979011,121.61887135921347,0.5887850467289719,0.5922330097087378,0.8360655737704918,0.2916666666666667,51.6849678152215,51.41062836075654,51.96188824659694,58.252427184466015,0.631447831846604,0.3685521681533961,25.788794170373784,19.702066606613343,0.3541335898690396,0.6458664101309604,18.691687440702125,25.24272863461843,0.4973218817431047,0.5026781182568952,22.521557274562593,22.642512862891497,0.5240896970674225,2.6287706346570174,1.1659019976765763,1.377789706011286,-0.7003399408938336,-0.7752101711429765,-0.41939665426065015,0.0035370956676403667,0.5670636160620437,0.7399702248549729,1.3470736479666092,5.74704055655154,0.8603999972349735,1.12050562580781,1.2265046461881393,1.3825787363990867,1.5191952552635446,1.8281502168978072,3.0844605529717346,0.8820611010244491,Relax
108.57328916677574,552.9719626168225,30.543028091198185,,,,,,,41.673144150594474,41.86980311987858,0.05523431594372305,0.07536212858493795,549.0,19.273799999999998,0.035107103825136605,26.0,0.7329187349249356,535.2,573.8,13.084112149532709,27.102803738317753,442.0,649.0,5.095238095238095,117.1875,,,0.04801913107674444,0.04779956387118248,0.03991668780263897,0.13573538275056587,1.0045934980945366,0.35377018212699035,0.3521525699678568,-3.0407387635601903,29.606421713011812,30.854573680106682,0.9595472625862399,2869.824532000198,1.0421581499849513,4.1648254536944975,128.6213817001374,0.5887850467289719,0.5961538461538461,0.8225806451612904,0.28,49.30027988804477,49.27321585283453,49.324705605906594,56.730769230769226,0.5701224977591874,0.4298775022408127,22.35546167420093,19.41207282668627,0.3727115043778978,0.6272884956221023,18.83674892970898,24.43729949769899,0.46734649343894785,0.5326535065610521,20.67111241452137,22.068191794626163,0.7263394253990244,2.301143907866118,1.3144536757928125,1.3550067525325185,-0.4905781830495286,-0.4408561515437568,-0.48237699232930137,0.0023856730626864203,0.39788343737473314,0.6950758289593915,1.199964782928397,5.76115060332095,0.9055782354769907,1.2485793457655927,1.196437645145738,1.4782582078998625,1.5295295764422552,1.7916268323801825,2.3013657194835395,1.0080698297422277,Relax
108.50426372574005,554.3084112149533,38.15173559071755,,,,,,,57.24286228883797,57.502595745933206,0.06882763244940698,0.1032689764951807,550.0,17.7912,0.03234763636363636,28.5,0.666488957142119,538.0,575.0,19.626168224299064,32.71028037383177,442.0,679.0,5.35,117.1875,,,0.05415488540501441,0.0626454644144839,0.039572550233372535,0.15637290005287086,0.8644661814095126,0.3463188659077387,0.40061586370338464,-2.7702639958795214,40.660475387778085,33.705881949407896,1.2063317449698823,4305.543883220562,0.8289593672468317,4.340998129993493,111.76322629311029,0.616822429906542,0.6213592233009708,0.84375,0.28,51.81844631946464,51.42194964799847,52.22809855704844,58.252427184466015,0.6582204499978408,0.3417795500021592,32.995165591052164,23.775938216929276,0.3025609210860468,0.6974390789139532,18.540101704501975,28.148731885719897,0.5133993367908868,0.4866006632091134,26.762065723652853,26.05423521108787,0.4145755540350386,2.575200782144732,1.0798791042219764,1.2942396015820643,-0.9710457907393639,-1.1668960078342865,-0.41675969545894603,0.0038304958759733266,0.531062033575903,0.7018555861864897,1.123131905842428,5.8138185661564625,0.8415475485859762,1.2656741933194888,1.2071300304768695,1.3977283046075903,1.4337497485364106,1.8991352728572177,3.4559390021112115,0.81905673666556,Relax
107.66262827577177,558.8018867924528,48.30546056312509,,,,,,,60.732199038072054,60.99970425677422,0.08644469838926375,0.10868288113105258,550.0,17.7912,0.03234763636363636,26.0,0.7953846777858835,538.0,575.0,20.754716981132077,32.075471698113205,442.0,797.0,5.0476190476190474,117.1875,,,0.04966096912636872,0.04788527847738798,0.033234023600744934,0.13078027120450164,1.0370821827802306,0.37972829287617593,0.3661506283505834,-3.038947160480138,43.13330453033896,50.4280259960749,0.8553439020931787,6833.364267224298,1.169120394209653,4.541604682305845,235.8257345269829,0.6226415094339622,0.6237623762376238,0.8412698412698413,0.3333333333333333,52.48881431767338,52.111906454661586,52.86039811840555,57.42574257425742,0.5808093327342865,0.41919066726571347,32.885070847048276,27.937516133191007,0.6023058084453531,0.3976941915546468,39.136365718651625,31.801425820185404,0.5932193767866347,0.4067806232133654,36.1461132508008,29.93188510509372,0.6149791864025638,2.289380054703412,0.5540137203408064,1.550985920356292,-0.6660730738058067,-1.2487064870098505,-0.0645230690434042,0.004866452258998874,0.5065981383571725,0.7138967989535678,0.9520088144762342,5.7587784172688545,0.7008139955652098,1.3443268366579824,1.1533132979349108,1.1687165163955624,1.2004776651491493,1.9079756769732032,2.3937282243554128,0.9520642152683771,Relax
107.35644630824396,559.811320754717,50.073681559334744,,,,,,,62.11372059146261,62.41155646955443,0.08944742577164615,0.1109547418721779,550.5,22.238999999999997,0.04039782016348773,33.5,0.8061613614918,538.0,582.0,24.528301886792452,34.90566037735849,426.0,797.0,5.888888888888889,164.0625,,,0.052734940588133536,0.06246886810855317,0.038264587440549,0.1534683961372357,0.8441795439048962,0.34362084908332846,0.40704711641536784,-2.773086956601059,44.131634804029076,55.72830069335057,0.7919070607745053,7726.373327368262,1.2627744460593324,4.594945798769152,281.48909615149466,0.5849056603773585,0.5882352941176471,0.8166666666666667,0.3181818181818182,49.871200412158686,49.67500104693821,50.058510633677336,59.80392156862745,0.6159387018578036,0.38406129814219636,34.635325452935604,27.349588662354687,0.46290708564127436,0.5370929143587255,37.916017469902506,40.84138975831437,0.521887999276555,0.4781120007234449,36.31273984436262,34.756431903969556,0.7536413935970019,2.1873777020674163,0.7601539874754946,1.7020447830412162,-0.7618293262258575,-1.4712584030468694,-0.06939727662237467,0.004903460077622713,0.46824347497543917,0.6780738115174483,0.9290741714998302,5.922410284890991,0.718970641030352,1.061471459642593,1.0042544426313433,1.1196471342434602,1.2271375876999688,1.8256199668367223,2.4148958426327165,0.8885932675838187,Relax
107.06088255687459,561.4761904761905,48.34493355805343,,,,,,,56.498893794480615,56.75964993147456,0.08610326560250377,0.10062562714647552,553.0,20.7564,0.037534177215189875,33.0,0.8556792940745372,539.0,582.0,22.857142857142858,31.428571428571427,442.0,797.0,5.25,148.4375,,,0.0542373148529643,0.06134853624556359,0.02056174746672041,0.1361475985652483,0.8840849052349877,0.3983714397060866,0.45060314608606555,-2.791183967187867,40.13513336432022,54.7215296609948,0.7334431916096147,6899.741372077657,1.3634321123158832,4.54580292203461,298.4363630993856,0.5523809523809524,0.5544554455445544,0.8035714285714286,0.3333333333333333,51.78826895565094,51.54478403149218,52.013595012020545,60.396039603960396,0.6224271870980569,0.3775728129019433,31.6714014515132,24.66739918443515,0.48674679089717243,0.5132532091028275,38.17770144696034,39.20342996047535,0.5342189292845189,0.4657810707154812,35.07573632638487,32.752019046084534,0.8102844189263337,2.4343505629425204,0.8018326981803758,1.8784206632057816,-1.376649026983248,-2.078570952599623,-0.057751467100087536,0.004378566202836708,0.514049629290618,0.6910615840917456,0.9327156115415554,5.802354032315129,0.7141131385623909,1.0741353773139366,1.0145508030563672,1.15427307516734,1.208538815525912,1.7847555118913092,2.296206398309025,0.8952327356888163,Relax
106.52668575173593,564.1238095238095,48.451937969912954,,,,,,,57.526749630731985,57.80533116140424,0.0858888370813712,0.1019753973499039,555.0,20.7564,0.037398918918918916,30.0,0.8422505752702726,541.0,582.4,23.809523809523807,35.23809523809524,442.0,797.0,5.526315789473684,148.4375,,,0.049754260590494606,0.04396034970647995,0.010987917903691384,0.10470252820066595,1.1317985621747821,0.4751963629296408,0.4198594863175457,-3.124467194371899,40.87454165296298,54.08753416227293,0.7557109468206029,6945.442991190589,1.3232572641790625,4.5486700608985,286.28688992704343,0.5714285714285714,0.5742574257425742,0.8275862068965517,0.4090909090909091,50.0,49.87532103891939,50.119247000645885,61.386138613861384,0.6000435831129963,0.3999564168870034,31.662433714701468,25.84992159759758,0.4767785702897133,0.5232214297102865,37.346984894735215,39.123702164128844,0.5215857583254289,0.4784142416745711,34.62157556687336,33.1578234933281,0.8644816683191848,2.3455942121768834,0.8959230576805899,1.9029696562063383,-0.9239568816129502,-1.6553386452103735,-0.07066461312967888,0.005505124700005116,0.5495068861826417,0.6860845728813318,0.9518910635193716,5.732734565037918,0.7144035726848754,0.7121086403075138,1.1331643939068807,1.2784147275116773,1.2344524195584445,1.7973067029994316,2.5987733602891407,1.0231231265015044,Relax
106.30630935927755,564.8653846153846,49.348189821771435,,,,,,,58.72372372521467,59.0093917868654,0.08736274370108993,0.10396056356896342,555.0,21.4977,0.03873459459459459,31.0,0.8403450375981932,541.0,583.2,24.03846153846154,34.61538461538461,442.0,797.0,6.117647058823529,156.25,,,0.029613086661748216,0.03866073121446266,0.0157206573250542,0.08399447520126507,0.7659732687795155,0.35255993433842187,0.4602770732458886,-3.2529308914009265,41.72594108618629,56.25718813136455,0.7416997271309266,7374.52469914317,1.3482545070742322,4.5747041444843575,303.39602981374105,0.5673076923076923,0.5656565656565656,0.8214285714285714,0.391304347826087,50.59147180192573,50.45464632339808,50.70949058696912,59.59595959595959,0.6030608711320324,0.3969391288679676,32.4039304079359,26.28930297631324,0.47847623030058073,0.5215237696994192,38.91420883215705,40.627030009773215,0.5226912688141979,0.47730873118580197,35.80733412944255,34.21756141512283,0.6930901071747122,2.983740901346134,1.3323830271382484,1.9662926652965411,-1.8540898073394505,-2.4167540222369746,-0.2875453468924529,0.0053905939072598314,0.762426313344021,0.663201338502565,0.9074467070777021,5.791752280987073,0.717755200599464,0.8077006993946034,1.2200161688995086,1.392369129284906,1.236166327432474,1.7988478418428642,2.4124618943423166,0.9019822697497624,Relax
105.9983658287318,566.8461538461538,46.26449271346606,,,,,,,54.07590853138896,54.332098850895676,0.0816173707796253,0.09539785736301487,559.5,22.9803,0.04107292225201072,36.0,0.855547210762281,544.0,586.2,19.230769230769234,30.76923076923077,442.0,797.0,6.5,156.25,,,0.04930316514930032,0.04958307078605563,0.01641334561007944,0.11529958154543539,0.9943548144090738,0.4276092288320381,0.43003686675581504,-3.0041058183096734,38.418595533566155,52.34090777115711,0.7340070543204648,6317.316089763894,1.362384726568859,4.507502717520375,285.233813288695,0.5480769230769231,0.5454545454545455,0.7962962962962963,0.36363636363636365,51.5151515151515,51.55563622024868,51.471067114274845,58.58585858585859,0.6219434050592145,0.3780565949407854,30.30280191536038,23.625758624607915,0.48773427357873445,0.5122657264212654,36.55383002286285,37.461822392516176,0.5347340140321393,0.4652659859678608,33.57411423449558,31.317444081187894,0.9097755587732935,2.39982486969047,0.8970181530471799,1.9566654709076905,-1.213135990457884,-1.9070909450362077,-0.058448063755092254,0.004406927635847913,0.5175693837245715,0.6915199360689468,0.949576709507622,5.80977442503445,0.6934006316424308,0.7673679812685318,1.1771498607287791,1.4336238962237218,1.328714877780697,1.7596061678138655,1.9517512792598932,0.9664095747318882,Relax
105.85421527026509,568.2884615384615,50.338595873378914,,,,,,,60.86424492819747,61.140683128728234,0.0885793030833374,0.1071009690455913,557.5,24.462899999999998,0.043879641255605374,39.5,0.8270635071997388,541.0,589.0,21.153846153846153,33.65384615384615,442.0,797.0,6.5,132.8125,,,0.04637010783567389,0.03786155252368399,0.007461862742022811,0.09169352310138071,1.2247281145343272,0.5057075600029557,0.4129141431486111,-3.273819127077011,43.23299164670168,54.84226555308982,0.7883152019832252,7448.701128855059,1.2685281185548913,4.579050658985244,278.275823757395,0.6057692307692307,0.6060606060606061,0.8333333333333334,0.36363636363636365,52.29741019214704,51.875672774327974,52.71875456706822,56.56565656565656,0.6633312279359156,0.3366687720640844,35.22337681866695,25.09384347588382,0.4544788223161265,0.5455211776838732,36.971937720200934,40.506171285486914,0.5345587659509868,0.46544123404901333,36.108243195260975,33.69310680689272,0.786404479791983,2.3080448185225575,0.7765708941844287,1.8020365781179384,-1.1212007879989958,-1.844420166128349,-0.055699405963035735,0.004082650846396758,0.48093433188062656,0.6695600275254834,0.863827162338414,5.767807809874832,0.7002742501885569,0.9957760208881153,1.0647302268051841,1.3146731129911602,1.2956596391992599,1.7953081461577216,2.412898797122554,0.9019822697497624,Relax
105.47318373016294,569.0288461538462,47.366461595654435,,,,,,,52.304652747428946,52.554481625548696,0.08324087946650097,0.09191915858214249,558.5,25.9455,0.046455684870188,39.25,0.9055879182370206,543.6,589.4,17.307692307692307,31.73076923076923,454.0,797.0,6.933333333333334,132.8125,,,0.04668067359804087,0.03902959739733342,0.013555820384417895,0.09926609137979218,1.1960326703557078,0.470257999979475,0.3931815673894738,-3.243435013053335,37.161630339169285,54.94735465645843,0.6763133652477183,6414.922597407287,1.4786045217866168,4.514161530497882,324.9816282210094,0.5769230769230769,0.5800000000000001,0.8103448275862069,0.3333333333333333,48.68206963878944,48.31496322684762,49.027717059721006,59.0,0.6249729403623328,0.3750270596376669,29.381533482851463,22.760151796592254,0.4356573237170507,0.5643426762829494,36.26764019674142,41.277960927137975,0.49508257850099086,0.5049174214990092,33.00466811864812,33.33087583687421,1.0187973133207577,2.019978494033541,0.9469624639723948,1.8455154869253507,-0.744193604181401,-1.3776514573570462,-0.05516703489317651,0.002602057651143658,0.34827911783403603,0.6534553697092882,0.9449095371798075,5.834927521330084,0.7287131782039755,0.8965656325926624,1.131449155171111,1.3808274453479608,1.3546022894158818,1.716336724421063,2.1484142591442548,0.7087003548033847,Relax
105.7885030582144,567.2571428571429,47.04887568578768,,,,,,,52.31864280173354,52.56026005706799,0.08294100176299832,0.09223091055004905,557.0,23.7216,0.04258815080789946,37.0,0.8992755386274804,541.0,585.4,17.142857142857142,32.38095238095238,454.0,797.0,6.176470588235294,109.375,,,0.057879620425930714,0.05177891167819004,0.014037636049202117,0.12369616815332288,1.1178222668266389,0.4679176508862282,0.4185975398527258,-2.960772323068313,37.16571630728121,54.709067842380804,0.67933375166174,6387.80566712184,1.4720304968711888,4.5123218053148335,322.1336652775176,0.5619047619047619,0.5643564356435644,0.8070175438596491,0.2857142857142857,48.1493401995494,47.81636740074017,48.47707329539152,59.4059405940594,0.6169886150073947,0.38301138499260556,29.199680806873573,23.006225413287382,0.44321544678923636,0.5567845532107636,36.42224899813289,40.82281080597259,0.4981043717756673,0.5018956282243328,33.009101633529,33.134485735161356,0.8932138460413346,2.3600693098958745,1.4553006668728332,1.775128313984014,-0.8532239806468969,-1.2678948749776817,-0.36448379046745405,0.003050339589393944,0.4640761473897032,0.670676648029183,0.9611932784948672,5.815163346295571,0.7450096324307841,0.9275048425793843,1.2354054418612928,1.4901159469111385,1.3214617634202133,1.732986532702946,2.3701141031550903,0.8312875402824722,Relax
105.56300386172356,568.8942307692307,46.80260516133665,,,,,,,52.44618138384884,52.702610948961684,0.08226943187321917,0.0921896875504146,558.5,25.9455,0.046455684870188,35.5,0.8923930003367192,541.0,585.8,17.307692307692307,31.73076923076923,454.0,797.0,6.5,132.8125,,,0.05209041735698963,0.037865856564911565,0.005535019401051871,0.09549129332295307,1.3756566490894933,0.5454991292328507,0.39653726792503097,-3.2737054551243054,37.26637358824719,54.950457932177656,0.6781813107771192,6433.366926478057,1.4745319343202083,4.515408432013523,324.10482010606063,0.5673076923076923,0.5700000000000001,0.8070175438596491,0.2727272727272727,49.902912621359235,49.76734951862639,50.036036856687424,56.00000000000001,0.6087776020782739,0.39122239792172586,29.0768083584448,23.309301349713696,0.46985528011754485,0.5301447198824552,37.66633562399119,40.00999859556205,0.5136207942804558,0.48637920571954435,33.646794971088056,32.74235419932906,0.887855453120639,1.6285645477427693,1.3357523178531516,1.3520097413005505,-0.39231350918048236,-0.7019730543770573,-0.49001732938990233,0.0020465011040874475,0.19478943749550717,0.6659188438542203,1.0340737675305385,5.8419376747262435,0.7393805218929221,1.1298133944808133,1.2644531064424664,1.444392485685768,1.3600127530731112,1.7215965305064092,2.1736920293775164,0.7087003548033847,Relax
105.47442795185927,569.3173076923077,45.848900088039706,,,,,,,51.18432329782539,51.434458505918656,0.08053312180844346,0.08990473784346703,561.5,23.7216,0.04224683882457703,33.25,0.8957605988313934,543.0,585.8,16.346153846153847,31.73076923076923,454.0,797.0,6.5,109.375,,,0.04862620567085386,0.023666351962324996,0.0018796229720635027,0.07417218060524235,2.054655730138004,0.6555854941039316,0.3190731588205768,-3.7437009880638916,36.36965439619318,54.04011384550887,0.6730121720351587,6174.549862888226,1.4858572274793258,4.4975754121057285,321.18357492461973,0.5673076923076923,0.5656565656565656,0.8035714285714286,0.22727272727272727,49.77913693510024,49.605444008828464,49.9495616336043,58.58585858585859,0.6433926394236649,0.35660736057633513,29.172828480773465,21.71879099657578,0.45394455150412927,0.5460554484958706,36.409746833661224,39.93324730026669,0.5130038918944194,0.4869961081055808,32.99032878026476,32.143196187507534,1.037538110858675,1.4261279739320962,1.3756041087012831,1.5560071577127617,-0.4344662328135307,-1.0593312643577408,-0.37350150034987806,0.0009159323386752741,0.14251454249257067,0.7221617835994243,1.1295745142720766,5.802515891359802,0.7308087402344904,1.0046201030865385,1.0696204054145477,1.4036050625702627,1.359377284088109,1.7370664501490836,2.222227012459207,0.7731276597855106,Relax
105.7509816522565,568.0673076923077,45.57683460789352,,,,,,,46.41057797068267,46.62925943570795,0.08023139862253804,0.08169908273584517,558.0,23.7216,0.04251182795698925,35.0,0.9820354884760146,541.0,584.0,8.653846153846153,25.961538461538463,457.0,798.0,6.933333333333334,132.8125,,,0.04985922639536371,0.02852526727602337,0.006033919756444078,0.08441841342783116,1.7478969053261906,0.5906202731230916,0.3379033805273949,-3.5569650133910105,32.971865548695895,52.235837455134714,0.631211581072389,5410.805897495056,1.5842548362326665,4.440232064674485,331.01951245184256,0.5865384615384616,0.5900000000000001,0.847457627118644,0.2857142857142857,48.11241610738255,48.27988755554952,47.896875615848344,57.99999999999999,0.5845007572479447,0.4154992427520555,25.21233358310734,21.25717871823125,0.4091373235839348,0.5908626764160652,33.412049159620416,40.15243063121287,0.45911302805501236,0.5408869719449876,29.597523492268518,32.12542087392152,0.8664649301823512,2.0644532210938316,1.4100203848103,1.267249463753199,-0.2928412049810145,-0.040947980984712085,-0.5691567721652976,0.0025910284973329,0.30398205413609136,0.7132634093766779,1.0011569525173967,5.778819800526049,0.6581583109281207,0.9684053812061405,1.1527083179269653,1.4177306096590656,1.3521025215445703,1.6932111686334255,1.840875738020415,0.7731276597855106,Relax
106.00250640510694,566.152380952381,38.36283782526165,,,,,,,36.05177900230125,36.21770019367457,0.06776062260963686,0.0636785787982645,558.0,23.7216,0.04251182795698925,35.0,1.0641038774484022,541.0,584.0,7.6190476190476195,25.71428571428571,452.0,709.0,7.0,140.625,,,0.05708849027721245,0.030960860061028227,0.0065280529942893005,0.09457740333252998,1.8438922615419266,0.6036165962020742,0.3273600138097597,-3.475031450897487,25.60978140592862,46.20942803942873,0.5542111749160101,3717.8026896075135,1.8043663593603079,4.277256447229698,333.5149497585046,0.6095238095238096,0.6138613861386139,0.8548387096774194,0.2857142857142857,48.023143683703005,48.14919747421885,47.88966807177908,56.43564356435643,0.6376912378303199,0.36230876216968005,20.455730082397046,15.418750405842554,0.3645658795125564,0.6354341204874436,27.90092507687928,36.83543972298296,0.42876751473243035,0.5712324852675694,24.46322253250289,28.23639038247613,1.1155315172316373,1.7009153618265724,1.4083180967456612,1.296299758152755,-0.43388960018957334,-0.0009492675134596951,-0.565857679404231,0.0010602269592761772,0.15096423526846856,0.7565505128558883,1.3116034685183013,5.808592337382307,0.7664383625696956,1.069957341756346,1.4029587680332412,1.4908844521660993,1.5665811127552929,1.63712557446372,1.8606632839462494,0.7033971494697843,Relax
106.18177525970899,565.7142857142857,38.4494459012076,,,,,,,37.36256868125555,37.52676913607648,0.06796619224960941,0.06604494463858306,558.0,25.2042,0.045168817204301076,37.0,1.0290900025965648,541.0,585.0,9.523809523809524,29.523809523809526,452.0,709.0,7.5,156.25,,,0.05140927630080211,0.022010137997305473,0.004808882478688434,0.07822829677679602,2.335708949534789,0.657169827530376,0.2813577554948645,-3.816252113708516,26.535432932141717,46.92337197963036,0.5655056704718677,3911.69751289624,1.7683288642633463,4.299335373879204,331.90381232058513,0.5904761904761905,0.594059405940594,0.85,0.22727272727272727,52.61496844003608,52.3900223679862,52.84307658072665,55.44554455445545,0.7107521697203473,0.2892478302796529,22.380968857274503,14.277587841197363,0.40417318365001265,0.5958268163499874,29.831353686672372,36.220065918761364,0.4785097753328564,0.5214902246671438,26.370603233237123,27.52946321418677,1.091603231215851,2.188597864272885,1.5018716222079456,1.4143491631577398,-0.7232446084232418,-0.13749714552435632,-0.5399901966820585,0.0016092421960324929,0.267016283381009,0.7997550015130086,1.5308755899309983,5.900112722853134,0.8293506858769502,1.1551655522792443,1.4573105291710955,1.604078511607065,1.578368746322705,1.6106086459827682,2.2065546583330415,0.7673423448761283,Relax
106.02546843195906,566.6857142857143,40.43972587161575,,,,,,,43.374819884352256,43.58462770539715,0.07136182340962746,0.07654122698156342,558.0,25.2042,0.045168817204301076,40.0,0.9323318455140062,542.0,587.4,12.380952380952381,29.523809523809526,452.0,709.0,6.176470588235294,140.625,,,0.05154538211627856,0.022786951212220245,0.0059274728356055245,0.08025980616410432,2.2620569832367776,0.642231579912934,0.2839148547858263,-3.781567222110128,30.8189858059774,47.051768142783004,0.6550016507871563,4555.585099550741,1.5267137094971253,4.365514273748843,287.33831791866766,0.580952380952381,0.5841584158415841,0.8135593220338984,0.18181818181818182,50.3001200480192,50.08631079610575,50.52502426946825,56.43564356435643,0.7063726918221637,0.2936273081778364,25.902262149588775,16.700095924380047,0.3694424711532866,0.6305575288467132,28.59890193377339,37.362704580164205,0.47059753581200414,0.5294024641879959,27.28391812298599,28.938425124979748,1.174385129703168,1.1139629855840218,1.4709648458627014,1.327475082217598,0.3888170789332026,0.2218330011560865,-0.6288101718836514,0.000772965829815205,0.09051950899674939,0.7402298092114732,1.1239300966524,5.874826798738337,0.7876062338575122,0.8315110669952961,1.2955158860862113,1.646226293913325,1.533192117949714,1.6390099419809903,2.240400233452824,0.8312875402824722,Relax
105.91668972559886,567.2571428571429,42.47511229926491,,,,,,,48.306413812087264,48.53238084301307,0.07487805633495878,0.08515787667084991,558.0,22.238999999999997,0.03985483870967742,35.0,0.8792851496799946,543.0,585.0,14.285714285714285,29.523809523809526,452.0,723.0,6.5625,140.625,,,0.05547942381373219,0.034815954617954184,0.007073432541852862,0.09736881097353924,1.5935057482273398,0.569786395243228,0.35756783173018003,-3.3576795312319834,34.317575601222636,49.010541591375116,0.7002080468186838,5283.916834891353,1.4281469693805822,4.429926083470517,279.9770257656934,0.5904761904761905,0.5980392156862745,0.8524590163934426,0.22727272727272727,51.65514732630048,51.40309556555802,51.91126844610938,57.84313725490197,0.6885633640315636,0.31143663596843646,28.481300286669104,19.154583217925342,0.3789596575605245,0.6210403424394757,30.170742019791586,38.623302720703364,0.48083868758372056,0.5191613124162796,29.33818450453466,30.484894384822123,0.9386099876099222,1.516444975376463,1.350434638444134,1.2737287159435957,-0.06789180930240946,-0.22967166306088682,-0.5505827271981931,0.0015860441807856365,0.16676169439860963,0.6820789365423519,1.07158361628019,5.892923318070624,0.7206642544782701,1.0676344326831784,1.2842373469347461,1.4872591468427754,1.507286165113001,1.6966535869701638,2.5194805751068388,1.0231231265015044,Relax
106.59544605945386,563.8952380952381,39.731290664606625,,,,,,,45.616187241609076,45.82902337895233,0.07045863837902507,0.08089479066305719,556.0,19.273799999999998,0.03466510791366906,29.0,0.8709910465372146,542.0,580.2,11.428571428571429,27.61904761904762,452.0,709.0,5.833333333333333,140.625,,,0.0452658407436339,0.016509426323613335,0.0039644412429784654,0.0657397083102257,2.7418179079239375,0.6885616305144584,0.2511332457653348,-4.103823768860744,32.40601320641401,44.9936800598966,0.7202347788239236,4580.64877502515,1.388436145270445,4.367897103131411,249.88340681557804,0.6476190476190476,0.6534653465346535,0.8787878787878788,0.23809523809523808,51.74578265986661,51.39139300052161,52.113690959737326,55.44554455445545,0.7052405883358671,0.2947594116641327,27.218907620234045,17.59688851578293,0.37581758863439296,0.624182411365607,27.582909001353,35.5473539993544,0.4883609415848012,0.511639058415199,27.4015127412316,28.046968301336157,1.06592721284296,1.0216932505258418,1.2503654771323638,1.2122358601186654,-0.05873697028606273,-0.28437655327945865,-0.5373200243752947,0.0005729151836562016,0.054776788937781255,0.7418060361948182,1.2546659186414542,5.786778108282751,0.7821220071642017,0.9692934393991074,1.2470940082548991,1.4917412716400027,1.4875843267061657,1.6845144573190658,2.79656755739419,0.8312875402824722,Relax
106.50812251342687,563.4666666666667,38.29090740298001,,,,,,,41.61395383577669,41.81233970142003,0.06795594072937768,0.07385344386377785,556.0,19.273799999999998,0.03466510791366906,28.0,0.9201458615081232,542.8,579.2,10.476190476190476,26.666666666666668,452.0,709.0,5.526315789473684,140.625,,,0.04604524197201833,0.01671960733389169,0.004943917048838675,0.06770876635474869,2.7539667082181856,0.6800484553325344,0.24693415984412004,-4.091173156416445,29.565788940149606,44.8983162625432,0.6585055164933906,4170.320181698576,1.518590163564768,4.3271395097333345,272.72856574767263,0.5904761904761905,0.5980392156862745,0.8360655737704918,0.17391304347826086,48.87473460721867,48.595401327030515,49.15970909804478,56.86274509803921,0.6609087224248885,0.33909127757511154,24.037692892864126,17.217906686923694,0.3716536413531151,0.6283463586468848,27.37154114527042,35.59013260082238,0.459153697483404,0.540846302516596,25.758609670155742,27.956339613974247,0.867782714597804,1.885933704196004,1.293059551821187,1.2492288703226189,-0.5554595217630247,-0.42518722308629675,-0.5232408389547571,0.0014150865082517775,0.21664409956840663,0.7660949486904025,1.2403404484968112,5.837682660358431,0.8254453924421132,1.2387845888060538,1.1606188976494813,1.315020233123309,1.4643530658481563,1.701180539653184,2.2840669633654946,0.9591779310951603,Relax
107.04128815220366,560.8396226415094,35.21069555917642,,,,,,,37.90062193232642,38.06450087819656,0.06278211120914903,0.06757836001995998,555.5,18.5325,0.03336183618361836,25.5,0.9290268540196251,543.0,575.0,9.433962264150944,26.41509433962264,452.0,690.0,5.3,140.625,,,0.040171774524474416,0.010572676401743619,0.003224938921105075,0.053969389847323114,3.799584229954242,0.7443436851540937,0.19590135133365835,-4.5494823037964425,26.91566669345408,40.453328600645385,0.6653511002559298,3420.655017378442,1.502965877136667,4.241079386542723,243.1998900134672,0.6037735849056604,0.6116504854368933,0.8412698412698413,0.16,47.331583552055974,47.52409531770628,47.12419920264727,55.33980582524271,0.5521786405707163,0.4478213594292837,20.010093606823684,18.020287712208404,0.4111594309625878,0.5888405690374121,25.939367994725927,31.04224513314046,0.4544595803341888,0.5455404196658113,23.16521808789697,25.38062008833464,0.9609864544942942,1.6412561206985705,1.2894680535334633,1.423526397015213,-0.5240839217120943,-0.791696271530109,-0.4183196688249423,0.0005966894361024276,0.16307518667667398,0.8224892105443256,1.2624560977010275,5.693498374452402,0.8693956594908474,0.9503291209797605,1.2078174349042143,1.3238475897314212,1.5420479512860552,1.7157110016123345,1.9741243793318026,0.8885932675838187,Relax
107.08031174471796,560.377358490566,37.366002584521276,,,,,,,46.26126632405086,46.47789462362392,0.06668007195217601,0.08255377492170692,556.0,19.273799999999998,0.03466510791366906,26.5,0.8077168126522942,542.0,575.0,13.20754716981132,29.245283018867923,452.0,690.0,5.888888888888889,140.625,,,0.0424273971640617,0.017629949588086922,0.005047054769781475,0.06510440152193009,2.406552381336992,0.651682469575736,0.27079504881322597,-4.038156142015645,32.864834463638246,40.78078063986844,0.8058902735056684,4210.5308795007495,1.240863716657037,4.331306966724374,202.41356413185,0.6132075471698113,0.6213592233009708,0.859375,0.16,48.66739686016795,48.47498777215652,48.85750432012246,54.36893203883495,0.54245230540561,0.4575476945943901,24.208131977625904,22.233031559094506,0.43102581235074905,0.5689741876492509,26.773624890849547,30.761096856275316,0.47490496188503134,0.5250950381149686,25.523133072196213,26.837965385893575,0.8147769104098265,0.5385007420893635,0.881312078849001,1.030838893273189,0.6879861891318626,-0.20563703450549853,-0.22232756106513588,0.0006885346238474748,0.035169801242593064,0.7850441847773184,1.2292324710851739,5.780716416884823,0.8464938090992753,0.9227623839750043,1.1992650725307181,1.3092308481522665,1.5471604097861154,1.7924656766738212,2.724122534672084,0.9520642152683771,Relax
107.30337956727226,559.6415094339623,37.9024282873916,,,,,,,47.92990914320817,48.15855794453052,0.06772626341767826,0.08564394944843509,556.0,19.273799999999998,0.03466510791366906,25.5,0.7907886529503781,542.0,573.0,15.09433962264151,32.075471698113205,452.0,690.0,5.578947368421052,140.625,,,0.04521489334250119,0.018673003271579204,0.005566111855502406,0.0694540084695828,2.4214044567388595,0.6510048064728033,0.26885421998007497,-3.980676473541482,34.05324289474281,41.614889074392494,0.8182946933696693,4452.01983098265,1.2220536294596795,4.355527200140894,203.42250493169325,0.6320754716981132,0.6407766990291263,0.8787878787878788,0.2,49.38733832539142,49.306325471320925,49.47431576632469,54.36893203883495,0.5624258956776967,0.4375741043223029,25.538903205170673,22.5265868560822,0.44204751874196685,0.557952481258033,27.6683473968247,31.084747787341247,0.4903275133846934,0.5096724866153064,26.62492276603308,27.145060880270943,0.7810006043613033,1.4225460245202814,1.1380066479645006,1.1905432140176657,-0.14348919611931343,-0.50172646463262,-0.4630686352865934,0.0008702417543821677,0.1415829485895641,0.7158416435375248,1.1794999478072103,5.76897007256561,0.8594732650131109,1.1349123521015176,1.2444634044090568,1.323324608189143,1.5143597725281157,1.7781634239790394,3.109294682226454,1.0155351629529357,Relax
107.53836809790097,559.1037735849056,39.50356927702152,,,,,,,50.848514516861044,51.081350761353164,0.0706551648251798,0.09094646990276337,554.0,19.273799999999998,0.03479025270758122,27.0,0.7768873811234424,541.0,573.0,16.037735849056602,32.075471698113205,452.0,690.0,5.3,132.8125,,,0.0427103742921735,0.019082334903520067,0.00852439620852208,0.07031710540421565,2.2382153184144586,0.6073966504544559,0.27137543267496395,-3.9589922460508062,36.11996951552143,41.6085345394445,0.8680904029744196,4721.496454817897,1.151953755707477,4.381049777889805,191.7244305287895,0.6132075471698113,0.625,0.8615384615384616,0.14814814814814814,51.7828461291359,51.535000758629856,52.03931000174256,51.92307692307693,0.5983682339724111,0.4016317660275891,27.94637722496424,22.895771359660415,0.44288015270057773,0.5571198472994224,27.690164081435018,31.056802148053695,0.5097158148376342,0.4902841851623659,27.818565624927484,27.283156945423293,0.7836990584737655,0.6792746581185849,1.095868652008217,0.8374760622704751,1.0173100687256036,0.6076493916248213,-0.8803948618566495,0.0013970689549104498,0.07043945045315374,0.7516427788028857,1.2676886187120437,5.784155360060297,0.8587214920000569,0.8407803227480666,1.3271864251921774,1.3498321492628713,1.5201910076171188,1.7803965619643363,3.1006407171866197,1.0155351629529357,Relax
106.8438822985485,562.0571428571428,39.26312337477569,,,,,,,47.907262176321126,48.13832814964152,0.06985610604499538,0.08523557219251929,556.0,22.238999999999997,0.03999820143884891,32.0,0.8195651680170959,541.0,582.4,15.238095238095239,29.523809523809526,452.0,690.0,6.176470588235294,140.625,,,0.03913354862237648,0.02751967499486579,0.020717247842947373,0.08737047146018964,1.4220207407855445,0.44790359910336164,0.31497683982860425,-3.5928540757663163,34.03893826959479,43.824829849661185,0.7767044021930857,4686.47297076655,1.2874910933637325,4.37781622653782,225.69631239847925,0.580952380952381,0.5922330097087378,0.8524590163934426,0.16,49.46717084908903,49.378078276460286,49.559483321961544,49.51456310679612,0.5364299449916421,0.4635700550083581,24.931070021705537,23.17619300769859,0.4665908118604214,0.5334091881395788,29.935624998177268,32.00740644476304,0.49287014058088857,0.5071298594191116,27.547231226192952,27.942888090266866,0.8780263694909525,1.2040714831512247,1.318971206511999,1.046777291287019,-0.008078563082731804,-0.11458720105205566,-0.726061258848694,0.0017400021724965353,0.11093977975782644,0.7308931784965482,1.339377441332139,5.824873346377989,0.8616078501165091,1.020412283896483,1.2770519513133212,1.3069002084469183,1.559624909967719,1.7537367696203432,2.754506944269368,0.7033971494697843,Relax
105.95333099640169,566.4857142857143,36.352471687661044,,,,,,,43.1658251576228,43.355534708306465,0.06417191249650157,0.07619931812764402,560.0,17.7912,0.03177,28.0,0.8421586186506952,546.8,585.2,12.380952380952381,23.809523809523807,464.0,692.0,5.0,117.1875,,,0.01638703809811247,0.02481766277648806,0.017535526938669593,0.058740227813270124,0.6602973956772973,0.27897471133760976,0.42249857891905296,-3.696199670582124,30.656992594212223,39.66972497901114,0.7728057759521281,3820.6619325476377,1.293986187885254,4.28910872123708,205.32830480018828,0.580952380952381,0.5922330097087378,0.8360655737704918,0.2,47.31355252606255,47.51699521679398,47.08937271735192,50.48543689320388,0.5035142582902439,0.4964857417097564,21.763512709047987,21.61108129991316,0.4351287406631383,0.5648712593368617,26.16785198061269,29.81493925251442,0.46071342483906547,0.5392865751609348,24.066646657938747,26.038139695287196,0.6301708156434368,1.3976199491278092,1.2373901807264494,0.6204252092408556,1.0017289978648258,1.5942070586629014,-0.9414397289267468,0.0031756694953714915,0.22554615043569576,0.7821850987282599,1.2527629684953678,5.7224458463573855,0.8263530819944328,0.9805506514181895,1.2606972588364915,1.2582524907535713,1.5408281119461944,1.7528957240477008,2.0622550091901934,0.8312875402824722,Relax
106.95528912969132,561.0094339622641,30.670753956301404,,,,,,,42.86768124401057,43.05946565411121,0.05467065631977314,0.07641169408016414,559.0,17.7912,0.031826833631484794,24.75,0.7154749934272848,546.0,576.0,12.264150943396226,20.754716981132077,464.0,677.0,5.0476190476190474,125.0,,,0.029935339597081025,0.05696996086868508,0.02865421979615448,0.1155595202619206,0.5254583141821273,0.259046935546559,0.49299236220053727,-2.865231152365879,30.447640158291268,29.802552315902822,1.021645389144883,2850.735802121209,0.9788132072293695,4.161927079990439,116.68452726379967,0.5754716981132075,0.5865384615384616,0.819672131147541,0.16,47.66584766584766,47.489172906991136,47.837918102550034,49.03846153846153,0.4952734358804262,0.5047265641195737,21.434605377573615,21.63819628484635,0.4721384302524656,0.5278615697475344,20.478028114150078,21.65277093349032,0.4839573164894645,0.5160426835105354,20.961774055840653,21.645484835869834,0.5623460772392651,1.3719462052734304,1.2975044005081866,0.6461067236883272,0.9096853633094995,1.1415692841900247,-0.97479826418561,0.003781150480362859,0.246005217290013,0.8426395726511822,1.4489453260815577,5.655762525395799,0.9128378239820086,1.0698752997688918,1.1700630976585409,1.3612251849998813,1.569116677611389,1.8025651063074217,2.8219874809284273,1.0155351629529357,Relax
106.88468942713531,562.0471698113207,31.19565967229956,,,,,,,44.4676447382974,44.680588011517315,0.0555036326982519,0.07911728254627666,559.0,17.049899999999997,0.030500715563506257,24.5,0.7015361361253422,548.0,576.0,14.150943396226415,21.69811320754717,464.0,677.0,4.818181818181818,125.0,,,0.04506884279752971,0.02494408861509194,0.019867335140764705,0.08988026655338635,1.806794527271751,0.5014320108937381,0.2775257525552158,-3.6911184141116116,31.593946770346253,30.001681882036472,1.0530725208863425,2977.8262678735186,0.94960221652952,4.180869466539535,113.9586544591815,0.6037735849056604,0.6116504854368933,0.8571428571428571,0.2,49.649259547934534,49.623046423125885,49.671810099881824,49.51456310679612,0.5390224636843525,0.46097753631564753,23.195863358001507,21.450972723147796,0.4597116554880551,0.5402883445119449,20.341752188200697,22.052528963018002,0.5014161917950467,0.4985838082049533,21.81553298694814,21.753830288411034,0.7112403687820529,1.5455609416975313,1.2189363976667353,0.8505800046268602,0.572209761346473,0.8806295782495304,-0.7383318464526538,0.002763364045642896,0.23438691896148883,0.7814454573664813,1.3044643428722584,5.696937317627876,0.8743020242100571,1.1211465714708182,1.1568669112458008,1.4204419865347424,1.5237156105879193,1.7989828147009428,2.436880718814873,1.0155351629529357,Relax
106.90134130578404,562.1981132075472,33.049867029866,,,,,,,47.09807396729267,47.323961436119504,0.0587868693498531,0.08377487021182056,558.0,17.7912,0.03188387096774194,24.5,0.7017243858595477,547.0,576.0,14.150943396226415,22.641509433962266,464.0,677.0,4.24,117.1875,,,0.04337381551549174,0.020757866592685942,0.014768274219150144,0.07889995632732782,2.089512201161104,0.5497318063846477,0.2630909769654237,-3.8748299912500404,33.46309404409076,30.54015701459622,1.0957079895855666,3210.6076206211565,0.9126519195851018,4.213557342151867,111.4901316952066,0.6415094339622641,0.6470588235294118,0.8787878787878788,0.20833333333333334,49.962462462462454,49.875838905589276,50.04625436826811,48.03921568627451,0.5574460959839255,0.44255390401607464,24.984322007087687,22.261233119483745,0.44079350961320746,0.5592064903867924,20.276307138392255,22.837963116394018,0.504436076768958,0.4955639232310419,22.75241720481873,22.551441853080853,0.5659832106576352,1.8782298174959038,1.243406871808284,0.9124431619971173,0.5576395351302086,0.7777808616479287,-0.6762104438595351,0.004958632337281869,0.3937250129006591,0.7512420301190508,1.1130010261202092,5.643621426548601,0.8451806647120098,0.8517316702622844,1.1277669195969895,1.395226478045436,1.4573564920637612,1.8068053276591631,2.3237057468206843,1.1424770583220525,Relax
106.9184387397822,561.1698113207547,29.799799199743166,,,,,,,39.54719904596219,39.71972088404232,0.05310299769976424,0.070472784259162,557.5,17.7912,0.031912466367713006,24.5,0.7535248998319581,546.0,576.0,13.20754716981132,20.754716981132077,468.0,677.0,4.24,117.1875,,,0.04250665512504136,0.02031303325545919,0.012366608543305303,0.07518629692380585,2.092580393606039,0.5653510927412452,0.2701693538124974,-3.896492566660321,28.08608398394325,30.49244336821998,0.9210834187599181,2690.501811247454,1.0856779957523606,4.136803398711711,132.4198992064057,0.5754716981132075,0.5825242718446603,0.8166666666666667,0.14814814814814814,47.35701906412478,47.41684125895561,47.29935302173386,48.54368932038835,0.4498836911909779,0.5501163088090221,18.846418757949746,20.840396238666273,0.5225279926313591,0.47747200736864087,22.041797416121337,21.070079953117624,0.48916940642912693,0.510830593570873,20.506442077227018,20.955552779816912,0.7576307034806716,2.3516026109555757,1.2663072155532218,1.3603005233971257,-0.39479631998536746,-0.2168744145768009,-0.4600301056794158,0.0023243739628239844,0.4024631145333575,0.7067444625906778,1.0356984632575403,5.626090383624792,0.8643186990824736,1.1159988378134438,1.1549918478067427,1.4704056441393587,1.4780213807262186,1.8029283375785192,2.308776400790127,1.0790061106374942,Relax
107.50873647978563,558.3490566037735,33.81773061373918,,,,,,,43.51617105004923,43.7098009981366,0.06056736411348067,0.07793721603962522,556.0,19.273799999999998,0.03466510791366906,26.5,0.7771301977567009,543.0,576.0,15.09433962264151,25.471698113207548,468.0,677.0,4.24,109.375,,,0.04504945838251248,0.02103950375317713,0.02045683397772444,0.08654579611341405,2.141184455251691,0.5205274017408928,0.2431025503030313,-3.8613534772663907,30.90749669009691,35.18744546967453,0.878367164127723,3416.657482510553,1.1384760733776593,4.240571553228921,160.24025900202224,0.5849056603773585,0.5922330097087378,0.8360655737704918,0.14814814814814814,47.722095671981776,47.93279816272316,47.5001136004491,45.63106796116505,0.4295190963316133,0.5704809036683867,20.26305372232542,23.352544746854594,0.5483579946800808,0.45164200531991927,26.056724967128137,23.64748195197027,0.49658161392243627,0.5034183860775636,23.34035413362879,23.500476046482607,0.528691884888884,2.1285173710937486,1.2146506596226598,1.0140068625258116,0.2753064973710746,0.45472214227475827,-0.59426458051115,0.004362519722204258,0.4455169167826013,0.6698263611083966,0.9873866535578852,5.765287435531994,0.8548969264115561,0.9060074887055901,1.2510697937587671,1.4723780977226448,1.4418786496776537,1.8164831172642897,2.247197590289537,1.0790061106374942,Relax
107.93416303011249,556.2358490566038,32.15425673865117,,,,,,,41.93600566850128,42.1352218823744,0.05780687597389841,0.07539248996558973,554.0,19.273799999999998,0.03479025270758122,27.75,0.7667458124845372,539.0,575.0,14.150943396226415,24.528301886792452,468.0,677.0,4.24,93.75,,,0.04162136073863042,0.020161932551191433,0.022500854656564866,0.08428414794638672,2.0643537335993556,0.4938219315583024,0.2392138147260677,-3.903958979699132,29.794101119826745,34.51561997093521,0.8632063148486295,3230.694101136977,1.158471599197416,4.216265948673491,159.94146186007836,0.5566037735849056,0.5631067961165048,0.8103448275862069,0.15384615384615385,50.850891410048625,50.87332121223799,50.82460669649531,44.66019417475729,0.46354843601074436,0.5364515639892558,20.286055271085566,21.823042691331846,0.5706356783345159,0.42936432166548444,26.07324824298548,22.61666969378287,0.524909698649173,0.4750903013508272,23.359562414586062,22.223399158829967,0.7426470233630208,2.260621397016049,1.2989685858598752,1.2654833327482389,-0.21629080160779068,0.06043949054647846,-0.5148124109396803,0.0021069695196790925,0.37694245215542704,0.7008602341623549,1.0876832181359195,5.7098694828817385,0.8324295223668314,1.2500784627164057,1.1818330400652477,1.6296943880189556,1.439899066448391,1.7834433221580084,2.5675460636909815,1.0790061106374942,Relax
107.66805734129612,557.3396226415094,32.59093849887107,,,,,,,41.09895144068531,41.29307164123015,0.05847590441247729,0.07374130560805449,554.0,22.9803,0.04148068592057762,29.0,0.7929871044497778,537.0,577.0,14.150943396226415,23.58490566037736,473.0,677.0,4.818181818181818,101.5625,,,0.030830147507404825,0.017336518620367194,0.011377944012533659,0.05954461014030568,1.7783355575891182,0.5177655447698688,0.2911517697322553,-4.054940099392179,29.198610973535757,35.06075966278922,0.8328002945276997,3216.12845301111,1.2007680671716419,4.2143034962197445,168.3993624554275,0.5660377358490566,0.5686274509803921,0.8275862068965517,0.14814814814814814,48.937040065412916,49.087031891699006,48.78604067887744,45.09803921568628,0.4031563278792048,0.5968436721207953,18.54088517511834,22.55921694631197,0.578794845643395,0.421205154356605,26.673723760406375,22.754545235741368,0.5068600368497705,0.4931399631502293,22.97011060403705,22.657091584271903,0.504996788517998,2.9292395117499486,1.2823671078178118,1.3102420553880163,-0.675450704436086,-0.21519206615256292,-0.49048389609030235,0.004964387806211382,0.6951596199082705,0.6658117150394443,1.030404038641576,5.805763794545705,0.8468732523644564,1.0566057014234589,1.1147500000687467,1.5375673560996346,1.4711069849704708,1.8240176427876176,2.407442439866999,1.0155351629529357,Relax
108.46042674270677,553.5981308411215,32.61463377221836,,,,,,,40.43571651165985,40.62660709379112,0.05891391598931991,0.07304164204857945,551.0,20.7564,0.03767041742286751,30.0,0.8065798404441223,534.2,574.8,14.018691588785046,25.233644859813083,468.0,643.0,4.6521739130434785,93.75,,,0.026389726727363595,0.005164681924120413,0.0025593745932291157,0.034113783244713126,5.1096518846817425,0.7735795979606985,0.15139575364807487,-5.265911761245775,28.727349372621198,35.00561179500877,0.8206498301143034,3159.243503536446,1.2185465265504485,4.206553211070039,170.62386665032537,0.5794392523364486,0.5825242718446603,0.8333333333333334,0.19230769230769232,50.66612838110617,50.75289729111785,50.588642085861224,47.57281553398058,0.5016011308888442,0.49839886911115594,20.34640485383574,20.281354326901674,0.523528411685271,0.47647158831472913,25.32840255899444,24.163296152478473,0.5147037310097006,0.48529626899029954,22.97285535873443,22.30692957676733,0.7311182987755503,2.4302007967655097,1.2287498474096996,1.4702531782782455,-0.6697314050988208,-0.6129818785043519,-0.4006241248912533,0.002647247135638122,0.44908895568834295,0.6430361049028521,1.0364805075611034,5.828861935076432,0.874722547885799,1.3031832121775626,1.1727134119643237,1.567247574547054,1.4906704187920676,1.8153874667300465,2.316176107791945,0.9450654653833384,Relax
108.31425167489392,554.5794392523364,33.41563225389995,,,,,,,42.28776084141997,42.47562484766364,0.06025400490676264,0.07625194489437034,551.0,22.238999999999997,0.0403611615245009,30.0,0.7901963024055425,534.0,574.8,15.887850467289718,27.102803738317753,473.0,650.0,4.6521739130434785,93.75,,,0.018558564363783763,0.017624469141255768,0.012577788812147755,0.048760822317187286,1.0529999068364246,0.38060400710761216,0.36144733217600944,-4.038467050382473,30.034802364918775,35.633083878141484,0.8428909063170679,3362.234974111377,1.1863931530230947,4.233598171353762,169.0993869364987,0.6074766355140186,0.6078431372549019,0.8548387096774194,0.25,52.12074894917844,52.0453889618634,52.199398512675245,46.07843137254902,0.4714832106776398,0.5285167893223602,20.629613481133195,21.841746834031035,0.5730159146866287,0.4269840853133714,26.973465797758678,23.284089192489567,0.5308277920321441,0.46917220796785586,24.011963783953714,22.57444035060132,0.5738868998653809,2.1747421989437328,1.3034116126154092,1.0147759236588687,0.398566375153635,0.7911148506314143,-0.6327217952991072,0.005666620428565133,0.4933262339156907,0.6375925560795435,1.047968555849355,5.858015350765815,0.8824512667891675,1.0763974207351639,1.1849195630857958,1.5530165141518104,1.5154958271171965,1.8390384925350172,3.014026828769398,1.0080698297422277,Relax
108.27158270580497,554.3177570093458,34.75591388006524,,,,,,,41.2762209400805,41.43441217308844,0.06270034369380532,0.07446310427213065,551.0,20.7564,0.03767041742286751,28.0,0.8420323636342436,533.0,570.8,14.018691588785046,26.168224299065418,473.0,712.0,5.095238095238095,101.5625,,,0.02166458476491378,0.08124745668353833,0.033468024269016135,0.13638006571746825,0.26664939001473104,0.1588544825150269,0.5957429060919697,-2.5102557606186706,29.29855382206927,36.51378710428726,0.8023970161843109,3360.879454761392,1.2462658507323008,4.233423045796101,182.0235437959307,0.6448598130841121,0.6435643564356436,0.8615384615384616,0.25,46.19454619454619,46.556207282909654,45.79315300255287,53.46534653465347,0.4235499321686647,0.5764500678313351,19.085147553604536,22.265069803019557,0.40863946038919624,0.5913605396108038,23.341406930258895,28.079091353056224,0.41448592159937164,0.5855140784006285,21.31975767482824,25.339383423305804,0.5616357240262945,2.4959314959546948,1.2410382872616181,1.0893292918737218,-0.02728704370136903,0.5954459488528253,-0.5607825157195941,0.0034994614685497512,0.5071362992553609,0.6271018761760718,0.9767888434747211,5.929374902386372,0.7980879526772785,1.0937460409015551,1.1418735629021097,1.5250216585277074,1.4357950246146816,1.824439522858375,1.998725593632045,0.9450654653833384,Relax
109.54825791782841,548.0370370370371,28.381554469927412,,,,,,,39.68756485019354,39.8740478654451,0.051787657679802666,0.0724176691866747,548.5,18.5325,0.033787602552415676,24.25,0.7151246133910634,529.4,562.6,12.037037037037036,24.074074074074073,473.0,650.0,4.695652173913044,93.75,,,0.020895061388596727,0.08189212050699492,0.03389482974388487,0.13668201163947652,0.2551535026719933,0.15287352840336607,0.5991433658658768,-2.5023525014572683,28.195209639013207,28.80727831775994,0.9787529848535053,2551.6871657252423,1.0217082506774422,4.113797539208713,117.73053574726687,0.6481481481481481,0.6470588235294118,0.8636363636363636,0.20833333333333334,49.66159052453468,49.68907348041439,49.635975850216205,50.0,0.45636540561067085,0.5436345943893294,19.047359050336947,20.788921214988978,0.5456612776692197,0.45433872233078026,21.27961647293145,19.41744594023186,0.5019717357590834,0.4980282642409166,20.19435520173284,20.11487574066573,0.5766975461930072,2.832481832001756,1.184259270229484,1.4063027238158865,-1.012487730656014,-0.7182834222872847,-0.42160816317417266,0.0028727161049635474,0.5777955711561789,0.7129755761081027,1.1430640512389434,5.811244881809441,0.9093948178461234,1.2801462942069601,1.157101903766446,1.5503236825016615,1.5490851676596076,1.850515343470342,3.158534449622395,1.000724074394588,Relax
109.95492884416457,546.2385321100918,30.25995369833451,,,,,,,41.76366487395118,41.957176242964,0.05539695923947701,0.0764568268602734,545.0,17.7912,0.03264440366972477,24.0,0.7245521624997101,528.6,559.4,14.678899082568808,26.605504587155966,450.0,650.0,5.190476190476191,109.375,,,0.010061053912320836,0.0883560499363964,0.03217360083715043,0.13059070468586764,0.11386943983534056,0.07704264967803355,0.6765875882891853,-2.426380605635047,29.668203840838956,30.327501636078217,0.9782607283926432,2826.6872616172113,1.0222223697388693,4.158247871734972,124.00580236276522,0.6697247706422018,0.6699029126213593,0.8985507246376812,0.2608695652173913,50.65942591155935,50.63955111288286,50.680137283703296,51.45631067961165,0.4764351768290741,0.523564823170926,20.478847076192874,21.467863398077245,0.5344704436129025,0.46552955638709737,22.17167386110051,20.69237138858956,0.5060896635472308,0.49391033645276916,21.34205120616457,21.08368317635494,0.4766436157935634,2.6311812302875026,1.177077744926531,1.2126625248189562,-0.6973091070702573,-0.44333657371750845,-0.4864757396857317,0.003965962807851956,0.5444217434473541,0.6595433959046542,1.0200004010984562,5.8025111049037035,0.8599652075980547,1.0791854526519877,0.9884109532231844,1.3898131148048207,1.5620034823516065,1.8728870571170453,2.801073054245095,0.9314015125839806,Relax
110.56836511188754,542.954128440367,27.03337625736451,,,,,,,39.42327287839563,39.6067496459216,0.04978942942199877,0.07260884633410705,542.0,16.3086,0.030089667896678964,21.0,0.6857212576122539,527.0,554.4,11.926605504587156,23.853211009174313,473.0,650.0,4.739130434782608,101.5625,,,0.02525980800138059,0.08504498553106163,0.03443578535758236,0.14474057889002456,0.29701701803635155,0.17451780416446488,0.5875683666822952,-2.464574920948831,28.006201255389055,26.252279895717386,1.0668102491150793,2309.7825926391383,0.9373738214734076,4.070541213983557,98.43279971295247,0.6513761467889908,0.6504854368932039,0.8656716417910447,0.2608695652173913,49.63377854373115,49.65798255335022,49.611199578703996,50.48543689320388,0.45635168867997594,0.543648311320024,18.919406048648696,20.649839898906414,0.5373144684321216,0.46268553156787856,19.24337723210484,17.85706113631234,0.49421834342094273,0.5057816565790573,19.08207919136088,19.304021864322262,0.5306750389781316,2.692213046678329,1.131710366088013,1.2222915995612718,-0.8219154757581855,-0.34101313527105803,-0.4663543590708697,0.002260395441554689,0.4926918553152989,0.729376538633832,1.111034808666667,5.603873632844958,0.8819089139919718,1.1756545349319123,1.0539159052577252,1.471102101182176,1.5089375265788605,1.8591403179824237,2.9877550145255842,0.9314015125839806,Relax
110.66187970301502,542.4128440366973,28.431597904956977,,,,,,,40.073890086522255,40.25101556566184,0.0524168964978149,0.07388079122221344,539.0,14.825999999999999,0.027506493506493503,21.0,0.7094793603408909,526.6,555.4,12.844036697247708,23.853211009174313,473.0,650.0,3.892857142857143,93.75,,,0.02711442733525533,0.08344232804632162,0.0321317801772585,0.14268853555883546,0.32494811650273236,0.19002526887715593,0.5847864912168466,-2.4835995678360607,28.461766056124763,27.308788811447076,1.042220006630041,2441.8228655918647,0.9594903126389245,4.094684266177448,104.81007325794286,0.6422018348623854,0.6442307692307692,0.8656716417910447,0.24,48.03475382705834,48.168176826388866,47.901163204683584,50.96153846153846,0.4420055466186959,0.5579944533813043,18.926937733363438,21.265785780445853,0.49548664592461855,0.5045133540753814,19.22287827947368,19.39718786321245,0.4676344901994428,0.5323655098005571,19.075481924581588,20.352942561956112,0.5063167782039003,2.781045168682108,1.2474848820501456,1.207755123509449,-0.5271492026662532,-0.02310143924007879,-0.5142859091208231,0.004068136986008769,0.607244468457606,0.7750192280500565,1.3862943611198906,5.615680573008288,0.8898073979011741,1.327766837582274,0.9920734425529725,1.2740331228457475,1.5602502792849815,1.8600392821076877,2.3879250017586284,0.9934949467562461,Relax
110.83810092841499,541.2636363636364,34.047909384344536,,,,,,,48.214638608484755,48.40398541031272,0.06290448331812591,0.08907791946343276,537.5,14.825999999999999,0.027583255813953485,19.75,0.7061736926169312,525.8,554.2,17.272727272727273,30.909090909090907,449.0,682.0,3.9285714285714284,109.375,,,0.030537808771681312,0.10036056669312453,0.025330942872762215,0.15622931833756806,0.30428095195055715,0.19546784877917478,0.6423926556235321,-2.2989859108963846,34.22678632008683,31.433425324944324,1.0888659433792538,3379.929994647027,0.9183866995569153,4.235877815194075,115.47215895977752,0.6545454545454545,0.6603773584905661,0.9,0.24,46.845681009382076,46.867348685486185,46.81099739081188,50.943396226415096,0.42035305678665436,0.5796469432133455,22.20610526659529,26.076365771553593,0.49372517813454436,0.5062748218654556,22.086878727165704,22.365822492149185,0.4538982228411628,0.546101777158837,22.14657222935003,24.292044660775037,0.43076825149941117,2.258155698201333,1.0705806846399089,0.9998891769664564,-0.2681374220072179,-0.014806229130720272,-0.5313049749978532,0.0036873469814595436,0.4228476484217734,0.694759328221461,1.1151415906193205,5.646723350338526,0.8872863625093538,0.8992569689461677,1.0336304424421483,1.197080091143993,1.5151334635429274,1.9708551600730815,2.3894417792739677,1.048028319362902,Relax
111.31627315698273,539.3853211009174,28.88095241096557,,,,,,,40.737415689228946,40.926992212826796,0.05354419425433721,0.07552562907363046,537.0,14.825999999999999,0.027608938547486032,20.0,0.7089539658403454,525.6,549.8,10.091743119266056,23.853211009174313,449.0,681.0,4.037037037037037,109.375,,,0.024044107616539225,0.09137411626560292,0.03130977536260366,0.1467279992447458,0.2631391536159835,0.16386857137221014,0.6227449207781312,-2.3927930324708333,28.93975372725885,28.886946775520745,1.0018280558394927,2626.3121627749656,0.9981752798508314,4.126316454911505,115.33694472676596,0.6513761467889908,0.6571428571428571,0.8840579710144928,0.2916666666666667,50.37720033528919,50.43545891064103,50.31709941723381,52.38095238095239,0.46896166936338785,0.5310383306366121,19.81833381342102,21.089262892424532,0.5076348260077701,0.4923651739922297,20.581515275626753,20.269605890863083,0.4882627698187422,0.5117372301812577,20.2035284811966,20.683495017969108,0.6442477230714629,2.8593699446226504,1.2672981252099098,1.4591531143306375,-1.0693437913492119,-0.7415678645523205,-0.4329030545762253,0.002687397088794202,0.5743739673033627,0.8235823057063456,1.3566938913435995,5.47057707309284,0.9225074183315489,1.0743259360426165,1.1340852593782649,1.3953678372523513,1.5000736677457556,1.8754968765896673,2.268680059805743,0.9934949467562461,Relax
111.59950610960118,537.8909090909091,32.09714196157894,,,,,,,44.28380116782614,44.48823085194231,0.05967221497724587,0.08232859194937932,535.0,14.825999999999999,0.027712149532710277,21.0,0.7248054845142501,521.8,548.2,13.636363636363635,27.27272727272727,431.0,681.0,4.074074074074074,109.375,,,0.04553528415874562,0.09726703581926578,0.055426457366764145,0.19822877734477556,0.46814713510295336,0.22971076535243398,0.4906807029843657,-2.3302951363055784,31.457929718400983,33.00479145396118,0.9531322069488627,3261.797559531985,1.0491723946682792,4.220427113414541,138.51086434111843,0.7090909090909091,0.7142857142857143,0.92,0.3181818181818182,49.79667282809611,49.80850655754938,49.78547282704924,52.38095238095239,0.4856915627704615,0.5143084372295385,21.923583614877348,22.56020751152265,0.5035208120126552,0.49647918798734453,23.41993610643973,23.255598287073813,0.4950337526972039,0.5049662473027962,22.684101544344202,22.91054140186034,0.4437938597335245,2.3356158158945295,1.1267243462523637,1.0707026341795922,-0.3449797900430376,-0.2083056412428751,-0.5239858420599518,0.00402325754747706,0.4620418082055798,0.759186154904643,1.095549499137564,5.578833068298884,0.8859817522088489,1.3198427981073446,1.1405460605235969,1.346791703206382,1.4594508422277224,1.9091833580376898,2.7577580346604886,1.1713257686997138,Relax
110.05348514063382,545.2592592592592,50.69136415057475,,,,,,,54.092426957991144,54.336622310094214,0.09296745225278619,0.0992049672507649,534.0,19.273799999999998,0.036093258426966285,22.5,0.9371249729641877,520.4,556.2,18.51851851851852,32.407407407407405,449.0,786.0,4.909090909090909,93.75,,,0.02994464108240038,0.0496986389383321,0.023870018533334873,0.10351329855406735,0.602524369320391,0.28928303416743706,0.4801183966944438,-3.001777731801183,38.421794102239865,60.0974660958421,0.6393246936728687,7254.102271481288,1.5641504385746166,4.567553784121409,376.0059118041383,0.6851851851851852,0.6893203883495145,0.9014084507042254,0.25,51.69212339023659,51.63375173452906,51.72200723766209,51.45631067961165,0.5163008933790297,0.4836991066209703,27.612890071725694,26.726867973971682,0.571593516563605,0.4284064834363951,45.43597042187713,39.33545503694089,0.5555463616667707,0.4444536383332294,37.59587149070295,33.62739578573779,0.7219232097025141,1.9752146244963826,1.1605796683224647,1.6083279093664942,-0.7105042274655542,-1.508099002297132,-0.27331666367233826,0.0033216204267526796,0.3758457510782373,0.6622239056311598,0.7762399391214824,5.735321447177776,0.7067986944943416,0.7715965560043827,0.9948771413352033,0.988551703838179,1.2341589230415542,1.8726230042133927,2.237054220061954,1.000724074394588,Relax
109.94350480894141,546.4537037037037,51.84761717490135,,,,,,,54.78061598640953,55.0330225803155,0.09488016427282556,0.10024749693363318,536.0,21.4977,0.04010764925373134,30.0,0.9464591852666311,518.8,561.2,15.74074074074074,29.629629629629626,449.0,799.0,5.4,117.1875,,,0.03172411474720242,0.013847604468620779,0.013107001712942191,0.058678720928765395,2.29094604912283,0.5406408702349658,0.23599022353318588,-4.2796430238629934,38.91422345573348,62.18778267375049,0.6257535127098075,7602.620516114371,1.5980733302950691,4.587933423232891,397.5225478444258,0.6574074074074074,0.6634615384615384,0.8840579710144928,0.2857142857142857,51.27408328154133,51.2244166052979,51.30170147634894,53.84615384615385,0.5593432534615599,0.4406567465384399,29.106505789003304,25.83456073367393,0.4166949036530396,0.5833050963469604,40.14340127077773,47.49555398446199,0.4568397835172553,0.5431602164827447,35.061954771746265,38.23121876551171,0.9744997797717191,0.92021285100473,1.2069620942815553,1.161514184521693,0.1828078914814455,-0.1548580909042343,-0.5493884754057067,0.000581301677055672,0.05318595439453428,0.5487032296615504,0.6644713805832793,5.845268697001176,0.6576039318625295,0.8493658812829225,0.9221356972634182,0.9240775267084305,1.2338880435866946,1.7713579441789984,2.1400026565302186,0.9381788197449261,Relax
110.18271164828094,544.8256880733945,50.151777789968655,,,,,,,48.60974601257867,48.8359372921326,0.09205105208477728,0.08922073073402947,535.0,17.7912,0.033254579439252335,25.0,1.0317226874008139,523.2,558.2,12.844036697247708,27.522935779816514,449.0,799.0,4.541666666666667,101.5625,,,0.03504103567539625,0.009682248936883776,0.012146610621702282,0.05686989523398231,3.6191008828444953,0.6161614247964653,0.17025262482105294,-4.6374610764871935,34.53222242486796,61.71059589928113,0.5595833571471026,6694.746585202473,1.7870438554467607,4.53270425236566,441.1181648710737,0.6422018348623854,0.6476190476190475,0.8823529411764706,0.2857142857142857,49.603460706560924,49.47215138298654,49.72706669664618,56.19047619047619,0.5557340689828132,0.444265931017187,25.743159875466564,23.017059906273257,0.41040463171083896,0.589595368289161,39.533554766666335,47.38455121403355,0.44506076352316826,0.5549392364768316,33.35874872400671,37.24970295508637,0.9566965953894576,1.9562936991205961,1.3581844372626362,1.4977079097860104,-0.38889384320931164,-0.373890657194738,-0.42867969028060887,0.001333246638447685,0.2588153384047818,0.5519442519862436,0.6374582746993565,5.760932490448295,0.6148446744513711,0.555704329291296,0.8370603859364042,0.8347806446932622,1.1535319576089385,1.6898469802418068,1.8897310178589748,0.8693080784117153,Relax
109.92565951610653,546.4954128440367,51.01245742067814,,,,,,,50.080120991452475,50.313179793377536,0.09334471291387855,0.09163868499980393,535.0,16.3086,0.030483364485981306,23.0,1.0186168965004057,524.0,556.4,14.678899082568808,27.522935779816514,449.0,799.0,4.541666666666667,109.375,,,0.02996069385882859,0.00930646604485535,0.00904836653031326,0.048315526433997204,3.2193416614237775,0.6201048828425216,0.1926185375951292,-4.67704584677331,35.57679061495523,61.94694102974087,0.5743106927245161,6923.672326594228,1.7412177984289723,4.547306615999436,431.4524651168591,0.6422018348623854,0.6509433962264152,0.8840579710144928,0.3181818181818182,50.37878787878789,50.29170688119715,50.4600829459494,52.83018867924528,0.5546395634741901,0.44536043652580987,26.495723513163046,23.742485284330186,0.42241841427773696,0.5775815857222631,40.26162380015193,47.07892471071566,0.4552130721029009,0.544786927897099,34.080945669911664,37.283580564330656,1.0576280137621803,1.4478707268558235,1.367461642041914,1.49580626259847,-0.36750177307352416,-0.7203790667205938,-0.41135629847613014,0.0005634433401329816,0.12995135209429923,0.5018889554375994,0.5632551633337011,5.772355540887163,0.5950884342085685,0.5687605618970231,0.8715177079854757,0.8425165036728989,1.102651697127951,1.7080598827042144,2.499705918730967,0.8693080784117153,Relax
109.94650148106611,546.4907407407408,52.613827714165545,,,,,,,54.336524952606545,54.57960880915634,0.09627578985665913,0.09942807974926732,537.0,17.049899999999997,0.03175027932960894,22.75,0.968295778209159,524.0,558.8000000000001,16.666666666666664,28.703703703703702,444.0,799.0,4.909090909090909,125.0,,,0.0253565851900864,0.008209047505526841,0.008817253722180325,0.042382886417793565,3.0888583813182673,0.5982741463177215,0.19368778767461306,-4.802518378627412,38.59361150346347,63.13652835870778,0.6112723094972111,7655.014037944306,1.6359321115372105,4.590916101416209,413.14829661195915,0.5925925925925926,0.6,0.8412698412698413,0.2916666666666667,51.98223913732952,51.835612946156715,52.095954801179644,54.285714285714285,0.5926853279225611,0.4073146720774391,29.71856988864732,24.63660415217453,0.41604967921242336,0.5839503207875766,40.72426864926393,48.24681498474788,0.46411332016092915,0.5358866798390707,35.64869880685574,38.306118442903056,0.9412828976225721,1.4199494970342048,1.274025726442905,1.5430957039111073,-0.4698403250150367,-1.253516440557902,-0.3105073609799513,0.0012448099149854658,0.16221520895520702,0.5403770714783764,0.6333189837225575,5.774207844772404,0.608523291437854,0.7911760950982637,1.018523881109992,1.0202053467052115,1.1318777378358218,1.7439406973172344,2.109494859229475,0.9381788197449261,Relax
109.1537645745578,550.3457943925233,55.894965987216096,,,,,,,63.047451432040226,63.34583127264684,0.10156335626933148,0.11455970423401268,538.0,20.7564,0.038580669144981414,36.5,0.886553932278549,524.2,573.6000000000001,18.69158878504673,31.775700934579437,437.0,799.0,5.35,117.1875,,,0.03429508453203109,0.010132484554280011,0.01225341463546082,0.05668098372177192,3.3846668453636752,0.6050545047060977,0.17876338568887593,-4.592008723837015,44.79226685278744,65.51468358009659,0.6836981330761608,9219.164459130941,1.4626338022903518,4.671661672313469,383.29596300242383,0.616822429906542,0.625,0.8461538461538461,0.30434782608695654,50.54914881933003,50.42264357993827,50.65734512792146,54.807692307692314,0.5895150801712601,0.41048491982874014,34.39206719164007,28.698514977342672,0.4106927229306648,0.5893072770693351,41.985289455655895,50.29323248633924,0.4676566503354675,0.5323433496645326,38.376938494293,40.94517062993956,0.8853608667547914,2.1668626407926066,1.4125094672325984,1.8243888780362787,-0.4754971355592197,-1.1866905173295874,-0.3099190031477857,0.005338173375863504,0.5085934280049866,0.5388806623431015,0.6230015711931858,5.950539972540488,0.6278302495289706,0.8030360382191409,1.0053950551724464,0.9505442540634544,1.162922276095885,1.7413357457877587,2.30865733520558,0.7560523723066708,Relax
108.59648931923998,553.2523364485982,56.8883536607042,,,,,,,65.38406129706316,65.69282707571931,0.10282532926273437,0.11818126556278519,539.0,31.1346,0.057763636363636364,39.0,0.8700645468050704,524.2,582.8,22.429906542056074,37.38317757009346,437.0,799.0,5.944444444444445,117.1875,,,0.03205988319331282,0.012124560380464439,0.00989580332137147,0.05408024689514873,2.644209949662913,0.5928205774554027,0.22419572906114216,-4.412522100097185,46.45184350055636,65.98748281749651,0.7039493176157297,9629.736171826418,1.4205568142135452,4.690584498780041,374.9558734767756,0.6074766355140186,0.6153846153846154,0.84375,0.2916666666666667,49.354197714853434,49.234163635997696,49.476676456508756,55.769230769230774,0.5757484144602987,0.4242515855397014,35.247762509197116,30.2570731596841,0.4136426593599071,0.5863573406400931,42.43988737513701,50.52923755782471,0.467357981437732,0.5326420185622678,39.009926956603465,41.64549390009415,0.9036707151709602,1.4630821853738971,0.8705249803751509,1.5185829637483128,-0.5366530954242812,-1.3033954072050895,-0.05705975381858134,0.0015401124012044299,0.1705554589415146,0.552484962502894,0.70290335550531,6.036942893081018,0.6912300452761225,0.8267231964606118,1.0860015937236354,1.1236484590785707,1.2997747266081674,1.751805654512191,2.8243111607083367,0.81905673666556,Relax
108.7949028435064,552.4953271028037,57.512652230941995,,,,,,,66.26262784599328,66.57731928327387,0.10409617857318189,0.11993337245667543,542.0,28.1694,0.0519730627306273,38.5,0.8679500662818888,524.0,581.4000000000001,23.364485981308412,39.25233644859813,437.0,799.0,6.294117647058823,132.8125,,,0.026302589746133916,0.009806878336606808,0.008410625719321248,0.04452009380206197,2.6820552721606052,0.5908026578532434,0.2202798219655278,-4.6246712684196,47.077273938424845,66.73937858631925,0.7053897554280661,9870.595116779605,1.417655972892815,4.701313447853506,378.4539147202013,0.6355140186915887,0.6442307692307692,0.8805970149253731,0.34782608695652173,49.85486211901306,49.730276236587436,49.97612674707752,56.730769230769226,0.5743503689156844,0.42564963108431564,35.67799108160446,30.714119600879705,0.4170862459438369,0.5829137540561632,43.101768788118136,50.954707156686275,0.4693379313292729,0.5306620686707271,39.56438752390489,42.06981889835514,0.8495710621755539,1.509979149667724,0.8955168164587342,1.4893754481044668,-0.1171007593818203,-0.8867303815719223,-0.10671070737869902,0.003562476748048163,0.24696393754088355,0.5798078560142885,0.8279361713380576,6.159554252695634,0.7126903021722311,0.8579765509348333,1.074439639877071,1.2189263316344634,1.3923945041845387,1.742401118497196,2.4581677127778456,0.81905673666556,Relax
108.35454221195452,554.2710280373832,56.37267672382287,,,,,,,64.44999524276517,64.75139339805837,0.10170597753130402,0.11627884551529959,547.0,28.1694,0.05149798903107861,37.0,0.8746730936361238,524.2,581.4000000000001,22.429906542056074,38.31775700934579,437.0,799.0,6.6875,132.8125,,,0.03408876146610352,0.009012066964412795,0.011383057330328648,0.05448388576084496,3.782568593943494,0.6256668552557889,0.16540793371403312,-4.709190825856879,45.78614936304491,65.27484397579735,0.7014363662059695,9389.226931518104,1.4256460716585664,4.679599945763886,372.23529956888535,0.616822429906542,0.6213592233009708,0.828125,0.36363636363636365,48.94963300430271,48.71022978459642,49.18336175541456,56.310679611650485,0.5751766397230998,0.42482336027690015,34.72696221614993,29.84491661270052,0.40933672067847476,0.5906632793215252,41.76247180145267,50.16673404854616,0.4640302564573401,0.5359697435426599,38.40615807217011,41.276023625808534,0.8172221715651093,2.1026484438172037,1.3748138831081373,1.701538419482223,-0.03941010835317016,-0.6061373203025924,-0.3446128560697759,0.008203729159620735,0.5668138376171545,0.5567666905891961,0.7636982915519106,6.126752617141175,0.6949719895911625,0.7820313155180031,0.8223466987307334,0.8822480034394115,1.3732116341680916,1.7542241169455524,2.5040561710586218,0.9450654653833384,Relax
108.37747850466349,554.6728971962617,55.097816225761825,,,,,,,61.75591026638818,62.04233548660564,0.09933388940449056,0.11133752988211516,547.0,26.686799999999998,0.04878756855575868,37.0,0.8921869338188648,525.0,581.4000000000001,20.5607476635514,35.51401869158878,437.0,799.0,5.944444444444445,132.8125,,,0.0300115050514832,0.00941903963061,0.009173482774731153,0.04860402745682435,3.186259558134971,0.6174695106931797,0.19379134041879692,-4.665022145632525,43.870556143229614,64.43128352358003,0.6808890610905528,8880.139649729497,1.4686680358740674,4.655389905541071,378.51266648568577,0.5887850467289719,0.5922330097087378,0.819672131147541,0.2916666666666667,51.330076004343084,51.17573515503373,51.457083074863206,55.33980582524271,0.609409244499854,0.3905907555001458,34.25124259129323,27.420968688387426,0.4049501336420276,0.5950498663579722,41.001293337726004,49.701954097698234,0.4697240785674825,0.5302759214325173,37.7773323198838,40.13847135192885,0.9890700025340381,1.1581665491844673,1.3246762859217152,1.3557159290437455,0.09841452929765637,-0.4265406699447878,-0.47319932686375105,0.0011724684713624426,0.11042229627335436,0.5115749663733666,0.6453565167235968,6.051986262000987,0.6712243485311367,0.8266952265228228,0.6744258743206731,0.6266061116956079,1.3044134336634663,1.7376893426875655,2.258528757209516,0.7560523723066708,Relax
107.82735625472708,557.8396226415094,54.99093203038598,,,,,,,65.30157148258562,65.59927605023563,0.0985783902727996,0.11706155108410267,551.5,24.462899999999998,0.04435702629193109,32.25,0.8421073303733703,530.0,583.0,22.641509433962266,35.84905660377358,437.0,799.0,4.818181818181818,132.8125,,,0.022169612207510125,0.011087814042129586,0.004965697818975176,0.03822312406861489,1.9994574334737047,0.5800052389154045,0.2900813136630509,-4.501908607767435,46.38569293604989,62.021263191844824,0.7478998419069469,9038.045611507458,1.3370774319864331,4.663044638678153,331.70892526842624,0.5754716981132075,0.5825242718446603,0.8333333333333334,0.25925925925925924,51.90488366146765,51.768374384948565,52.01125620711965,55.33980582524271,0.62632132591552,0.3736786740844799,36.718523935474316,28.361929385384528,0.3991968060176275,0.6008031939823727,39.186288921042944,48.073608648702816,0.4806930655842258,0.5193069344157742,37.97245869971717,39.46815733582056,0.9229450540147035,1.2449281017557299,1.3199589435894248,1.3979296269508406,0.13009754622817127,-0.5535302144960017,-0.4373693281953767,0.0021706995906359806,0.1624195848785788,0.487893275433938,0.6507679575910837,5.960146133947594,0.6670162676675285,0.7242033079674061,0.8476647418511002,0.7677466730359308,1.1785082492682692,1.7734988007904247,2.1863794003824073,0.8251223198992602,Relax
107.44384771462914,559.4666666666667,47.79182957743901,,,,,,,59.68354044458154,59.971718969663115,0.08542390892058926,0.10667935017501466,552.0,19.273799999999998,0.03491630434782608,24.0,0.8007539301696681,535.8,582.2,20.0,31.428571428571427,437.0,799.0,4.2,125.0,,,0.02768074957343853,0.03459659303321478,0.021197242081932396,0.0834745846885857,0.8001004476615189,0.3316069157661061,0.41445660571157666,-3.364000069014804,42.4064091628627,51.15230036213,0.8290225241611575,6814.69685024378,1.2062398437386792,4.540416651101725,246.8077711827587,0.5904761904761905,0.5980392156862745,0.8360655737704918,0.28,49.51370468611848,49.413389159953475,49.60840292261329,57.84313725490197,0.6164211617417218,0.38357883825827815,33.29479973389821,26.264247173898784,0.2893720096057766,0.7106279903942235,27.51651500814112,43.12075178083412,0.42259102841889373,0.577408971581106,30.542611934096627,35.70161000400373,0.7771971291148682,1.391280887426379,0.7042209629137917,1.2744850681860052,0.30878227396939195,-0.2945127167465029,-0.0901157628010688,0.0027105011118488463,0.21064066403868648,0.5092511738331411,0.6852420010528325,5.858299774990626,0.6619138979009996,0.6538042915902211,0.9058379879981893,0.858071992470545,1.1482973944685784,1.8266409962167807,2.337162864891646,0.7673423448761283,Relax
108.0388686959192,557.9528301886793,89.43669025261568,,,,,,,127.98697850432545,128.60080565889632,0.16029435718136145,0.2293867359021101,542.5,43.7367,0.08062064516129032,63.25,0.6987952313413905,511.0,599.0,49.056603773584904,67.9245283018868,418.0,1178.0,8.833333333333334,125.0,,,0.05532372152665473,0.10624462563947651,0.03883715080228761,0.20040549796841886,0.5207201888440606,0.27605890101564473,0.5301482579895048,-2.242011054673626,90.9345017474589,88.34650551453655,1.0292937023128381,25238.755718240125,0.9715399965558763,5.109038050152642,343.32865465326614,0.6320754716981132,0.6442307692307692,0.8805970149253731,0.25925925925925924,50.0472925041381,50.03194626025329,50.08987763588715,48.07692307692308,0.5078268807014076,0.4921731192985924,64.80173163640708,63.795157460301134,0.5156281221406965,0.4843718778593033,63.439196504593575,61.486367460450914,0.5116149100131969,0.48838508998680336,64.12408313662411,62.65139862312019,0.4926422786332243,2.8217431101804236,1.0769551030769535,1.378849799776149,-0.6257566733091622,-0.47075611786385974,-0.3930112753319021,0.007241653186236373,0.7203741662639958,0.8681326319168345,1.4343035803062512,6.310329298841593,1.1771753941185104,1.2943685223965915,1.1524829080141519,1.2907340113291732,1.3978526491016725,1.9933705340399226,2.397943429012263,1.1424770583220525,Stress
107.7911597752918,559.1320754716982,90.89586668497802,,,,,,,130.39409130638953,131.01948587006316,0.16256600304730492,0.23320803263948992,544.0,48.1845,0.08857444852941176,69.0,0.6970857787673694,511.0,599.0,50.943396226415096,67.9245283018868,418.0,1178.0,10.6,125.0,,,0.056449820973323316,0.13155420463789322,0.04945246728359124,0.23745649289480777,0.4290993292742189,0.2377270054196006,0.5540139291797389,-2.028336309726928,92.6447669262967,88.87866621238365,1.0423735062012924,25868.324150045555,0.959349018418826,5.119738404315657,341.0626447568989,0.6320754716981132,0.6442307692307692,0.8805970149253731,0.3076923076923077,49.99429028206007,49.95741083970878,50.05644916647868,48.07692307692308,0.5121552701964686,0.4878447298035316,66.30125013324236,64.70855519469288,0.5130812837460991,0.4869187162539009,63.66351524285258,62.01914329153044,0.5125990730594959,0.48740092694050424,64.99576502476025,63.37811629419101,0.5626813421686138,1.8600967942912994,1.0480614563070563,1.0487607865662814,0.3065462146789608,0.32799139449333725,-0.4996240355548317,0.0031880226616847335,0.32752832471635845,0.8342309287781657,1.2863962078539044,6.291461374313291,1.1800516128526377,1.0463852078377296,1.2328478372260607,1.2679419776509901,1.431770302972982,1.9880895804453742,2.1590063478046386,1.205948006006611,Stress
107.9455243952427,558.3962264150944,89.68502335505,,,,,,,128.05724166503487,128.67018988704322,0.16061180056825985,0.22933042095782558,548.5,45.2193,0.08244175022789425,60.5,0.7003510476169961,512.0,597.0,46.22641509433962,62.264150943396224,400.0,1178.0,9.636363636363637,156.25,,,0.05055620823335999,0.11245021332263691,0.04428571710205862,0.2072921386580555,0.44958748178010544,0.24388869042813235,0.5424721557247874,-2.185244703534264,90.983563805689,87.3157279950832,1.0420065879862142,24957.742294858654,0.9596868307067077,5.1041754059869096,335.1830170818013,0.6320754716981132,0.6442307692307692,0.8805970149253731,0.391304347826087,50.35979997560679,50.415073531963884,50.34546782639842,51.92307692307693,0.5259205312397821,0.4740794687602178,65.98226014502802,62.64590661315881,0.5069820606993274,0.4930179393006724,62.17113206515015,61.30894464145516,0.5168408098223136,0.4831591901776861,64.10502443688986,61.981030599827996,0.4664186853561418,2.2926477235507843,1.02170311361162,1.0287978040193897,0.05277246530526902,0.3079276743880375,-0.4969054598598419,0.0038815463406130474,0.46225186589691536,0.8048157365024085,1.1082741995798464,6.2231112564091715,1.082918529927099,0.8629722163534865,1.0632650558699581,1.1792661696691515,1.3054240836681463,1.964182331844367,2.024412143672546,1.2694189536911695,Stress
106.80510563416627,564.1619047619048,86.01890711321774,,,,,,,125.2203442551753,125.82332291152892,0.15247202334500162,0.2219581705149384,553.0,32.6172,0.05898227848101265,46.0,0.6869403500275284,524.6,595.0,43.80952380952381,57.14285714285714,418.0,1178.0,8.076923076923077,164.0625,,,0.05825885023540024,0.1313470387207013,0.03987831361077218,0.2294842025668737,0.4435490194741497,0.25386867411242875,0.572357649247885,-2.029912308055614,88.97052486216678,83.4927069480775,1.0656083401092247,23336.975324242412,0.9384310936394326,5.075014676961871,313.40860916880405,0.6190476190476191,0.6310679611650486,0.8461538461538461,0.4090909090909091,49.3717277486911,49.31400271860096,49.48457198507532,51.45631067961165,0.5122674820050357,0.4877325179949642,63.680482751743845,62.136789284000436,0.4955294962437437,0.5044705037562562,58.77373589887162,59.30160269341156,0.5044298156666586,0.4955701843333412,61.276243010670356,60.73574180221852,0.4606283577682309,1.8918298105042677,1.0524662845193231,0.8600071966453533,0.6466241094059049,0.8336098564662289,-0.601731713289088,0.004805684892506642,0.39079325499703516,0.7445949933895002,0.8082685164814684,6.133106946155135,0.9455813548674303,0.7477669005311063,0.9534456975632758,0.9637705842854256,1.1075657368446437,1.9866574844038831,2.3217922274962013,1.0870683219078485,Stress
107.46130795383046,561.0188679245283,83.56690859448811,,,,,,,120.80653561632768,121.38359261768683,0.1489556116065067,0.21533417594892604,551.0,30.3933,0.05516025408348457,40.25,0.6917416195088172,523.0,590.0,45.28301886792453,56.60377358490566,418.0,1178.0,7.571428571428571,156.25,,,0.062407939905227625,0.14645465761151324,0.04672572351749642,0.2555883210342373,0.4261246512949517,0.24417367606115217,0.5730099756471069,-1.9210394027896454,85.8311614647517,81.42727378311837,1.0540836930555122,21956.58315079149,0.9486912724180963,5.0485348667683825,308.997375899373,0.6037735849056604,0.6153846153846154,0.828125,0.3333333333333333,50.522003435971975,50.490452189895805,50.57855922465784,51.92307692307693,0.5413226241571188,0.458677375842881,63.15118459209308,58.130903339591434,0.455001590388807,0.5449984096111931,54.92579504733699,60.112876775020894,0.5004341863831199,0.4995658136168802,59.181564177396844,59.130194812996216,0.5628087112819188,1.6522011371351415,1.038582510566517,0.8381124421582372,0.5500527908832158,0.7750754233106323,-0.6213351473391961,0.002868443921721411,0.2608929464866615,0.7809408263769959,0.8103660413071472,6.109903709239361,0.9666414481679415,0.6663137744611944,1.1324557882776867,0.9961810557596514,1.0978346782554231,1.99262673858166,2.0244486424665022,1.205948006006611,Stress
107.87310900431454,559.0566037735849,84.28939154723692,,,,,,,123.09566546854059,123.67869574110077,0.15077076449556384,0.22018461929911073,548.5,33.3585,0.06081768459434822,43.5,0.684747031720452,521.0,599.0,49.056603773584904,59.43396226415094,418.0,1178.0,8.833333333333334,164.0625,,,0.045360108099050146,0.11021770704097504,0.0439522994685969,0.19953011460862208,0.411550097682461,0.22733464664230715,0.5523863265310445,-2.205297714218538,87.45404444684013,80.95597433308909,1.080266714930946,22242.247837301864,0.925697317318458,5.0541487855878815,299.76291304417003,0.6509433962264151,0.6634615384615384,0.8695652173913043,0.42857142857142855,50.87916199027309,50.735558628134456,51.016450221767215,51.92307692307693,0.5430891058989313,0.4569108941010686,64.4527256689261,59.11824038445196,0.4514354417329218,0.5485645582670783,54.39346559370494,59.960159113583224,0.5007961675115975,0.4992038324884025,59.6355722092419,59.54068788265746,0.6740031729038588,1.0384030713741919,1.0651358405474254,0.7449783823553672,1.0182771793585903,1.2332399174223003,-0.8083171333154584,0.003456538025224058,0.13518865178645664,0.7680438913267964,0.8724881092157623,6.095660548821182,1.0208916259993754,0.6754251143083988,1.1169412668633554,1.06167094007615,1.1436381050066056,1.986324274102741,2.18921349347987,1.1424770583220525,Stress
107.10904837893915,562.9047619047619,99.83578091137039,,,,,,,145.95415507828267,146.66091316481044,0.1773582098924607,0.25928747624092174,548.0,34.099799999999995,0.06222591240875911,46.0,0.68402150564212,518.8,599.0,51.42857142857142,61.904761904761905,418.0,1178.0,9.545454545454545,164.0625,,,0.025110532550733613,0.0826177237329259,0.04129838209987594,0.14902663838353547,0.30393638817630886,0.16849694003101015,0.5543822542671911,-2.4935310484348627,103.70492623384887,96.79956174022342,1.0713367330335344,31537.16502522492,0.9334133416376554,5.205792760614842,361.41600957200995,0.6285714285714286,0.6407766990291263,0.8484848484848485,0.36363636363636365,49.93340732519423,49.795807501537155,50.09502343533321,50.48543689320388,0.5295381751608687,0.47046182483913124,75.46544891924069,71.13145904604669,0.46403145924875977,0.5359685407512401,65.93972072339984,70.86683557221501,0.49903820264548493,0.5009617973545151,70.86282787774734,70.99927059498138,0.2378131243859946,1.9822262548392067,1.5907012121503694,0.7270494083996119,0.7895765013208997,0.7819609680541874,-0.9356978935388054,0.008036430922093498,0.5150707923250839,0.7812601440431441,0.9075570519054005,6.137775755637735,1.0152471626172774,0.6262185112578694,1.0788152576840702,1.0586462374600323,1.199720751922074,2.052011642235604,2.3599307102665805,1.0870683219078485,Stress
107.88053642892639,558.2452830188679,78.97580236053678,,,,,,,116.63753377757216,117.19622723302862,0.1414715086054162,0.20893599520773734,548.0,34.8411,0.0635786496350365,46.25,0.6771045289001367,519.0,585.0,46.22641509433962,62.264150943396224,418.0,1106.0,8.153846153846153,140.625,,,0.026392144836540204,0.11783578969123679,0.040997295712457686,0.18522523024023468,0.2239739293613181,0.14248677030828868,0.6361756956026202,-2.138463236494939,82.87024700595407,75.57602242004513,1.096515063274543,19675.806242663893,0.9119801756427146,5.000902647158893,275.695336804042,0.5849056603773585,0.5961538461538461,0.8064516129032258,0.30434782608695654,49.71557084270407,49.6036513883011,49.845696209672596,50.96153846153846,0.5279837698545211,0.47201623014547905,60.2159575068066,56.93505915987495,0.46288558487905296,0.5371144151209468,51.41867241040923,55.388223408827486,0.4984253952776366,0.5015746047223634,55.990362612285864,56.16696651023912,0.39690392102252553,2.242737318017423,1.0446040626837485,0.9212064919699875,0.40720919542506806,0.6356791138243603,-0.5550209646588681,0.005561537000410065,0.5157673281627901,0.7518122064491837,1.0850527588824774,6.140517978086876,1.0907277203671892,0.7727086584827193,1.171986119024867,1.2786461744986375,1.2746685273343208,1.9741293849635861,2.301189124244515,1.1424770583220525,Stress
107.9650581320393,558.7264150943396,81.49560701206018,,,,,,,119.9666223421768,120.52509276224593,0.14585959211951674,0.21471442749296316,548.0,37.065,0.0676368613138686,51.25,0.6793190090791501,519.0,599.0,50.0,65.09433962264151,404.0,1106.0,8.153846153846153,171.875,,,0.048342123247709576,0.12113113646828456,0.05701472290205556,0.2264879826180497,0.39908915789266836,0.21344233229907805,0.5348236805683445,-2.1108815477776375,85.22411039532177,77.00198429963079,1.1067781067004323,20616.468088023674,0.9035234740785006,5.021184376085641,278.2924014613623,0.6037735849056604,0.6153846153846154,0.828125,0.34782608695652173,51.30909542126816,51.30653310770488,51.29796150316902,49.03846153846153,0.5290806592820477,0.47091934071795216,61.998953154933936,58.49202772765112,0.48202358798181594,0.5179764120181841,53.46087497266751,55.4187732924268,0.5079342799626784,0.4920657200373218,57.887543328210434,56.97612544272253,0.5934030333206707,1.489374579084998,0.984935460966234,0.8370678246247849,0.24963995622216384,0.5351461372943804,-0.5992816974439648,0.0020086488719505934,0.17343876979236034,0.7933303405666612,1.1430640512389434,6.159385902615178,1.145912499475366,0.8038589957300587,1.061877964334077,1.111323600379844,1.3612646394420544,1.9905056960499947,2.1911260897248135,1.205948006006611,Stress
108.16023062360028,557.0094339622641,79.96671870615256,,,,,,,116.73963704390577,117.29363688089501,0.1435643883754581,0.20958287225672836,547.5,37.8063,0.06905260273972602,50.5,0.6850005767627758,516.0,595.0,48.113207547169814,64.15094339622641,418.0,1106.0,8.153846153846153,140.625,,,0.03203922836541773,0.14640825945381697,0.061915967721576114,0.24036345554081082,0.21883484227557656,0.1332949232791249,0.609111976379282,-1.921356262012038,82.93912602851337,77.17085784391865,1.0747467158685897,20107.71195698788,0.9304517848112884,5.010332765293107,287.2150496651693,0.6037735849056604,0.6190476190476191,0.8307692307692308,0.36363636363636365,50.805712039827064,50.77039055063912,50.828675669757075,47.61904761904761,0.5220499596423368,0.47795004035766314,59.92904458286804,57.341965100077104,0.47974699201375276,0.5202530079862471,53.451445960478964,55.66223338225206,0.5024216049649267,0.4975783950350729,56.78268864663502,56.50834091812799,0.5047047799746717,1.2077950136253155,0.9385810250790205,0.4876101866891485,0.6140080221185098,0.9334353821007328,-0.8733835901807862,0.00274003041008722,0.16587157293212765,0.6757242153975977,1.2137836748901953,6.147639558295966,1.1759662599162277,0.8413912398024471,1.1122175662783842,1.2025061149379006,1.404392501341065,1.9696946241153688,2.21376225885506,1.1424770583220525,Stress
108.16602512925621,556.8584905660377,79.45270395221901,,,,,,,116.69324867238159,117.25289268282826,0.14268024156632075,0.20955637859407472,548.0,41.5128,0.07575328467153285,54.75,0.6808680438341718,516.0,595.0,47.16981132075472,65.09433962264151,418.0,1106.0,7.571428571428571,132.8125,,,0.022498297260350034,0.12660462478448112,0.060858173952963286,0.20996109599779444,0.17770517703163574,0.10715460001497787,0.602990874013208,-2.0666862392561853,82.91031552976638,76.59464506096135,1.0824557704233555,19950.640760896837,0.9238252751970583,5.0069269585786875,283.04027620825445,0.6415094339622641,0.6571428571428571,0.855072463768116,0.36363636363636365,50.06591088847879,49.97326553505155,50.163084543269946,51.42857142857142,0.5325335112580762,0.46746648874192387,60.50373478618425,56.6870626944374,0.4503274221834228,0.5496725778165772,51.39993914503235,56.78719845089756,0.494680372120062,0.5053196278799381,56.13668883711414,56.737152663949836,0.5470160099944599,1.1217816476781175,0.9979390190599788,0.6925851930638179,0.9873640372324102,1.042312776854467,-0.7722043337294627,0.004164935786540811,0.17158430663136903,0.6771347419768023,1.2175170294336932,6.227736020519296,1.140833901421156,0.915689851180206,1.1490025158282002,1.1877943954152692,1.4160035329635423,1.972087959250445,2.2512374731353515,1.0790061106374942,Stress
108.00724392811829,557.3301886792453,76.73637266308508,,,,,,,110.95820749058544,111.49012752167133,0.1376856560469729,0.1990888161890762,547.5,38.547599999999996,0.07040657534246575,53.5,0.6915790584450096,516.0,595.0,44.339622641509436,62.264150943396224,443.0,1106.0,7.571428571428571,109.375,,,0.028359786837350465,0.14805037111891403,0.0532319675226931,0.2296421254789576,0.19155498647532526,0.12349557720823791,0.6447004042055867,-1.9102027177243113,78.83542520592673,75.22066621862389,1.0480553971271243,18629.811586167063,0.9541480371563839,4.977178572614247,287.08660410438193,0.6320754716981132,0.6476190476190475,0.8529411764705882,0.3181818181818182,50.176978620982595,50.045368181974624,50.29984667566031,53.333333333333336,0.5485302046597473,0.4514697953402524,58.387877429901756,52.97082832886563,0.43013291488920896,0.5698670851107909,49.333112222304216,56.78373591826416,0.49210823103607826,0.5078917689639219,54.050440295652045,54.910387535881206,0.5899365894894277,1.2692077593818076,1.349162945336265,0.8267987113795702,0.9479830007556798,1.0242258912756828,-0.9115671607705287,0.004248344212224884,0.20595705043432655,0.7390672294072345,1.232722217611922,6.25835028936681,1.095307026647867,0.8609307197606195,1.1809366681686941,1.2157595270093964,1.38394626072618,1.978362327047059,2.146599162756181,1.1424770583220525,Stress
108.55574300907014,555.4766355140187,77.83137866923968,,,,,,,114.34852384556775,114.88247676693005,0.1401163859884354,0.20585658610060822,548.0,40.0302,0.0730478102189781,55.0,0.6806504889766138,508.4,584.6,46.728971962616825,64.48598130841121,443.0,1106.0,7.133333333333334,109.375,,,0.026785235022365787,0.1593921408921077,0.06522225667951903,0.25139963259399256,0.16804614626825717,0.10654444776227508,0.6340189889995748,-1.8363878181570301,81.23417836140224,74.26187605629028,1.0938880442479932,18951.9796489319,0.9141703351255314,4.984624691321428,271.5520164857182,0.6542056074766355,0.6698113207547169,0.8732394366197183,0.30434782608695654,51.018788039163795,50.874615072816454,51.1247286334677,54.71698113207547,0.5642909296600607,0.4357090703399394,61.02747234608673,53.6255980097636,0.4073263482626807,0.5926736517373196,47.39550645123053,57.17072855606429,0.4928389507600901,0.50716104923991,54.63829432147848,55.42651425778075,0.4984331971008959,1.7123729601325013,1.013663326746347,0.9184747487117175,0.6133819461446315,0.6685044382383984,-0.5555886948993074,0.004551905224769407,0.32643790361446107,0.7132401526345706,1.170524870258396,6.250538715251797,1.1005846698398645,0.9173470030761459,1.203300649096113,1.2624639582790458,1.3984519595779838,2.0072025709748815,2.1643106807733967,1.0710741941011168,Stress
109.09253149279843,552.2523364485982,78.16396571913646,,,,,,,114.00823373112385,114.53583383685825,0.14153668633036504,0.2064422840911518,542.0,38.547599999999996,0.0711210332103321,51.0,0.6855993042000612,507.2,582.8,50.467289719626166,69.1588785046729,430.0,1106.0,8.23076923076923,132.8125,,,0.02066709935753856,0.1267932994200979,0.0591398152517956,0.20660021402943204,0.16299835600194684,0.10003425918326661,0.6137133013910385,-2.0651970820653682,80.98906479489808,74.86401838585014,1.0818156243962136,19048.00038902095,0.924371933117645,4.986819501228293,276.80878958513284,0.6542056074766355,0.6698113207547169,0.8873239436619719,0.24,51.21324945435871,51.147101219638124,51.24897285649772,51.886792452830186,0.551987806427029,0.4480121935729709,60.1788999567124,54.21561890574831,0.43676131293341797,0.563238687066582,49.47607234971276,56.18486908165664,0.4989029957030439,0.5010970042969561,55.08802835078603,55.209024837684964,0.41581221974912264,1.7629509220313384,1.4599384129026571,0.6985440367539655,0.8406252803021625,1.060758726333635,-0.9318863143798607,0.004285676720325509,0.34746460089141046,0.7169846183833735,1.3140761533080916,6.269230304036843,1.1918821364143777,0.8541405537025792,1.2681396698124348,1.2221346333542689,1.4287859801043146,1.9942995002627355,2.143796857407792,1.1970829228188953,Stress
108.8765506268307,553.8691588785047,78.53374279144607,,,,,,,116.53564520683611,117.08400966382118,0.14179114603612192,0.2104028421492215,544.0,45.9606,0.08448639705882353,61.0,0.6739031877504824,507.2,594.8,50.467289719626166,70.09345794392523,430.0,1106.0,7.642857142857143,117.1875,,,0.03227422521584623,0.14686899631296352,0.05611474139001281,0.23525796291882256,0.21974838819673695,0.13718653692067667,0.6242891611011769,-1.9182142710862238,82.79089720179923,73.97929975643748,1.1191089598627213,19241.666272532508,0.8935680401689107,4.991212787935528,264.42215158571287,0.6728971962616822,0.6886792452830188,0.8904109589041096,0.25,50.730793254216124,50.52236516234919,50.90682179564139,53.77358490566038,0.5596715337340636,0.44032846626593647,61.93964035752103,54.940227260437965,0.4146908467565087,0.5853091532434913,47.6400754901492,56.59823318572511,0.4953076810673128,0.504692318932687,55.25439276802417,55.775391397883915,0.5172932073073793,2.5006047014506354,1.0068097908551996,1.4002674562849977,-0.9640507255924096,-1.0255190401953234,-0.3426549925297878,0.004653543589260904,0.5283420968506196,0.7378226301765913,1.5485291593471082,6.257593738636501,1.2445890717757844,1.0724696935056077,1.356994122846587,1.5877118387145142,1.4702856298126807,1.990153874209992,2.338049134214646,1.1340785584600062,Stress
108.82406442748645,554.0560747663551,78.79168040744099,,,,,,,117.93418375565759,118.4923682341586,0.14220885573841485,0.21285604314579587,544.0,48.925799999999995,0.08993713235294117,63.0,0.6680987471002119,505.4,598.2,51.4018691588785,73.83177570093457,430.0,1106.0,8.916666666666666,117.1875,,,0.03191947392349197,0.15845664398402473,0.06656219239573484,0.25693831030325154,0.20143979527112807,0.1242301075531282,0.6167108509315182,-1.8422742626165307,83.78675709722701,73.8629288287854,1.1343546543008751,19442.48527893306,0.8815585110075821,4.995721888758784,260.4579742278523,0.7102803738317757,0.7238095238095238,0.9210526315789473,0.34782608695652173,50.44902912621359,50.27918403370154,50.5951665448097,53.333333333333336,0.5512040306640857,0.4487959693359145,62.20698934854124,56.13160556101297,0.41685188314299004,0.58314811685701,47.68891133680857,56.40478694823896,0.49245301608231373,0.5075469839176863,55.425363274856004,56.268362040907896,0.41764776874554066,2.530383493946815,0.8534497502462415,1.229937868980725,-1.4361725545899855,-1.4675779617094284,-0.35121301983074166,0.0018842827647294284,0.4215797211790932,0.7725252628499422,1.603866867384645,6.220210561066407,1.272268652149797,0.9418166574224713,1.367744322375509,1.535186035497986,1.5113244309083946,2.0093949866334473,2.387884062904624,1.1970829228188953,Stress
