PPG_Rate_Mean,HRV_MeanNN,HRV_SDNN,HRV_SDANN1,HRV_SDNNI1,HRV_SDANN2,HRV_SDNNI2,HRV_SDANN5,HRV_SDNNI5,HRV_RMSSD,HRV_SDSD,HRV_CVNN,HRV_CVSD,HRV_MedianNN,HRV_MadNN,HRV_MCVNN,HRV_IQRNN,HRV_SDRMSSD,HRV_Prc20NN,HRV_Prc80NN,HRV_pNN50,HRV_pNN20,HRV_MinNN,HRV_MaxNN,HRV_HTI,HRV_TINN,HRV_ULF,HRV_VLF,HRV_LF,HRV_HF,HRV_VHF,HRV_TP,HRV_LFHF,HRV_LFn,HRV_HFn,HRV_LnHF,HRV_SD1,HRV_SD2,HRV_SD1SD2,HRV_S,HRV_CSI,HRV_CVI,HRV_CSI_Modified,HRV_PIP,HRV_IALS,HRV_PSS,HRV_PAS,HRV_GI,HRV_SI,HRV_AI,HRV_PI,HRV_C1d,HRV_C1a,HRV_SD1d,HRV_SD1a,HRV_C2d,HRV_C2a,HRV_SD2d,HRV_SD2a,HRV_Cd,HRV_Ca,HRV_SDNNd,HRV_SDNNa,HRV_DFA_alpha1,HRV_MFDFA_alpha1_Width,HRV_MFDFA_alpha1_Peak,HRV_MFDFA_alpha1_Mean,HRV_MFDFA_alpha1_Max,HRV_MFDFA_alpha1_Delta,HRV_MFDFA_alpha1_Asymmetry,HRV_MFDFA_alpha1_Fluctuation,HRV_MFDFA_alpha1_Increment,HRV_ApEn,HRV_SampEn,HRV_ShanEn,HRV_FuzzyEn,HRV_MSEn,HRV_CMSEn,HRV_RCMSEn,HRV_CD,HRV_HFD,HRV_KFD,HRV_LZC,Labels
75.34706135857576,797.2972972972973,64.0185610348975,,,,,,,84.22409768075278,84.79905516259481,0.0802944663827528,0.10563700387077467,805.0,53.373599999999996,0.06630260869565217,77.75,0.7600979149406462,739.0,843.0,32.432432432432435,56.75675675675676,634.0,1010.0,12.333333333333334,187.5,,,0.02569943656840777,0.06942397532280996,0.030397628393586923,0.12552104028480465,0.37018099941568683,0.20474206165035183,0.5530863603845888,-2.6675230053823884,59.9619869436829,68.08355619419937,0.8807117356303956,12825.317355172909,1.135445299004924,4.815038230248192,309.220615280965,0.4594594594594595,0.4722222222222222,0.6764705882352942,0.05,51.107011070110694,51.16881435629386,51.03903755096447,43.05555555555556,0.4279217518924765,0.5720782481075236,39.22823175554395,45.356994437952395,0.6145546066413123,0.3854453933586876,53.37310531062388,42.269164334651315,0.5330197743651348,0.4669802256348651,46.83771203403094,43.840273710335126,0.6941435485425064,1.9274749154389081,1.132891928364453,1.1526594530177294,-0.09599247848308501,0.06327971172487357,-0.48974434142050816,0.001415232239617434,0.26827242339996615,0.5533642187186323,1.5293952047605637,5.817297284430923,1.216625301208937,0.7169973211667241,1.0785062712283116,1.1575826011608308,1.8111861343376656,1.8906376133500424,2.954941908781222,1.0908499155834641,Relax
75.46785390071655,796.2432432432432,65.98293901753753,,,,,,,89.7997772825746,90.41987295200948,0.08286781655914222,0.11277932722769968,805.0,57.080099999999995,0.07090695652173912,78.0,0.7347784261191185,738.6,843.0,31.08108108108108,58.108108108108105,634.0,1010.0,10.571428571428571,187.5,,,0.02477069504405389,0.0700658049971008,0.04371375478863798,0.13855025482979266,0.3535347241793462,0.17878491147117986,0.5057067926953711,-2.658320407136001,63.93650531839199,68.77744090523696,0.9296144851694189,13814.805656661387,1.0757147354666634,4.847314889707754,295.9396265978042,0.47297297297297297,0.4931506849315069,0.7222222222222222,0.05,50.439667806546176,50.56505694577626,50.31133897012386,45.20547945205479,0.41639316971080664,0.5836068302891934,41.25791169918538,48.84449531136771,0.6210560811091687,0.37894391889083123,54.201514489188845,42.33830658578133,0.5261785502481577,0.4738214497518422,48.16647927085561,45.707313018672615,0.6924676166627418,2.1953614998872797,1.2420097942502801,1.3872879142808936,-0.312788141042482,-0.4570504786428331,-0.4338249668503011,0.003297031709650091,0.42195396975748173,0.5001755934128811,1.2878542883066382,5.773444412838538,1.1308039102742482,1.2132198059024366,1.060504683923411,1.1301526219411977,1.8377541013422876,1.8942086917316778,2.968246891921411,1.174761447551423,Relax
75.58026600114034,795.1486486486486,65.39001692320721,,,,,,,88.98322144443938,89.58903932130569,0.0822362171329062,0.11190765600327177,800.0,55.5975,0.069496875,66.5,0.7348578289451609,746.2,839.2,27.027027027027028,58.108108108108105,634.0,1010.0,10.571428571428571,187.5,,,0.02532590490392044,0.06129899217318565,0.035348674957680855,0.12197357203478695,0.4131536915381602,0.20763436276751387,0.5025596213227496,-2.7919918770693224,63.349017224083504,66.3583581556089,0.9546501599019591,13206.428566074606,1.0475041455004819,4.827755496557825,278.0426210264241,0.47297297297297297,0.4931506849315069,0.75,0.05,51.220739994966024,51.49440110123907,50.95727256539806,43.83561643835616,0.4198455057394703,0.5801544942605298,41.05188113161739,48.256979921158674,0.6542754369068035,0.34572456309319666,53.675480412518404,39.01761781033562,0.5424835120164418,0.4575164879835581,47.78239289717025,43.881149772450875,0.6536858031661421,2.378406493375694,1.2515458079639776,1.4909643964719068,-0.5206361547876952,-0.8182414682373762,-0.3993365561459934,0.004116392190554837,0.5152605880061268,0.49655859768074695,1.3256697393034558,5.7362162033498425,1.0777133919952497,0.0,0.9884733208819245,0.9952769866353005,1.798953512328474,1.86817855076138,2.3232774542884473,1.0069383836155055,Relax
75.36475121099421,796.8918918918919,62.45449139174741,,,,,,,86.38366157035351,86.98062206558588,0.07837260239086499,0.10840072844168493,797.0,52.632299999999994,0.066038017565872,66.5,0.722989628552415,753.8,843.4000000000001,25.675675675675674,56.75675675675676,634.0,1010.0,10.571428571428571,187.5,,,0.0275650176934083,0.09376475849428713,0.050466841360634854,0.17179661754833028,0.2939805758161023,0.1604514575827061,0.5457893166488507,-2.366966202582402,61.50458769440002,63.876837590142976,0.9628621267858598,12342.433363616838,1.0385702918216448,4.798370901118369,265.3623434265544,0.47297297297297297,0.4931506849315069,0.75,0.05,50.373333333333335,50.498874402876325,50.24815371753607,41.0958904109589,0.4015504758268225,0.5984495241731775,38.97461780868843,47.58012248361237,0.6298743269738185,0.37012567302618155,50.69561087819269,38.861361507342664,0.5200296796924413,0.4799703203075587,45.21651134069535,43.44003610587777,0.6697337278478255,2.532380554881047,1.3202499409349315,1.5947596682587017,-0.7582044876995688,-1.0954123583803965,-0.3916001282687685,0.004750812542048884,0.5802271959002184,0.4986311522621376,1.5125880864441825,5.908579547973674,1.0768822525722686,1.2527458589251201,1.0757050848422478,1.1965024624261025,1.8590737457084898,1.8682424740320265,3.2935248315440657,1.0908499155834641,Relax
75.62761685911869,794.4459459459459,62.24743860976522,,,,,,,87.55812159665285,88.15862795784334,0.07835327114124456,0.11021281188916823,796.0,48.925799999999995,0.0614645728643216,66.5,0.7109270673543641,751.6,835.2,27.027027027027028,59.45945945945946,634.0,1010.0,12.333333333333334,226.5625,,,0.04408360861478166,0.10119487972813428,0.05902947019541054,0.20430795853832648,0.43563082176899415,0.21577039352831642,0.495305618303415,-2.2907071189805666,62.33756364909297,62.570368301181574,0.9962793146594886,12253.732874228022,1.0037345805395779,4.795238518639851,251.21616952397355,0.527027027027027,0.547945205479452,0.8,0.1,49.085758434200365,49.245211201816645,48.93489764778452,42.465753424657535,0.3952727513137699,0.6047272486862301,39.19449366088728,48.47930543598532,0.6321762483688103,0.36782375163118985,49.749394434676724,37.94797415842467,0.5141587332128937,0.4858412667871062,44.78398474873789,43.5332734714725,0.6029261445726661,2.4290472502816796,1.209533313904102,1.3035972048933675,-0.282820627057232,-0.20436416809862634,-0.46127539677198226,0.0034187720206488473,0.5002985661093945,0.5115627148527042,2.0243817644968085,5.837699649354261,1.1172050012802028,1.172502843098844,1.2542733291735892,1.576144262068988,1.8436367101205506,1.8638283840534065,2.9934804877763805,1.0069383836155055,Relax
76.27372360346287,787.56,60.89584373160277,,,,,,,86.0779031192408,86.66485725144835,0.0773221643196744,0.10929694641581696,789.0,51.891,0.0657680608365019,66.0,0.7074503621126298,743.2,826.2,24.0,56.00000000000001,634.0,1010.0,12.5,156.25,,,0.042634441184051824,0.07439329087447322,0.05516947314370778,0.1721972052022328,0.5730952439782591,0.24759078484450922,0.4320237996145398,-2.598389517627599,61.281308253063266,61.22347554487093,1.0009446165490874,11786.799091193832,0.9990562749092511,4.7783659909031595,244.66278965942553,0.5466666666666666,0.5675675675675675,0.8095238095238095,0.10526315789473684,49.68034096963239,49.825398257670834,49.53949320604602,43.24324324324324,0.3951606431562514,0.6048393568437486,38.522809468093946,47.65968113069423,0.6274642650836377,0.3725357349163625,48.49673249642271,37.36818024688688,0.5112019625491621,0.48879803745083783,43.79463387302519,42.82421102859502,0.6282800497497036,2.648078593590463,1.3561302827257646,1.4319580193696146,-0.2360391778409241,-0.1658463626812554,-0.4713649976902547,0.005573793154993348,0.6632514304049534,0.5730247454761268,1.8281271133989299,5.925420190467035,1.052375703696422,0.7702225204735744,1.2519511467896018,1.559320183520062,1.8433864403639508,1.8468421928443457,3.246485683267018,1.0796619063526194,Relax
76.93372691550644,781.25,59.757984124857046,,,,,,,86.93499487164725,87.51833784675905,0.07649021967981702,0.11127679343570848,781.0,46.701899999999995,0.059797567221510875,66.5,0.6873869862543278,738.0,815.0,25.0,53.94736842105263,634.0,1010.0,12.666666666666666,156.25,,,0.05288556368710122,0.06650631495042438,0.035679557487849754,0.15507143612537536,0.7951961212483892,0.34104000716381583,0.42887534037315533,-2.7104583741683848,61.884810169618596,57.824933055584964,1.0702098022341162,11242.142203367122,0.9343962257797025,4.757819184402703,216.12559681241018,0.5789473684210527,0.5945945945945946,0.8636363636363636,0.1,50.581245156290365,50.68971314861892,50.468879922727226,45.94594594594595,0.4138793670731987,0.5861206329268013,39.81358589252696,47.37922055649017,0.597137789771147,0.40286221022885327,44.6840384465403,36.702310431238395,0.4992984576191278,0.5007015423808723,42.318937330192455,42.37835610032279,0.6292729970185301,2.775253326643073,1.4037102860605368,1.5369150942224419,-0.3660349809242085,-0.39645594950444973,-0.4520026489534817,0.006801088495969064,0.7574614637299708,0.5557362328129964,1.6094379124341005,5.932138039759375,1.0496638800944698,1.0289643506503228,1.179185490411299,1.6432599880027055,1.8195244336637995,1.9043738155152428,3.097731443612986,1.3153531607249653,Relax
77.30082463376179,776.8533333333334,49.61137983375396,,,,,,,62.63072814607944,62.99773007669987,0.06386196429238547,0.08062104577365024,781.0,44.477999999999994,0.05695006402048655,59.0,0.7921252283390471,743.2,812.4,18.666666666666668,50.66666666666667,634.0,922.0,10.714285714285714,156.25,,,0.05444785887196292,0.06829369272877624,0.03083678645151172,0.15357833805225088,0.7972604305964079,0.35452824638223723,0.44468310827495183,-2.683937863246815,44.54612213659419,52.14201923887579,0.8543229201101156,7297.055034358796,1.1705175835281438,4.5701177316739905,244.1326014390675,0.5466666666666666,0.5616438356164384,0.8048780487804879,0.10526315789473684,53.60568383658969,53.735039124101036,53.476953217465365,43.83561643835616,0.4212000427184064,0.5787999572815933,28.93817216444705,33.92275673729265,0.6055887358057006,0.39441126419429945,40.57670146965323,32.74631991766302,0.5277048816878596,0.47229511831214055,35.241215291023494,33.33972774939433,0.8511382840848943,3.3474673611692403,1.5115786442326105,1.885256435858631,-1.8565785080554207,-1.452405675103348,-0.3883699969831825,0.003495674275302181,0.7630372000653636,0.5155935315321578,1.5723966407537513,5.765420190467035,1.098212354368156,0.9458400009650912,0.3930991601884378,0.7396727504684104,2.0120629980511984,1.8245227785344724,2.276347719676386,1.1627128222258978,Relax
76.9153319271233,780.6973684210526,45.22389331222811,,,,,,,60.045871354046206,60.45015219915413,0.05792755956599761,0.07691312124631339,781.5,43.7367,0.05596506717850288,58.5,0.7531557506356461,746.0,813.0,14.473684210526317,48.68421052631579,634.0,922.0,9.5,156.25,,,0.05088615754461055,0.07983470526177651,0.044237919867203275,0.17495878267359033,0.637393942618762,0.29084654549492195,0.45630578837942154,-2.5277969660395057,42.74471254378078,47.67215932569842,0.8966389009515365,6401.726227069553,1.1152761707514296,4.513267207352642,212.67049321686795,0.5526315789473685,0.5675675675675675,0.8095238095238095,0.10526315789473684,50.13415101571484,50.22876369684634,50.036776688265384,47.2972972972973,0.3818307551781905,0.6181692448218096,26.413039367869967,33.60753213516601,0.5608873633701449,0.4391126366298549,35.70283079430435,31.590230262662665,0.4810881026258815,0.5189118973741186,31.403349943719185,32.61448193873593,0.7866975944535072,3.0678843430494043,1.4146078513792417,1.6464703755625325,-1.4007973679044987,-0.9057225222048364,-0.4244226645282121,0.0026795290449346085,0.6272887632252407,0.6978852095361106,1.8787708462176849,5.833325210755072,1.0955312547325,1.0909193740014214,1.0293427087394127,1.2637588868123144,1.8805333164432683,1.8245965819190522,2.5919937579468115,1.1509340156343446,Relax
76.82835050049944,781.68,46.26543862118688,,,,,,,65.35898788458476,65.79296311017413,0.05918718480860056,0.08361348363087807,781.0,44.477999999999994,0.05695006402048655,56.5,0.7078665095439584,748.4,813.8,18.666666666666668,52.0,634.0,922.0,9.375,156.25,,,0.05875168553301137,0.08170660954171187,0.026807755090017593,0.16726605016474083,0.7190567062144241,0.35124692353975395,0.4884829256220182,-2.504620380245068,46.52265036956049,45.88042121343215,1.013997891456592,6705.662901365972,0.9861953446111371,4.533411827298497,180.98823123793937,0.6133333333333333,0.6301369863013699,0.8478260869565217,0.15,51.58432708688245,51.71992579579584,51.44294883016632,43.83561643835616,0.3998000714934216,0.6001999285065782,29.421593039573867,36.048958338075096,0.6233046236822527,0.37669537631774735,36.22242906579401,28.15934451111169,0.5099783395254756,0.4900216604745243,32.99768555832954,32.34560310579902,0.734979430563867,2.71545314478177,1.4193014327123203,1.389933499139798,-0.20823194963329605,0.3497048596322938,-0.5108151133555583,0.004083647479418523,0.6069167805215696,0.6379544163428528,1.9299098077088723,5.798623190409341,1.0810118469404777,1.1422417843310326,1.0378658689879439,1.3297438869668303,1.9318273223506306,1.8845068072303626,2.6125166522840755,1.0796619063526194,Relax
76.60044688045151,782.0,52.60392887735034,,,,,,,70.81525259433874,71.19719348654384,0.06726845124980863,0.09055658899531809,781.5,43.7367,0.05596506717850288,54.25,0.7428333155667612,749.0,817.0,17.105263157894736,51.31578947368421,525.0,922.0,9.5,281.25,,,0.05262045143844868,0.050334014542947635,0.010307366941405318,0.11326183292280163,1.0454252838018738,0.464591205002963,0.44440402599925166,-2.9890741969610586,50.34401831578584,46.542482773297586,1.0816788300917475,7361.177603664263,0.9244888336357481,4.573917406074202,172.1120224543911,0.618421052631579,0.6351351351351351,0.851063829787234,0.15,45.396505376344095,44.84749863257735,45.82024451732463,45.94594594594595,0.2640317992076786,0.7359682007923214,25.903276428470004,43.24701208238615,0.5763408380588776,0.4236591619411224,35.333710264860116,30.294085588141147,0.40774430607944806,0.592255693920552,30.979435201523696,37.33654828499599,0.7164519976802174,2.8233392256333243,1.3948800045227618,1.353740636392705,-0.30986393941279466,0.4303558157167937,-0.514571174358557,0.003666328420530622,0.6164188234563321,0.7141428850105802,1.7553918250571803,5.780693631807703,1.029524337543282,1.1538413827029896,1.271940412953786,1.7147775309457676,1.727039949425405,1.9151804204310536,2.2343999174315763,1.0687244430890344,Relax
77.03037601293406,780.828947368421,54.169705717715125,,,,,,,77.88521468588672,78.39954725002568,0.0693746125835625,0.09974683309113781,778.5,45.9606,0.0590373795761079,62.25,0.6955069192038962,744.0,813.0,21.052631578947366,53.94736842105263,662.0,1002.9999999999999,8.444444444444445,132.8125,,,0.055457502058395676,0.05187845171710175,0.01688728539941769,0.12422323917491512,1.0689891510411844,0.44643419723025884,0.4176227577196986,-2.958851763520051,55.43685150244829,44.42857817394743,1.247774603216,7737.681415499377,0.8014267940881401,4.59558095445545,142.425011887364,0.6052631578947368,0.6216216216216216,0.8478260869565217,0.15789473684210525,51.353686635944705,51.04856451675771,51.7124304464894,48.64864864864865,0.555868893392357,0.4441311066076431,41.33719285962113,36.94965530322342,0.48145486511639846,0.5185451348836017,30.82763474975438,31.99305384445652,0.5267707326842247,0.47322926731577525,36.463040039043484,34.560327843651315,0.6273785316414425,3.1712578743268565,1.2993616775884922,1.4706035504434063,-1.2678841092857525,-0.5956198690033674,-0.44600190850412547,0.0032156232543887795,0.6873062441228975,0.690903294276465,1.742969305058623,5.73799478315196,1.0288888517143249,1.3228975680677588,1.2202199240884284,1.6284681197848005,1.7602689291390348,1.9689686803605644,2.5785433191615024,1.3153531607249653,Relax
76.76918619706538,782.2666666666667,46.54243438195082,,,,,,,54.210799761770815,54.5617862864601,0.05949689072177112,0.06929964176125467,781.0,47.4432,0.060746734955185656,61.0,0.8585454298125355,745.8,823.0,13.333333333333334,52.0,636.0,905.0,8.333333333333334,156.25,,,0.06276693524370491,0.044179753263702055,0.0011491558143176671,0.10809584432172463,1.4207171975148631,0.5806600210910262,0.4087090816572955,-3.1194886658020025,38.5810090768071,52.476482276835725,0.7352057036383631,6360.454786102728,1.3601635502162608,4.510458279703516,285.50639374608625,0.56,0.5753424657534246,0.7857142857142857,0.1,52.12339743589743,51.930320710381906,52.3134953171479,50.68493150684932,0.6045421939376102,0.3954578060623895,30.00810392827016,24.27030995281023,0.37385887866836065,0.6261411213316392,32.086220540842994,41.5241573491316,0.45483581832058145,0.5451641816794184,31.06454449984321,34.00958386073636,0.7497231883965263,2.694234118914619,1.3555376013198215,1.6034224816990468,-0.9026371741148616,-0.9000727550197114,-0.4079943058255507,0.003458903152283294,0.5715299230758213,0.6443696842097326,1.8718021769015913,5.782021690438189,1.1514379408163213,1.0255241638725208,0.8308862476853277,1.0794953938149472,2.0374108720970368,1.8341754993996333,2.9653887752923644,0.9966109904793409,Relax
77.01357048336232,778.671052631579,54.647814999417186,,,,,,,74.5341979675549,75.00262577986103,0.07018087395791929,0.09571974932888647,780.0,48.1845,0.061775,64.0,0.7331911590865396,744.0,823.0,18.421052631578945,53.94736842105263,625.0,958.0,9.5,171.875,,,0.0587937171129394,0.13369172326793957,0.01208724539914383,0.2045726857800228,0.43977080761467485,0.2873976889376148,0.6535169773920767,-2.0122187020414617,53.034865295736694,53.99052636284384,0.9822994674901924,8995.574492606367,1.0180194870257164,4.66099901427501,219.8536318086028,0.5657894736842105,0.5810810810810811,0.813953488372093,0.10526315789473684,47.42045103490885,47.250655945043675,47.568053654470305,54.054054054054056,0.43198024245711625,0.5680197575428837,34.8728384973874,39.98868083088757,0.4127529221253246,0.5872470778746754,34.68667249317306,41.37404607103695,0.42219920019267637,0.5778007998073236,34.77988005667582,40.68726018597764,0.7715474534268377,2.5699560868458584,1.4124587040861107,1.600472663006127,-0.5161165688441987,-0.6002121165257287,-0.42684156749512076,0.004267361312068225,0.5799960045982161,0.6020983606833683,1.5960148921019597,5.859641000228756,1.0343039055820635,1.058667792074042,0.8872291444639933,1.0781107405373855,1.8049973614751356,1.8644932478476264,3.190860230032875,1.233143588179655,Relax
76.61102904103078,783.4342105263158,58.41217579153985,,,,,,,79.91261894511196,80.44698998842777,0.07455913337291997,0.10200297341039802,781.0,53.373599999999996,0.06834007682458386,74.75,0.7309505878121739,744.0,826.0,22.36842105263158,55.26315789473685,636.0,977.0,9.5,164.0625,,,0.05960814117328526,0.11990112235223677,0.011954874829446072,0.1914641383549681,0.4971441468093419,0.31132796817947056,0.6262327942057959,-2.12108785625656,56.884612146863574,59.985310514137346,0.9483090386513379,10719.87164462642,1.054508561283119,4.737159695284569,253.02009395353653,0.5526315789473685,0.5675675675675675,0.7857142857142857,0.1111111111111111,49.19933738266152,49.21135556030872,49.179234104485545,52.702702702702695,0.44312582471729955,0.5568741752827004,37.86854931241791,42.45156222255118,0.47982441386802416,0.5201755861319759,41.5514402709291,43.263324986515876,0.4624472349091754,0.5375527650908246,39.752667933206794,42.85936551107601,0.7421520417557507,2.8099033105637865,1.4247085097162089,1.7563864301513847,-0.7715180008527938,-0.9926515065170076,-0.3819610912630916,0.006141819176964762,0.7394029073422494,0.6138363939955105,1.7635885922613588,5.92220530946775,1.1073187536717863,0.8169164972594082,0.9587621064709388,1.174359600306876,1.7992585447054683,1.9040355941594198,2.9279748669176247,0.986514870543724,Relax
76.5277666282907,786.3866666666667,61.05356384075918,,,,,,,86.06612793880284,86.64417824980215,0.07763809640816119,0.10944504985520631,784.0,57.8214,0.07375178571428571,76.0,0.7093796979477363,743.2,827.2,22.666666666666664,50.66666666666667,636.0,977.0,9.375,148.4375,,,0.04930621443936292,0.1320382612779044,0.016412417821703332,0.19775689353897066,0.37342368766570494,0.24932741183885188,0.6676796895167879,-2.024663540230586,61.266685990771066,59.40629998864896,1.0313163082447077,11434.225844863011,0.9696346232534538,4.765176875958736,230.40962123350118,0.5733333333333334,0.5774647887323944,0.7804878048780488,0.17647058823529413,51.24536301006889,51.14949934141176,51.34047913221483,54.929577464788736,0.502887916722917,0.49711208327708295,43.45175249078624,43.20150301799346,0.4450383511780595,0.5549616488219404,39.6306525095102,44.25516760799588,0.47485792242974517,0.5251420775702548,41.585114000385374,43.73150879529259,0.6478786894009543,2.490881954260715,1.26561348742871,1.5066848656362932,-0.6196538973086376,-0.829778778750812,-0.40321846533304195,0.004181677007409899,0.5504951863171137,0.6449217513585714,1.8044984950054848,5.888688357104853,1.0348483608080026,1.1108889561551858,1.0540674838981272,1.5186987752832064,1.6790019677390702,1.8937914147385146,3.2595496076795705,1.0796619063526194,Relax
76.29253968390158,788.68,63.301116509516255,,,,,,,87.05256256221668,87.58337330101892,0.08026210441435849,0.11037754547118817,785.0,50.4084,0.06421452229299363,69.5,0.727159714158613,745.6,828.4,25.333333333333336,53.333333333333336,636.0,996.0,8.333333333333334,148.4375,,,0.041738916179312344,0.1658973206080227,0.01633710026814844,0.2239733370554835,0.25159487824358434,0.1863566294454622,0.7407012048354935,-1.7963862325609914,61.93079718034329,60.5967279600711,1.0220155322767799,11789.780437170428,0.9784587106736675,4.778475827201646,237.1655852434166,0.5466666666666666,0.5492957746478874,0.7435897435897436,0.16666666666666666,53.089533417402265,52.82670858992723,53.374897577080404,54.929577464788736,0.5331242209553428,0.4668757790446573,45.25173121640974,42.34690394789922,0.45998524238728844,0.5400147576127116,41.09804122753816,44.529927540098655,0.4973774225063728,0.502622577493627,43.224808679869355,43.45212722467704,0.5952267616882807,2.682619786044486,1.2669917531218156,1.4710328203945522,-0.4862625044212674,-0.4982596933354113,-0.42393962486439624,0.0054748267880802386,0.6621872385440132,0.5833789184086249,1.7635885922613588,5.942021690438188,0.9883694943561026,1.6629109257054526,1.1222336486395599,1.5573813907476535,1.8108515715605595,1.8923874738602957,2.831505960121617,1.0796619063526194,Relax
75.85698612950117,792.2837837837837,60.70646199501837,,,,,,,81.17754936278838,81.70204014450762,0.07662211853573078,0.10246019295649492,793.0,50.4084,0.06356670870113493,65.75,0.7478232894629125,752.6,836.4,22.972972972972975,54.054054054054056,636.0,977.0,9.25,148.4375,,,0.056267071858569793,0.12414636728804507,0.012227199291286779,0.19264063843790163,0.45323172226230857,0.29208308441475433,0.6444453688210967,-2.086294028124246,57.772066622956864,60.87093821127993,0.9490911150807789,11047.850068073169,1.0536396180622638,4.750247881700874,256.54412835209854,0.5135135135135135,0.5211267605633803,0.7027027027027027,0.17647058823529413,52.4567664013176,52.228222263844025,52.699368324025244,54.929577464788736,0.5306399476151376,0.4693600523848622,42.10329559547566,39.59762899748193,0.4444691166358864,0.5555308833641136,40.58175182313585,45.36951110257714,0.4853249568053662,0.5146750431946336,41.3495228571902,42.58147930678954,0.7147515327063756,2.2396471605265376,1.292583709304368,1.4545636559514965,-0.43203613106310534,-0.671970080562929,-0.42767613153446565,0.0031155200484017736,0.43083036253063023,0.6123723062901463,1.6376087894007967,5.983035966951064,1.031498101117219,1.312405298385928,1.3457881465420587,1.7218074957361273,1.9264582731423643,1.8668231463520122,3.2219275866395383,1.0908499155834641,Relax
75.95817886206544,791.9866666666667,64.73594876931257,,,,,,,93.5681569766125,94.19924608889998,0.08173868512430248,0.11814360129372443,795.0,51.891,0.06527169811320754,68.5,0.691858756879153,745.6,837.0,26.666666666666668,54.666666666666664,636.0,1010.9999999999999,10.714285714285714,148.4375,,,0.05213455070182349,0.12634852486818174,0.021478147821284564,0.1999612233912898,0.4126249258249354,0.260723303336693,0.631865132275868,-2.0687111201810118,66.60892569212155,62.97356391330987,1.0577283792261807,13177.729066346936,0.945422302776433,4.826810684185596,238.1464472358412,0.5333333333333333,0.5416666666666666,0.7435897435897436,0.16666666666666666,51.031894934333955,51.00087280303644,51.04996382863537,55.55555555555556,0.5121366940898637,0.4878633059101361,47.671679654653346,46.52823564598991,0.42799626671708546,0.5720037332829145,41.19820201009729,47.62749104329284,0.47242852235626803,0.5275714776437322,44.55267045846227,47.08107164990887,0.5993301879648786,2.502202336568879,1.2190965610500484,1.5173295489148884,-0.8768130614555592,-1.2266479433058035,-0.38081180186499664,0.004078903676944545,0.5408499381153354,0.6018069967964976,1.7491998548092593,6.015485357162546,1.053496275661952,1.021028647799822,1.4672434064120263,1.7742940488689996,1.830813576629332,1.8769525699743121,3.1596366911645792,1.1627128222258978,Relax
76.96007146367369,782.3733333333333,83.41896429232146,,,,,,,124.20172127457641,125.03643082594458,0.10662296468734636,0.15874994198154727,799.0,59.303999999999995,0.07422277847309136,87.0,0.6716409679049833,723.6,837.6,40.0,62.66666666666667,543.0,1010.9999999999999,12.5,281.25,,,0.040589609217482996,0.16215624653320457,0.031361071684528105,0.23410692743521566,0.25031172147396435,0.1733806413255983,0.6926588986909754,-1.8191949237934755,88.41410813238808,77.37334600715917,1.1426946447967667,21491.30667117184,0.8751244302696932,5.039232931354949,270.8452213703,0.5733333333333334,0.5833333333333334,0.7857142857142857,0.26666666666666666,51.0975408483248,51.36605687215179,50.838122129436904,52.77777777777778,0.4629282304698349,0.5370717695301652,60.162223618188605,64.80122398641082,0.6386085749713317,0.3613914250286682,61.831353187353876,46.51363709025859,0.5391114373798583,0.46088856262014183,61.002497439302545,56.403532981105286,0.5062829020999511,3.1778761442412766,1.168005468173782,1.7360314045547216,-1.508440817777526,-1.7764738387372279,-0.3212561123849096,0.007098301221176891,0.9017877214639063,0.40069587959506725,1.0271533246859645,6.068818690495879,0.9934549521343272,1.5263325437639685,1.0349186262423116,1.4098311908849357,1.7655100394657675,1.940404199371696,2.823533485903355,1.1627128222258978,Relax
77.48399174107735,776.5263157894736,80.83950745095049,,,,,,,112.29467188310107,113.04662675117652,0.10410401528860373,0.14461154709088522,790.5,68.9409,0.08721176470588235,96.0,0.7198872938077111,705.0,837.0,35.526315789473685,60.526315789473685,543.0,1010.9999999999999,12.666666666666666,281.25,,,0.03638265323396501,0.10016038690153475,0.058475712386826396,0.19501875252232614,0.3632439366446529,0.18655976803974197,0.5135936191062866,-2.3009825088029974,79.93603636602148,82.10041423779795,0.9736374305553746,20617.586770109694,1.027076372186706,5.021207940950108,337.2935824415332,0.5657894736842105,0.5753424657534246,0.7619047619047619,0.26666666666666666,49.32369835093571,49.475477929278064,49.184566506306176,53.42465753424658,0.4344477492632885,0.5655522507367116,52.689939549497765,60.1167220519405,0.6130731133307581,0.38692688666924174,64.28379145510822,51.06928797402773,0.5261426147958839,0.473857385204116,58.77344457139454,55.77675342131542,0.6117585785296494,3.2874962254920117,1.310366344664064,1.7639782529864059,-1.5227985436925753,-1.4626192505190627,-0.3620190329634665,0.005875762262157171,0.8804314908651862,0.39530269682639574,1.0082282271998406,6.063716987127795,0.9207885824014189,1.1977724690543359,1.0432905485401989,1.4555459259987171,1.7948117379468356,1.882544860533022,3.444844625588641,1.1509340156343446,Relax
78.18340158642785,769.3376623376623,82.87190660887286,,,,,,,110.0579990636516,110.78890627849867,0.10771850991548153,0.14305551963910892,776.0,88.95599999999999,0.11463402061855668,124.0,0.7529839476814787,693.6,836.8,32.467532467532465,58.44155844155844,543.0,1010.9999999999999,15.4,281.25,,,0.02560678121204926,0.05074006024864815,0.005991424138654309,0.08233826559935171,0.5046659599252544,0.31099490650736844,0.6162391189479663,-2.981039537412255,78.33958690976729,87.2658651940733,0.8977116852682939,21477.095520306437,1.1139433923054436,5.038945658646978,388.8369356270222,0.5194805194805194,0.5270270270270271,0.717948717948718,0.2857142857142857,50.21227325357005,50.38684508355969,50.044733553255874,52.702702702702695,0.44447461898606294,0.5555253810139369,52.228344794756794,58.38949677239334,0.5988027126674963,0.4011972873325038,67.52837179460138,55.27431800429797,0.529932723308625,0.47006727669137505,60.3650602469256,56.85324777078963,0.6444419089661466,2.284707790695249,1.2925612372974213,1.2523661775847277,0.10251316990466908,0.2793516304462038,-0.5175930855912484,0.004294946648445606,0.4888843799669803,0.4268442597746631,1.0045833390198335,6.084968358876722,0.9111705679849806,1.063310291117333,0.9447741738060195,1.1707095570995378,1.715768554220725,1.8800416241930338,2.970406982053928,1.0580288964809574,Relax
79.03247358444783,762.6753246753246,88.34597681818335,,,,,,,121.55749127145774,122.3085736691523,0.11583694130368351,0.1593830131100747,775.0,96.369,0.12434709677419355,132.0,0.7267834824008694,678.4,837.0,36.36363636363637,59.74025974025974,543.0,1010.9999999999999,12.833333333333334,320.3125,,,0.009795467869383985,0.04788796314352611,0.01656118111361507,0.07424461212652517,0.20454968694378928,0.13193506692028883,0.6450025365061786,-3.0388910975111205,86.485221838712,87.80958016310665,0.9849178378721929,23857.98038200286,1.0153131170417122,5.0846037870968255,356.6168741661117,0.5584415584415584,0.5675675675675675,0.7619047619047619,0.26666666666666666,52.393934230703685,52.742678010821585,52.05764071006396,45.94594594594595,0.464931660304205,0.535068339695795,58.99802256573238,63.29181095002206,0.6617200024074019,0.3382799975925981,71.42973386618422,51.071670113940336,0.5647754912591718,0.4352245087408283,65.50944033824656,57.5072552881829,0.5026429044420481,3.34051686227138,1.2961869495316773,1.810636576819893,-1.5350532818930471,-1.8103947718027245,-0.3459969973214216,0.009165717008631946,1.0453224153169636,0.42820300753664053,0.9903987040278769,6.136916410824774,0.9000275225477488,1.0175113528365087,1.0045585510735844,1.1028700229246582,1.7279488275068382,1.9238020923464614,2.463321360722102,1.0580288964809574,Relax
79.51070058408983,756.2179487179487,83.58223999445602,,,,,,,107.51961464062047,108.22327620231111,0.11052665456586537,0.1421807229290226,762.5,95.62769999999999,0.12541337704918032,122.25,0.7773673694220904,676.4,825.8,38.46153846153847,61.53846153846154,543.0,1010.9999999999999,15.6,156.25,,,0.0077192599103937925,0.02840612072825878,0.03423165793455487,0.07035703857320744,0.2717463600270688,0.10971553190604803,0.40374241588781246,-3.561150638435113,76.5254124848789,90.10132520572462,0.8493261593006718,21661.41039308194,1.177403979671828,5.0426568404593715,424.3426354837031,0.5384615384615384,0.5466666666666666,0.7560975609756098,0.25,49.601518026565465,49.87356981917641,49.334936553949724,48.0,0.40459649769253936,0.5954035023074608,48.67683443411573,59.04960002538454,0.6117757752498494,0.3882242247501507,70.47373947530302,56.14001111680391,0.5249534560983936,0.4750465439016062,60.563942103198656,57.61317605961661,0.5172215798566436,2.9444952815877388,1.2044278409031937,1.6122567192969997,-1.0343928628408747,-1.26363960239631,-0.36149447039565463,0.007002847714767161,0.8108581382652685,0.3897728165366776,1.0445450673978338,6.028991962451994,0.9882587181531294,0.9948064464889935,0.7560738143440797,1.408873066373814,1.8001102556284492,1.9320365665394794,2.8513647240945903,0.9669849567480383,Relax
80.21138610786574,750.3589743589744,85.04666012804029,,,,,,,113.75828783850454,114.50182745006879,0.11334129801098862,0.1516051539673892,745.0,95.62769999999999,0.1283593288590604,123.75,0.7476084753383038,674.8,823.2,39.743589743589745,61.53846153846154,543.0,1010.9999999999999,13.0,156.25,,,0.010885212701867866,0.01718838123797978,0.02467730317697031,0.052750897116817956,0.6332889962793988,0.2063512337574532,0.3258405482643405,-4.063521632841798,80.96501864819561,87.5314668543761,0.9249818557581706,22264.425812010388,1.0811022873311824,5.054581609344103,378.5218761188783,0.5897435897435898,0.6,0.8,0.29411764705882354,50.504335515837894,50.618736531772115,50.39763512902399,45.33333333333333,0.43490259952049914,0.5650974004795007,53.39524914801828,60.86509024495334,0.6338962956862849,0.3661037043137151,69.6904571511284,52.962230615274116,0.5421405438102184,0.4578594561897815,62.0798375058771,57.05066643901626,0.565423541885442,2.3978883155421116,1.174235353312567,1.161964001303394,-0.041504243725682954,0.3468195154575855,-0.5051175661225066,0.0036244287927661295,0.4827409950536855,0.45386398479459267,1.3499267169490163,6.028991962451994,0.9961750823799417,1.4002286465107612,0.8817136489506522,1.1852970153837927,1.7946003227039997,1.9605065861222744,3.056337529933952,0.9669849567480383,Relax
80.2308226062634,750.3461538461538,84.36498118265688,,,,,,,112.63283643838436,113.35579183881148,0.11243474861597616,0.15010783471208128,744.0,98.5929,0.1325173387096774,121.5,0.7490265170477939,676.4,826.6,38.46153846153847,60.256410256410255,543.0,1010.9999999999999,11.142857142857142,171.875,,,0.008284599755269299,0.022017868546902505,0.011375805034352983,0.04167827333652479,0.3762671094897959,0.1987750233407362,0.5282816869384829,-3.815900948607788,80.1546490959943,88.51097050764417,0.9055899922492864,22288.235741725435,1.1042524857371931,5.055045802580313,390.9538367923099,0.6153846153846154,0.6216216216216216,0.8478260869565217,0.375,51.31434830230012,51.51536105282452,51.09892824207446,47.2972972972973,0.42259073701365835,0.5774092629863415,52.113300151032256,60.915871667839006,0.6190701178692851,0.38092988213071477,69.64132467917698,54.628543794746285,0.5305274994208632,0.46947250057913675,61.50491913539162,57.857675455323744,0.6147554949812645,2.628322449311194,1.2507659443997436,1.3802030227062116,-0.48040283999790034,-0.24835377939315273,-0.4507529685558978,0.004034975014517986,0.5726412974338884,0.44053309654943895,1.3682758556172123,5.9936728919114355,0.9601950142767608,1.1806305558536647,1.0484305548122155,1.3140483918517525,1.7278426394218913,1.9359904951388975,3.004561101520752,0.9669849567480383,Relax
80.49438709910186,747.6835443037975,82.4719912523216,,,,,,,110.2843643751961,110.99362331046056,0.11030333873285263,0.14750139308988933,744.0,88.95599999999999,0.11956451612903224,113.5,0.747812182801774,676.6,813.2,39.24050632911392,63.29113924050633,543.0,1010.9999999999999,11.285714285714286,156.25,,,0.014478014862463067,0.03386865667335487,0.03890142816595725,0.08724809970177519,0.42747532038532854,0.1659407472707224,0.38818790081528576,-3.3852652741921627,78.48434371129191,85.33912292006461,0.9196760058666946,21041.71232498657,1.0873394473933338,5.030051188743573,371.17037902773933,0.6075949367088608,0.6233766233766234,0.8541666666666666,0.29411764705882354,50.708318198329096,50.89367030006239,50.52268251240248,45.45454545454545,0.402101432929336,0.597898567070664,49.77012090667386,60.689651228473586,0.656423351946155,0.3435766480538451,69.1417211531497,50.021878180911884,0.5398800611261071,0.4601199388738926,60.239698451622594,55.612148236602735,0.6673751153222253,3.019909961304653,1.3068580828814609,1.6834074820133451,-1.2292886147624902,-1.148050320396926,-0.375311051005902,0.004861122571189571,0.7339724051626803,0.4758177812377804,1.2776605201170954,6.015744197516804,1.0872459155111271,1.19801658502721,0.8890985499657734,1.1611686818313505,1.7981068382459076,1.935416295188954,3.22978223064171,1.0373310091937005,Relax
80.25444498400229,750.0506329113924,84.46511929666242,,,,,,,109.1323590639907,109.80717819713054,0.11261255652675484,0.1454999893012331,744.0,88.95599999999999,0.11956451612903224,112.0,0.7739695175757684,680.6,812.8,35.44303797468354,60.75949367088608,543.0,1010.9999999999999,11.285714285714286,156.25,,,0.023299486165153833,0.042070847178227254,0.048101253271854404,0.11347158661523549,0.5538154738469806,0.2053332191798707,0.37076107273341435,-3.168400244234535,77.64540032615061,87.98181554616765,0.8825164591586189,21461.42355616099,1.1331233424851799,5.038628635703589,398.7769956383522,0.5822784810126582,0.5921052631578947,0.8222222222222222,0.2222222222222222,51.92598187311178,51.94162491690562,51.93109196604875,44.73684210526316,0.418319213752866,0.5816807862471342,50.23361010733335,59.23560705232236,0.6666506200829051,0.33334937991709507,71.83598702001524,50.79754753588077,0.557887469413485,0.44211253058651495,61.983161485823636,55.17811150500354,0.6477018694952776,1.9735756428929037,1.1990628864102908,1.1071404242238465,0.006082876861787767,0.15485523233085807,-0.5465766095753506,0.002515948189939906,0.3213263487141196,0.47413937190068633,1.2840155119994725,5.990427741820602,1.0157986307873688,1.1316580106810743,0.8775103105534348,1.1558497493528541,1.7738483413299697,1.9006024474987078,3.473494925948742,0.9575363161788004,Relax
81.10220104783517,742.9,84.00129595142558,,,,,,,122.93350059939013,123.71310688048142,0.11307214423398247,0.16547785785353364,734.0,82.2843,0.11210395095367848,109.25,0.6833067922239116,676.8,810.0,41.25,63.74999999999999,543.0,1010.9999999999999,10.0,156.25,,,0.02009471838201551,0.03289672248000793,0.02413067533123162,0.07712211619325506,0.6108425662838454,0.2605571446154502,0.4265536801087548,-3.4143822468417313,87.47837679684454,79.32692554562169,1.1027576853023866,21800.738790149782,0.9068175296604625,5.045441321320923,287.7401866353604,0.625,0.6363636363636364,0.8571428571428571,0.29411764705882354,50.76036497518809,50.90644649500676,50.613811048509035,46.75324675324675,0.42997020686004417,0.5700297931399557,57.3641650849852,66.04961227782705,0.6424585294261824,0.3575414705738173,63.5833158379625,47.433353914418866,0.5258501799726848,0.4741498200273151,60.55363527009559,57.499888459117024,0.4781107002370664,1.8721833105323764,1.062855903915861,0.8706067505149271,0.613689907097287,0.862213560214874,-0.6026871419691618,0.004110098625598587,0.362400401427471,0.5025177572564887,1.341173925839421,6.012492001110317,1.0575099478338401,1.2076313017405131,1.0144447908340466,1.3722977708980175,1.798702817280167,1.968283918462612,3.694934556642632,1.0273133154191965,Relax
81.1993637963678,741.7215189873418,81.25141998110031,,,,,,,112.70440120635064,113.3803726008558,0.10954437467586395,0.15194975246265444,731.0,71.1648,0.09735266757865937,100.0,0.7209249959310549,680.6,808.2,39.24050632911392,67.08860759493672,543.0,982.0,7.9,156.25,,,0.016811108128525796,0.02729440675512087,0.010960433068972316,0.05506594795261899,0.6159176962280656,0.30529045178684233,0.49566760892968015,-3.6010734785469576,80.17203031952256,78.9255773070223,1.015792763955993,19878.81637201451,0.9844527697810249,5.005360631954371,310.794012745858,0.6075949367088608,0.618421052631579,0.851063829787234,0.35294117647058826,52.335640138408316,52.28841544298468,52.408501169838416,43.42105263157895,0.44811753995345077,0.5518824600465494,53.69375643889595,59.58694400708846,0.6507457490013593,0.34925425099864077,63.66832685217858,46.64323004564445,0.5477964516363927,0.45220354836360727,58.89259429111323,53.50791906435348,0.5825144808102206,2.76142707413198,1.174058475735011,1.5373851469316033,-1.0089280826626865,-1.0626294988955791,-0.3684279318472318,0.004916119875811941,0.644713884455805,0.5520885172826655,1.6259672143853108,5.904922836729926,1.0902270272404238,1.3667359893375448,1.1008578807301945,1.4235659516224501,1.7957819500216066,1.9571502756346795,3.2773485862220486,1.1969203952235006,Relax
80.13339742718914,751.1898734177215,80.87233940447749,,,,,,,102.51503954705053,103.08525967649673,0.10765898511987264,0.13647020969629603,739.0,93.40379999999999,0.12639215155615696,115.0,0.7888826825976117,683.6,823.0,35.44303797468354,62.0253164556962,582.0,982.0,8.777777777777779,117.1875,,,0.022035829991359182,0.03884557504552409,0.028551228413397807,0.08943263345028107,0.5672674420583257,0.24639585284726878,0.43435571051499666,-3.248161107097509,72.892286157627,84.17840971415806,0.8659261490582324,19276.676583131648,1.1548328931833092,4.992002270959086,388.84798573508454,0.5822784810126582,0.5921052631578947,0.8444444444444444,0.21052631578947367,53.33333333333334,53.30119745539287,53.38347532445297,43.42105263157895,0.4536602385181426,0.5463397614818574,49.140535281905585,53.926958778674724,0.6335360581209781,0.366463941879022,67.00178700149202,50.958465446001746,0.5563767954761045,0.4436232045238956,58.75385804007049,52.46371166686664,0.7109466486678464,2.951014996892107,1.4002612033908566,1.7438520343174286,-0.9552039533403676,-0.9908661625651942,-0.38356859206461896,0.006647852177577876,0.787335252297971,0.5712426971208253,1.3040562628829184,6.006188659514735,1.0116151902092687,1.4683696120046188,1.0751206376937126,1.3542942118059382,1.724578724774354,1.8875615978655018,2.6332102151757533,1.1969203952235006,Relax
79.15021943736994,759.8846153846154,80.49134514565304,,,,,,,98.32777150607376,98.915515571518,0.10592574650943863,0.12939829220822582,747.0,93.40379999999999,0.12503855421686746,123.25,0.8186023532596897,695.4,827.2,32.05128205128205,57.692307692307686,582.0,998.0,8.666666666666666,117.1875,,,0.018909512194887505,0.03760977626937145,0.024712634257642353,0.08123192272190131,0.502781831496482,0.23278424985241947,0.4629925651043504,-3.2804912552181587,69.9438318251839,86.46148870677429,0.8089593745302212,18998.61766143792,1.2361560190593255,4.985692112817276,427.5195587268357,0.5769230769230769,0.5866666666666667,0.8636363636363636,0.21052631578947367,52.767607150549225,52.593126630408726,52.96519061271934,44.0,0.44892224328139885,0.5510777567186012,46.890550052334916,51.95247068741116,0.6296434497076585,0.37035655029234127,68.60725665017435,52.617804632355835,0.5581081205364162,0.4418918794635836,58.7608685660509,52.28619595483631,0.6028874354143466,2.0075657714471173,1.2442921312127548,0.9852859192476945,0.6289742594429781,1.0845683605947227,-0.6290150567661653,0.004573647025879861,0.416391448351168,0.6167424460921818,1.2957803535790589,6.035276898293955,0.9595212591091193,1.0206823484802268,0.96955404481032,1.3692473358717883,1.6481578435355517,1.872457291890102,2.996212398306951,0.9669849567480383,Relax
77.93991419335846,772.7763157894736,83.43549982818433,,,,,,,110.35741932466526,111.0410069534009,0.10796850022887418,0.1428064202665468,785.5,85.9908,0.10947269255251431,126.0,0.7560479425739545,697.0,836.0,35.526315789473685,59.210526315789465,582.0,995.0,10.857142857142858,117.1875,,,0.015361987145267823,0.026432424011761844,0.020733180936707892,0.06252759209373757,0.5811796579243764,0.24568333164402148,0.42273215914241447,-3.633163840165022,78.51784900653234,85.7798355103353,0.915341566457912,21159.406178533794,1.0924883525935458,5.032473585375754,374.85388472972625,0.5789473684210527,0.589041095890411,0.8372093023255814,0.15789473684210525,52.63157894736842,52.63066841357714,52.627887796613656,41.0958904109589,0.44601804015077606,0.5539819598492238,52.46594777258556,58.47215784664735,0.6675271581872069,0.33247284181279324,70.08412876753984,49.46104603700851,0.5664853114504528,0.43351468854954733,61.905011028109755,54.15435494176955,0.6189863095399206,1.516662644393284,1.1038679360501025,0.9835758785401588,0.5370505812535473,0.43539604085269734,-0.579313654855701,0.002805832048217981,0.2410212224071769,0.5555306680916758,1.1735135968412274,6.05378425683617,1.001681313328897,1.4441001983960173,1.019263274971954,1.3601300415821185,1.5730362190485367,1.9080597966439656,2.914548720675729,0.986514870543724,Relax
76.97617189833501,781.28,77.78149574983166,,,,,,,102.43785195675235,103.08365132588933,0.09955649159050746,0.13111541567268117,804.0,62.2692,0.07744925373134329,108.0,0.7593042441252066,704.6,838.4,34.66666666666667,61.33333333333333,582.0,982.0,12.5,125.0,,,0.02970951364586417,0.03696405110402875,0.03427273916449913,0.10094630391439205,0.8037407361615215,0.2943100687575392,0.3661753790943775,-3.2978094304221632,72.891148882006,80.62106434605204,0.90412039921891,18461.764020991683,1.1060473813708027,4.9732433054588805,356.68286841311135,0.64,0.6527777777777778,0.9148936170212766,0.21052631578947367,52.54590984974959,52.563366256989084,52.521233821107785,45.83333333333333,0.44396795961469127,0.5560320403853086,48.593223497345946,54.38132737551822,0.578496422712886,0.421503577287114,61.319536886138295,52.34186099442574,0.5179545577884488,0.48204544221155105,55.32353465657039,53.37133678053733,0.6143378277249155,1.6898358395350108,1.1308956998595137,0.8592358302294603,0.6574743579819415,1.096050517266531,-0.6607611007379306,0.002638001005269659,0.26734615762237796,0.5878833992271839,1.054937225165448,6.0154853571625475,0.9810815745683301,0.9473509817278429,1.0017488869692164,1.3284726397312938,1.524204474403871,1.9103014118207382,2.9045192161257782,1.0796619063526194,Relax
76.00698653236441,791.1486486486486,72.31053323912717,,,,,,,100.26499136363941,100.89515822285938,0.09139942710215065,0.12673344198324907,813.0,45.9606,0.05653210332103321,90.5,0.7211942299667939,729.4,841.0,28.37837837837838,54.054054054054056,582.0,982.0,10.571428571428571,281.25,,,0.053701108641332165,0.08391140260916764,0.06378326803186748,0.2013957792823673,0.6399739126213236,0.2666446577613746,0.4166492610131592,-2.4779937676020656,71.34365056827352,70.61909179769881,1.0102600975477047,15828.046904439552,0.9898441029467462,4.906397438535127,279.6075662856284,0.6216216216216216,0.6338028169014085,0.8888888888888888,0.2222222222222222,52.98438934802571,53.29719319378613,52.67549363659704,45.07042253521127,0.4358241332980867,0.5641758667019134,47.12866549257587,53.62122817607884,0.6705929912152102,0.32940700878478957,57.82979236617565,40.53111448278744,0.5519362663424728,0.4480637336575272,52.75128432666877,47.52897722615085,0.6036113288605336,1.7187250741217428,1.1658359855442886,1.0726617287771365,0.3325794335145442,0.17052697201837375,-0.5542112628541034,0.0036142185674466185,0.3101949098959648,0.6123416824403227,1.0240014248769351,5.912156068331652,0.9175941321366059,0.7574853162365338,0.8966124858351682,0.8820690492938705,1.4114541796774427,1.8851253585107703,2.3762580976188192,0.9230268516475466,Relax
75.73790803595195,794.5540540540541,69.54886759207157,,,,,,,103.61506739746311,104.3005860609787,0.08753195234133197,0.13040656814824345,815.0,44.477999999999994,0.054574233128834346,89.75,0.6712234942171585,729.8,841.8,31.08108108108108,54.054054054054056,582.0,982.0,10.571428571428571,281.25,,,0.023233314862904364,0.042799596043486626,0.036725150306085905,0.1027580612124769,0.542839582861906,0.2260972481260027,0.41650840370555664,-3.1512266146752204,73.75165168544912,64.22956207102472,1.1482508880240367,14881.83840773329,0.8708898119999248,4.879626694465788,223.74748494748883,0.6216216216216216,0.6285714285714286,0.8863636363636364,0.15,52.02702702702702,52.136402175396015,51.90632904431717,45.714285714285715,0.4526012652251911,0.5473987347748087,49.63190897889067,54.582697197310914,0.6135845213991465,0.3864154786008536,50.31206682964214,39.92658982639562,0.5220122051697046,0.4779877948302953,49.97314507592686,47.819469928568694,0.6196332372327279,2.250182604227297,1.1809389037932911,1.259656014418351,-0.18117871149158482,-0.06848568262993293,-0.4650174565934435,0.003127415203844778,0.4265028312647497,0.5475661144468984,1.036091931686776,5.8581020142775975,0.9926044481514905,0.7370226695653505,1.0335559883032517,1.0215743580421774,1.390509041775247,1.9201960398106557,2.8855431067754025,1.0908499155834641,Relax
75.31483700514583,798.1917808219179,67.36852577309513,,,,,,,102.9042165208879,103.61871466182647,0.08440142756634764,0.12892166894392834,812.0,41.5128,0.05112413793103448,59.0,0.6546721606827491,751.8,841.0,27.397260273972602,53.42465753424658,582.0,982.0,10.428571428571429,281.25,,,0.025165835055810618,0.03263612980810853,0.03576845666152882,0.09357042152544798,0.7711035347566886,0.2689507500932478,0.34878682040812026,-3.4223353279719513,73.26949579521144,60.68925958093412,1.2072893342437394,13969.630359241371,0.8283018590787203,4.852155024661111,201.0761061479951,0.6027397260273972,0.6142857142857143,0.8837209302325582,0.15,51.02974828375285,51.12228284498633,50.933176607092,42.857142857142854,0.41997408279863807,0.580025917201362,47.4860987812727,55.80574961543698,0.7091845747928287,0.2908154252071712,51.108305189360486,32.72808227124209,0.5376463460533045,0.46235365394669553,49.33045933697355,45.74608758841588,0.46678884108759694,2.329865806664288,1.188770853591275,0.9996526307125849,0.08626360833844515,0.5105169767670663,-0.5811712942169207,0.005263188422464655,0.5114194019027551,0.6134849921824652,1.058120927313373,5.823319250631203,0.9283478267056624,1.2637320336391145,1.035733749464188,1.0179393518981354,1.4386182630978541,1.911994973085401,3.2206967941919515,1.017505406939181,Relax
75.13204962972652,799.1486486486486,62.25041836959756,,,,,,,94.91098930266695,95.56580486429615,0.07789591895683277,0.11876512519061423,813.0,40.0302,0.049237638376383765,54.25,0.6558820936012344,764.2,840.4,24.324324324324326,51.35135135135135,582.0,953.0,10.571428571428571,289.0625,,,0.02507388867703327,0.042422641876775254,0.03107121900299855,0.09856774955680708,0.5910496746021904,0.25438227807547287,0.4303906913521041,-3.1600730527472534,67.57522866909416,54.901539445497704,1.2308439681582697,11655.258737935248,0.812450664641364,4.77349202893467,178.4191688493147,0.581081081081081,0.5915492957746479,0.8809523809523809,0.15,49.44127141792898,49.501348543139684,49.37480989027942,43.66197183098591,0.4182037162917376,0.5817962837082625,43.70092485672738,51.544479174139816,0.6736588702337969,0.326341129766203,45.06138526921101,31.363204413855307,0.5197746949991245,0.48022530500087546,44.386367702897246,42.664293762106304,0.5494712358931368,1.8926046165988295,1.1687908774612754,0.9313312019192378,0.34309722500081286,0.577207008518327,-0.625467133208611,0.0038709957059319196,0.35027369371431466,0.6126116129540806,1.1227098402471702,5.793846777761875,0.9049826182862267,1.296148657354903,1.0521997764356166,1.123969348631178,1.5020071241878563,1.8816116457804064,3.0235196985716266,1.174761447551423,Relax
74.9651362032455,800.8513513513514,64.21916293879727,,,,,,,98.00223648552304,98.65059492083358,0.08018861781332362,0.12237256804293918,816.0,39.2889,0.04814816176470588,54.25,0.6552826266192789,772.2,841.0,22.972972972972975,52.702702702702695,582.0,989.0,10.571428571428571,273.4375,,,0.01941819312716268,0.042606602094634356,0.030969330565618274,0.09299412578741531,0.4557554973295583,0.2088109648081718,0.45816444569878645,-3.1557460589674924,69.75650463660861,56.21660855677413,1.2408522397106239,12319.674272324626,0.8058977273822768,4.797569335354963,181.21934830817332,0.5540540540540541,0.5694444444444444,0.8292682926829268,0.15,47.84946236559139,47.86653244444032,47.82473765230868,47.22222222222222,0.39435820197283217,0.6056417980271678,43.8189139781239,54.30303347368768,0.6737459392325585,0.32625406076744135,46.14373262186472,32.110169998731365,0.504325375834611,0.4956746241653891,44.996340309520534,44.60875733413716,0.5237370021731342,1.7786961198057143,1.0879398973450503,0.9729751415757242,0.15765134147314797,0.07932229156371084,-0.5646342871551795,0.0031661814492895627,0.29957513483362685,0.6066218735165076,1.05999745254033,5.783645595300207,0.8885510806126944,1.2235124572003044,1.0680526657126432,1.1883146686253703,1.4859218325606272,1.9367260092469478,2.9334307778475344,1.0908499155834641,Relax
74.72008991488919,805.082191780822,57.70296387165758,,,,,,,75.58944297247393,76.0323203144187,0.07167338249529535,0.09389034280496497,816.0,37.065,0.045422794117647054,53.0,0.7633733177881764,777.8,841.0,17.80821917808219,49.31506849315068,623.0,973.0,10.428571428571429,234.375,,,0.029489526663117414,0.041286903639942994,0.022711296231053366,0.09348772653411377,0.7142586162501124,0.31543741361981514,0.4416291332625075,-3.1872099324520646,53.76296928367315,57.76005948604092,0.9307983710900823,9755.75198496391,1.0743465298815187,4.696230860917677,248.21727789831263,0.547945205479452,0.5633802816901409,0.85,0.09090909090909091,54.08450704225351,53.97275929032299,54.212529415153476,43.66197183098591,0.47342309384502823,0.5265769061549718,37.034624073719044,39.05837090852829,0.6346161368577061,0.3653838631422938,46.013279452822324,34.91421753136485,0.5596971962182599,0.4403028037817401,41.76592670039305,37.04429054426359,0.5848048894703509,2.117494341689726,1.1120761377718889,1.3151359189715803,-0.50043241114777,-0.8511024959286881,-0.4041037431827783,0.0025320527156548127,0.3731602307225283,0.6575493530096481,1.219973145672377,5.747842880708916,0.9752368263098534,0.6807452969842629,1.243758494772219,1.4439030744653194,1.6356881425829743,1.898698624783208,2.4136807382413656,1.1022975241841126,Relax
74.05392107591109,811.7671232876712,51.78173223250144,,,,,,,76.3120421544187,76.8377148853022,0.06378890047035227,0.09400730821094797,818.0,34.099799999999995,0.041686797066014664,46.0,0.6785525687770252,784.8,843.6,20.54794520547945,47.94520547945205,623.0,971.0,8.11111111111111,234.375,,,0.023336409127864388,0.045086595892432746,0.020773089699125686,0.08919609471942282,0.5175908419331593,0.26163039089628204,0.5054772412879525,-3.0991702852422405,54.332469246275714,48.78499907333492,1.1137126222878817,8327.13521282562,0.8978976981923006,4.6274657265844565,175.21575349704378,0.5342465753424658,0.5492957746478874,0.8461538461538461,0.08695652173913043,51.35384615384615,51.33625102558814,51.37006256331213,47.88732394366197,0.4616498208893997,0.5383501791106002,36.92083270084714,39.870123658742024,0.6353585200258832,0.3646414799741168,38.88622011159006,29.459090617638854,0.5391750185178924,0.4608249814821078,37.91626301398237,35.0532793086584,0.4507410654600616,2.4930746803364454,1.140030951786537,1.2439007896034011,-0.2484295504938281,-0.33277283024195287,-0.4583366520721927,0.00485819350723129,0.5873440065650705,0.5856411354364899,1.1977031913123406,5.686332949261339,0.9962951921452385,0.769012345885715,1.2655239314782694,1.5798029286244915,1.5930566890761,1.96581834501612,3.0088455408338,1.1022975241841126,Relax
74.48719597947553,804.8918918918919,57.137317788315436,,,,,,,79.99914383103503,80.49968329536763,0.07098756785090062,0.09939116623848414,816.0,37.8063,0.04633125,57.25,0.7142241160604705,774.2,841.8,21.62162162162162,51.35135135135135,623.0,971.0,8.222222222222221,234.375,,,0.016813904856488728,0.07056892160751226,0.03193385227225208,0.11931667873625307,0.23826217651452453,0.14091831112442796,0.591442222118027,-2.651165435260703,56.92187194152388,53.98086679753382,1.0544823623344342,9653.14657354852,0.9483325996901266,4.691639010537067,204.76726297452677,0.5135135135135135,0.5277777777777778,0.8157894736842105,0.08695652173913043,46.9364161849711,46.81553502275667,47.0411427625327,47.22222222222222,0.36163017187867885,0.6383698281213213,34.25293985760768,45.509461775669365,0.6798750523304591,0.32012494766954086,44.50967330013643,30.542150594354226,0.5122144595714356,0.4877855404285645,39.713819422046065,38.75521948098942,0.4895637934234238,2.1087307325383335,1.084076508891677,1.1879743672559906,-0.007745719363038361,-0.29575392135753775,-0.45072967033621725,0.00408246318567388,0.4454408951387428,0.6589926640472696,1.3485540331370436,5.783645595300207,1.0140701337753544,0.8351856206328682,1.204412871408802,1.6310580937176482,1.6161158074194186,1.9438554935258134,2.837467328094694,1.174761447551423,Relax
75.07075347565168,801.3243243243244,59.915490280599435,,,,,,,90.23690281773298,90.85926696102091,0.07477058721650574,0.11260971379325171,809.5,45.2193,0.05586077825818406,62.25,0.6639799063319036,761.8,842.2,28.37837837837838,56.75675675675676,623.0,971.0,10.571428571428571,234.375,,,0.02488321457411445,0.08012162030562851,0.023938442054839772,0.12894327693458274,0.3105680399272506,0.19297799129720072,0.6213710571841361,-2.524209544903883,64.2472038017767,55.70144581111886,1.1534207571493948,11242.698692098655,0.8669863046954657,4.757840681551517,193.16956267990665,0.5675675675675675,0.5833333333333334,0.8333333333333334,0.15,50.54360956752839,50.61286742227479,50.47318078359425,47.22222222222222,0.4344122055728553,0.5655877944271444,42.34629066793612,48.31860407751863,0.6714089632788955,0.3285910367211044,45.64151328855432,31.929662230905755,0.5361082810009032,0.46389171899909676,44.02474343254379,40.9523554278611,0.4937660568641426,2.2976797785274328,1.0832969374964085,1.3735067258438265,-0.33770439116120343,-0.8026391840198339,-0.3736944150966887,0.005606598374517103,0.5551913204165266,0.544837987101396,1.3862943611198906,5.901954885869983,1.051612526453634,0.9158904115324116,1.0234626227589134,1.3126316756779222,1.7160291470440043,1.9641160381156952,3.532628124597901,1.174761447551423,Relax
75.34162798095537,797.3835616438356,59.81560325445246,,,,,,,88.97596429498375,89.60036032092762,0.07501484371102458,0.11158489913129953,801.0,53.373599999999996,0.06663370786516853,68.0,0.6722669850044516,760.8,840.6,30.136986301369863,57.534246575342465,623.0,971.0,12.166666666666666,203.125,,,0.03122551774018348,0.07611338109151024,0.030663385757768325,0.13800228458946204,0.41025004135135457,0.22626812181461442,0.5515371090988613,-2.575531193940886,63.357022379685986,56.04419226555027,1.1304832814698416,11155.145654413263,0.8845774337324223,4.754445355266987,198.3017110794677,0.5753424657534246,0.5915492957746479,0.8571428571428571,0.15,50.02434274586173,50.152300045365614,49.89987411570436,49.29577464788733,0.41077431035571677,0.5892256896442832,40.60658033123675,48.633510153588084,0.6570077734176307,0.34299222658236894,45.42718946499143,32.82258283575102,0.5188666131340873,0.48113338686591245,43.08435858223615,41.4881926207258,0.529835519272207,1.4693276493276812,1.01128064327506,0.8718439001652065,0.6432363177791789,0.4618405802636616,-0.5948983320184953,0.0024614546150012744,0.23216626852394265,0.5808252385772246,1.791759469228055,5.932908291727092,1.1214648281185648,0.7945134575869863,1.0184833912404931,1.291583648407701,1.83971424768768,1.97956583882262,3.0395356079549467,1.1022975241841126,Relax
75.87757285549718,792.2266666666667,60.73837856438572,,,,,,,90.404272202327,91.02092492678787,0.07666792992458267,0.11411414940462367,794.0,45.9606,0.057884886649874054,60.0,0.6718529676169698,750.2,838.2,30.666666666666664,58.666666666666664,623.0,971.0,10.714285714285714,171.875,,,0.013040745781378555,0.08585593324101591,0.027261926680768888,0.12615860570316334,0.15189102592095063,0.10336786546343044,0.6805396489798328,-2.455084582308459,64.36151324560335,54.62499888802942,1.1782428293963334,11045.046798964317,0.8487214817274507,4.750137670322156,185.4456399824347,0.56,0.5753424657534246,0.8333333333333334,0.1,49.75688816855753,49.902276309149116,49.61061250553115,50.68493150684932,0.4230163178719471,0.5769836821280527,41.86074435325081,48.88888715926384,0.6002698746647085,0.3997301253352916,42.32185698382684,34.536226269784066,0.49723471375257516,0.5027652862474248,42.09193210324107,42.32537189812368,0.46559244683683354,2.063206255907028,1.0001247714540158,1.1952268151325098,-0.20457071250201864,-0.5931095185143913,-0.40543745051183777,0.0038821094312394815,0.4180027221812708,0.608933859911494,1.6094379124341003,5.915355023771522,1.1086047449320602,1.0514790844698014,1.051759152575562,1.3073383195182608,1.8164487759570545,1.9462589435748143,2.6732664002162583,1.245763738099176,Relax
76.1278975188417,788.9594594594595,55.30523995813689,,,,,,,80.54012868606011,81.09746424050809,0.07009896300125258,0.10208398887978433,793.5,39.2889,0.049513421550094514,53.5,0.6866793095614847,755.0,821.4,24.324324324324326,54.054054054054056,623.0,971.0,6.7272727272727275,171.875,,,0.013555059391467957,0.07813412141738792,0.010041667106414541,0.10173084791527043,0.17348450517613964,0.13324433708404448,0.7680474803715807,-2.5493284235982405,57.344566901496805,53.726329253904304,1.067345707362458,9678.973905615532,0.93690356657837,4.692799428969635,201.34555798858705,0.527027027027027,0.5416666666666666,0.8205128205128205,0.09523809523809523,50.08337965536409,50.20375104316385,49.96588311427578,48.61111111111111,0.40613688678647597,0.5938631132135241,36.545063506124414,44.19118816134175,0.6302811738921497,0.3697188261078505,42.653466920534264,32.668030469525156,0.5109150040992542,0.4890849959007459,39.71687240334879,38.85911299726832,0.5702242549086176,1.6134668563289218,1.0460696082670193,0.9528579897262668,0.45703328188468273,0.34563632194972116,-0.5577710153605724,0.0020741645364941853,0.2458012549929071,0.6176309003176539,1.491654876777717,5.863377143001425,1.1088048451122856,1.2050241542236262,1.0416587941569135,1.1330483074191378,1.7199441084408775,1.9490644351852748,3.13130124104636,1.174761447551423,Relax
76.39113738153483,787.48,56.40547222829801,,,,,,,78.97211276516917,79.42500694988489,0.07162781559950476,0.10028459486611618,791.0,41.5128,0.05248141592920354,49.5,0.7142454501125588,751.8,821.2,25.333333333333336,56.00000000000001,622.0,971.0,6.818181818181818,171.875,,,0.025126106258162837,0.08540054367993863,0.020969518079080023,0.13149616801718148,0.2942148278625677,0.19107861952965674,0.6494527176547081,-2.4604028119322496,56.161961010052266,52.520812679657325,1.0693277225659772,9266.667363978908,0.9351670015627976,4.673893683840656,196.462923653106,0.52,0.5342465753424658,0.8205128205128205,0.043478260869565216,53.732162458836456,53.96603075509786,53.519218048457105,50.68493150684932,0.48327656291981924,0.5167234370801806,39.085084567088224,40.41497077833533,0.593525961921218,0.4064740380787819,40.4623682023376,33.484810347232276,0.5346522672173503,0.4653477327826496,39.77968750604999,37.11200875056356,0.6100233646753508,2.0444941388962516,1.0784091553029405,1.1816136920919023,-0.43712338382987426,-0.45414956193940004,-0.4495207470515527,0.0015828275096314902,0.3009913367438015,0.6130596037460179,1.5284688499004333,5.823958317474543,1.1052276583949134,1.21499148765342,1.0182463082808817,1.287969204527944,1.7324743462140177,1.950651287179324,2.1978581561685715,1.3288146539724546,Relax
76.21411659051536,788.4933333333333,53.363965302372286,,,,,,,78.25020507701302,78.77874880001187,0.06767839757982179,0.09924016065705019,791.0,41.5128,0.05248141592920354,49.5,0.6819658204071419,754.4,821.2,22.666666666666664,56.00000000000001,626.0,971.0,6.818181818181818,164.0625,,,0.007626645734343286,0.07716517955357236,0.01837360799382621,0.10316543328174185,0.09883532674278876,0.07392636750252514,0.7479751414685232,-2.5618069657536413,55.70498748987998,50.499996334324145,1.1030691392747305,8837.619521557175,0.9065614877572419,4.6533054102832105,183.12540723432065,0.5333333333333333,0.547945205479452,0.825,0.047619047619047616,50.965034965034974,50.99205592752043,50.94010028962872,53.42465753424658,0.4371354354029604,0.5628645645970396,36.832646329261195,41.79524453515525,0.5757677355983606,0.4242322644016392,38.31907429128946,32.892220588239276,0.49966877204147514,0.5003312279585248,37.58320961651492,37.608115088228075,0.5835173504558421,2.2367556817858016,1.0736068011942372,1.1805128087216907,-0.6089572326268904,-0.4504035629003946,-0.4522048794161995,0.0015606157127128822,0.34122105324535823,0.5995133948814697,1.8505999692509882,5.761891357047161,1.129918028792455,1.1247719539498815,1.4358257592401933,1.7737603374056286,1.8085488066851114,1.9470156148092013,3.2185210424769077,1.245763738099176,Relax
76.78783860322724,782.68,54.146238420920206,,,,,,,74.0562240755247,74.52150210639881,0.06918055708708566,0.09461877660796839,780.0,42.9954,0.055122307692307686,57.0,0.7311504076375849,744.6,820.2,21.333333333333336,57.333333333333336,626.0,971.0,9.375,179.6875,,,0.024886641017108937,0.10703739133670216,0.020002731833899237,0.15192676418771034,0.23250418107467022,0.1638068259412193,0.7045328182232201,-2.234577053819391,52.69465948364218,53.87844038567919,0.9780286716994194,8919.314771121475,1.0224649122631582,4.657301600823144,220.35525928727708,0.49333333333333335,0.5068493150684932,0.7837837837837838,0.047619047619047616,52.65957446808511,52.91214525079212,52.41317597257583,53.42465753424658,0.44486004336684415,0.5551399566331559,35.165168008924546,39.2827823136469,0.5730498132281088,0.4269501867718912,40.786008312148475,35.20494090826659,0.510344068617662,0.4896559313823379,38.0794400899917,37.29963036449498,0.500513372179798,2.4417417831489288,1.0617996436873496,1.3579845691224002,-1.153180175909501,-1.4306505562655554,-0.3786993254245404,0.0025985249307076803,0.44540608042528357,0.6433923814419269,2.6210388241125804,5.978753523800369,1.1356293931787271,0.8989379243920602,1.207880353071019,1.5956224269109245,1.8615360540590686,1.9513047224640174,2.22663185446261,1.245763738099176,Relax
77.13193919391536,778.3026315789474,51.69629767190738,,,,,,,70.48044646093932,70.9498668328814,0.06642184617445117,0.0905566081897413,775.0,37.065,0.0478258064516129,49.0,0.7334842536866985,743.0,809.0,19.736842105263158,56.57894736842105,626.0,971.0,8.444444444444445,125.0,,,0.031603192870889536,0.08259273140750964,0.023325518443942286,0.13752144272234146,0.38263891183063664,0.2298055651924552,0.6005807514270048,-2.4938335998149874,50.16913196181295,53.373605853472185,0.939961450225856,8412.266132992621,1.0638734171063269,4.631883113664836,227.13104177047882,0.5,0.5135135135135135,0.7631578947368421,0.047619047619047616,49.00744416873447,49.07623067957192,48.944278039492644,52.702702702702695,0.3872858745658442,0.612714125434156,31.223691628616223,39.27329744103354,0.553957203718681,0.446042796281319,39.725068189276186,35.646328831440115,0.47576871601312204,0.5242312839868779,35.72813990093496,37.5036841593666,0.5434092063397584,2.3572831634720948,1.082234100967305,1.305065476317073,-0.9956604445779114,-1.1503031769252163,-0.40547110385264246,0.0021234270244676837,0.39966449767562545,0.721357246823533,2.740840023925201,5.843257941046697,1.1540252705086425,1.071619913006523,1.2178402023205288,1.5297531981677754,1.7753642897327087,1.9752913697630212,2.905180740839871,0.986514870543724,Relax
77.95334443733957,770.7763157894736,54.470444263339864,,,,,,,78.30053213952849,78.78953147639774,0.07066958746332012,0.10158658294959226,766.0,38.547599999999996,0.05032323759791122,51.25,0.6956586727440838,735.0,798.0,21.052631578947366,57.89473684210527,626.0,972.0,7.6,132.8125,,,0.040399783804278284,0.1129449691315793,0.021978120391900953,0.17532287332775853,0.3576944074172361,0.2304307648937092,0.6442112599902099,-2.180854577727825,55.71261199347176,51.51959655149512,1.081386806625817,9017.286038914795,0.9247384875354979,4.662045956186895,190.5686151738746,0.5394736842105263,0.5540540540540541,0.8292682926829268,0.045454545454545456,52.61802575107295,52.78473208214456,52.462242498049314,52.702702702702695,0.5012428695389314,0.49875713046106873,39.46286314457641,39.3648903795577,0.45474870850007704,0.545251291499923,34.742269959257435,38.04265378370582,0.47982226106282944,0.5201777389371707,37.177566417730254,38.70941811433944,0.5803057715024196,2.4811434333134423,1.1049095174695398,1.3317020753528026,-1.1592972738839045,-1.096184060894811,-0.40859353198279524,0.0017895322648610321,0.40835020605268796,0.704572639376539,2.5336968139574325,5.92220530946775,1.1348944403412813,1.0626806043060124,1.0450997811997165,1.3722757065447864,1.753079499961537,1.9912353529692743,2.2264929249436567,1.1509340156343446,Relax
78.92223582271998,759.7564102564103,53.459096123811875,,,,,,,74.10522529204277,74.51838988210902,0.07036346834608471,0.09753813760785907,759.0,44.477999999999994,0.05860079051383398,57.0,0.7213944214208087,726.8,794.0,21.794871794871796,58.97435897435898,589.0,905.0,8.666666666666666,187.5,,,0.045105222791585464,0.09971270153133868,0.018129511392425714,0.16294743571534986,0.45235182779005695,0.27680842348681706,0.6119317011255404,-2.305462212622813,52.6924588087423,50.37705742937603,1.0459614256472254,8339.329498457208,0.9560582020328473,4.628101243713893,192.65359579853896,0.5512820512820513,0.5657894736842105,0.813953488372093,0.09090909090909091,46.47847959754052,46.42035202135737,46.51825934063652,53.94736842105263,0.34337073018455627,0.6566292698154438,30.90679962658532,42.739803339202254,0.5331737729595089,0.46682622704049115,36.78469720097405,34.4199646582518,0.433918131645415,0.5660818683545851,33.97310856637381,38.80350987055802,0.5418561134597281,2.0054114740480937,1.037987968027208,1.0501377472817532,-0.3400997638783725,-0.2727116075365019,-0.49394150307217516,0.0016479006282213067,0.2891032351622086,0.6751690747139332,2.3826278006675823,5.9936728919114355,1.1352610133971144,0.9422305404468683,1.1184129177445217,1.3903938015172204,1.8766203950680236,2.0209153382442575,2.5692725045442075,1.208731195935048,Relax
79.21412060272614,758.0,45.418115271389176,,,,,,,62.24438638434503,62.649664959044436,0.05991835787782213,0.08211660472868737,756.5,35.5824,0.047035558493060146,49.5,0.7296740784131531,729.2,792.0,15.384615384615385,53.84615384615385,597.0,905.0,7.090909090909091,156.25,,,0.02709759552466869,0.05068233637055008,0.007836571925717992,0.08561650382093676,0.534655611109796,0.31649967372344645,0.5919692361714514,-2.9821778241468415,44.30000293160554,46.54898969428274,0.9516855945220778,6478.342236374469,1.050767192186181,4.518433997051036,195.6486048006598,0.5641025641025641,0.5789473684210527,0.8409090909090909,0.09090909090909091,50.78337874659401,50.858777695235545,50.70876694116082,52.63157894736842,0.4024154783693007,0.5975845216306992,28.10354444774388,34.247070562389176,0.5830986071012558,0.41690139289874395,35.5452244911742,30.055705904710855,0.4972230029336969,0.5027769970663031,32.041162546436155,32.21961591589613,0.6659327279049971,1.752535638826977,1.0992516096986886,0.9100903580493105,0.06887493209118567,0.48309221293850957,-0.6079357517522378,0.0011367542015890701,0.2062138302333737,0.6508567844888193,2.3191143949452564,5.778866641883698,1.1952987462875788,1.3499763184562645,1.1457931160438242,1.445956585346662,1.8506131567054034,1.9749347453191997,2.8506625623956374,1.0475670364770413,Relax
79.43083617966604,756.1923076923077,48.195235441698166,,,,,,,64.45304341297472,64.86905154429967,0.06373409905315865,0.08523366709411234,757.0,35.5824,0.04700449141347424,45.0,0.747757326723787,726.8,789.8,8.974358974358974,48.717948717948715,597.0,976.0,6.5,156.25,,,0.03298463280143925,0.051497482562050154,0.0014206538883235376,0.08590276925181294,0.6405096164010644,0.38397636174858385,0.5994857093732554,-2.966222354797513,45.86934623611398,50.512361189574186,0.9080816092513503,7278.9727406406,1.1012226101841551,4.569040202935475,222.5014169429908,0.5384615384615384,0.5526315789473684,0.8095238095238095,0.041666666666666664,51.34215500945181,51.49184882140595,51.18537917975357,52.63157894736842,0.45067886317382216,0.5493211368261779,30.796445454493263,34.00009674908835,0.4748552237475725,0.5251447762524273,34.80793665587202,36.60472891180595,0.46392777379844674,0.5360722262015531,32.86345620039665,35.32642606926273,0.6294226882929373,2.0903169954343075,1.1384569423296373,0.6660124915661745,0.268786979988171,1.4880103949375032,-0.7260156960859914,0.00211711094284367,0.311985999625527,0.7207975269164559,2.2587824703356527,5.759510552084635,1.0807159287392136,1.4730056137242924,1.1050762446217939,1.5906054242155003,1.6423105269747365,1.9291052148950285,2.0667724578676774,0.9669849567480383,Relax
79.1397128731943,758.4102564102565,37.69268622343856,,,,,,,39.81744054341729,40.06748835019606,0.04969959979424247,0.05250118943786849,757.0,33.3585,0.0440667107001321,40.5,0.9466375967168988,733.2,789.8,6.41025641025641,46.15384615384615,597.0,867.0,6.0,156.25,,,0.03575275836094914,0.04731747198905182,0.0016653484105675499,0.08473557876056852,0.7555931637518909,0.42193325264200116,0.5584132743431603,-3.0508756650299915,28.33199271753662,43.602169438774496,0.6497840149288896,3880.923592473277,1.538972915653268,4.295905202407066,268.4102313199944,0.5512820512820513,0.5657894736842105,0.813953488372093,0.08695652173913043,51.80904522613067,51.67384948445516,51.96673756779722,52.63157894736842,0.4685938498337129,0.5314061501662872,19.399708353749194,20.659042877916175,0.5380555232516826,0.4619444767483174,31.983180215534595,29.634867353646737,0.5174261911087374,0.48257380889126256,26.45063799712485,25.544289143562168,0.8275994316095496,1.9962527645835904,1.2259913479029068,0.9972128249265304,0.04641843332841411,1.0839024069594094,-0.614603985544936,0.0006413587047514693,0.2270978634063706,0.6825216457163301,2.501435951739211,5.769188596984166,1.229978039192876,0.9000120601018302,1.0372104567584381,1.30740016719378,1.8280427402081982,1.8777360452107188,2.133308457150197,0.8864028770190351,Relax
79.26320492907838,756.6666666666666,42.346948759787516,,,,,,,50.87953687610838,51.20794458398761,0.05596513051954297,0.06724167869089213,755.5,35.5824,0.04709781601588352,44.0,0.8322982353967232,728.4,787.2,7.6923076923076925,46.15384615384615,597.0,938.0,6.0,156.25,,,0.01913546483825647,0.042240916937885516,0.007648592574169905,0.0690249743503119,0.45300779967430194,0.27722523649398506,0.6119657027832658,-3.1643659320099524,36.20948486596258,46.87222855785176,0.7725146847086914,5331.9715292144765,1.2944737747957389,4.433857931735484,242.69948253748402,0.5512820512820513,0.5657894736842105,0.7906976744186046,0.08695652173913043,48.74100719424461,48.77845640321099,48.69984727337569,51.31578947368421,0.3213633536010274,0.6786366463989725,20.528862864910852,29.83220619256627,0.5747214402717709,0.42527855972822937,35.53401670789362,30.5669669182703,0.4800194651231806,0.5199805348768193,29.018102573421118,30.201821078359004,1.0104354819518262,1.6313120334298348,1.3370023561104047,1.1624754815975151,0.10628484808052718,0.7202704485272915,-0.6069855864092087,0.0004171303754717121,0.1479548520887997,0.6409882604887565,1.6226831391841212,5.769188596984167,1.1045159065510262,0.949092474259027,0.9880365135115274,1.4935666876197098,1.7318336163803167,1.8778010958757985,2.158926296414976,1.0475670364770413,Relax
79.24960100169888,757.4615384615385,42.451712004910384,,,,,,,49.46532302348972,49.78198539351111,0.05604470966424647,0.06530407223574351,754.5,35.5824,0.04716023856858847,44.75,0.8582115593332169,729.4,787.2,10.256410256410255,46.15384615384615,597.0,913.0,6.0,156.25,,,0.023083706131553597,0.032824635821632246,0.008537153392308367,0.06444549534549421,0.7032433278769498,0.358189598944056,0.5093394913897147,-3.4165759533976328,35.201179452681366,46.98526186514112,0.7491961958989848,5195.995180592925,1.3347638515436768,4.422638849544677,250.85691637161602,0.5641025641025641,0.5789473684210527,0.7954545454545454,0.14285714285714285,51.473823141223065,51.416651100517505,51.542275956403095,51.31578947368421,0.4028980122608213,0.5971019877391789,22.34714158101893,27.204996638582095,0.5925965628873843,0.40740343711261584,36.169392612262286,29.989829452597945,0.5243852719432598,0.4756147280567403,30.063430432853792,28.631291559246627,0.8841179912334647,1.4982953053032562,1.2878046076335232,0.9008372183101758,0.6208308293923608,1.2969831191002985,-0.7582717759000285,0.001327821322450885,0.17616110623003067,0.6014604459321209,1.5686159179138455,5.727584590601647,1.107339991723371,1.0711526207508943,0.899961934066053,1.373848871497975,1.7568998775989175,1.913474515927416,2.2247543333872146,0.9669849567480383,Relax
79.40557578614973,755.3076923076923,44.05171332142992,,,,,,,55.94222437061711,56.29264844817338,0.058322871288174864,0.07406547681210128,754.5,36.323699999999995,0.04814274353876739,44.75,0.7874501562466916,728.4,784.8,11.538461538461538,46.15384615384615,597.0,913.0,5.571428571428571,156.25,,,0.025212693809823133,0.037715559385104104,0.010448656796163528,0.07337690999109076,0.6684958203160306,0.34360528145549324,0.5139976511641527,-3.2776825538866508,39.804913448653785,46.77726961716168,0.8509456360841149,5849.536094522596,1.1751632038467277,4.474091535090512,219.88370412202366,0.5512820512820513,0.5714285714285714,0.75,0.14285714285714285,47.89814066289409,47.89662224544481,47.894781416080725,50.649350649350644,0.2885249031015795,0.7114750968984206,21.38725026000796,33.58482975204257,0.6249770529845708,0.37502294701542915,36.979999795311095,28.6459869436441,0.4836226924636865,0.5163773075363134,30.207075814661533,31.213245245000657,0.9089597463211783,1.7226846321739484,1.338447188423696,1.2115674979218036,0.138507386404914,0.36384285283305307,-0.5736523029997522,0.0011125009227367472,0.21128595000916106,0.6890538117043419,1.6341305250244722,5.7532256162426725,1.0570769379212563,1.443278139943832,0.9582521233289213,1.3132395617718897,1.6637527017885014,1.8877342720343215,2.6748162123036963,1.0475670364770413,Relax
79.42456036522833,756.0769230769231,44.308472770349006,,,,,,,51.75002352719209,52.03441142800523,0.05860312809182389,0.06844544774173336,753.5,33.3585,0.044271400132714,44.75,0.856201983117304,729.4,782.2,10.256410256410255,42.30769230769231,597.0,939.0,5.2,156.25,,,0.04944888187443489,0.05531308467635812,0.014862539893836754,0.11962450644462976,0.8939816349741618,0.4133674891885397,0.46238924046855506,-2.8947457858498216,36.79388517579327,46.67294147021254,0.7883343971212046,5394.990617036541,1.268497231189891,4.438960803656754,236.8179881058098,0.5512820512820513,0.5714285714285714,0.7727272727272727,0.13636363636363635,54.01491882404563,53.66343075325752,54.413753810465984,49.35064935064935,0.4655668223324652,0.5344331776675348,25.13188894821205,26.926557033609228,0.6350889945578527,0.36491100544214705,37.194820379650324,28.19412709071581,0.5700305740885756,0.42996942591142434,31.74166430088153,27.56762844435159,0.9741357282033561,2.74896889217117,1.5440917513922958,1.607538130090081,-1.1196254889254202,-0.4586320146236882,-0.47691993573354896,0.0015857193194535994,0.4580304910293106,0.667298278416212,1.3758230612525957,5.640983468779037,0.9948946840760905,1.452126662493369,0.9120774846963176,1.3398328930580383,1.6069454657023878,1.845280447918736,2.3843487241523644,0.9669849567480383,Relax
79.55368299367262,756.1025641025641,46.794546730677965,,,,,,,63.499258611072335,63.88715059334257,0.061889152282163615,0.08398233470672209,753.0,36.323699999999995,0.04823864541832669,45.75,0.7369305997301585,728.4,786.0,14.102564102564102,43.58974358974359,597.0,913.0,6.0,156.25,,,0.03798375793658213,0.03540342406726142,0.011206308431450096,0.08459349043529366,1.0728837375847728,0.4490151398308391,0.41851239244397687,-3.340946738456094,45.17503741523869,46.046159490534606,0.9810815476266813,6534.943047957635,1.0192832618441188,4.522211917017526,187.73631856362658,0.5769230769230769,0.5974025974025974,0.8260869565217391,0.13043478260869565,52.677916360968446,52.52258499750157,52.84739585643749,48.05194805194805,0.4541478246305674,0.5458521753694328,30.45726082303045,33.391024637105545,0.6153325030177752,0.38466749698222474,36.12004988202223,28.558550389471403,0.5362433331558765,0.4637566668441235,33.408851673784596,31.068885775513152,0.8371817092126759,1.9221990564546156,1.3456869447131046,1.1489948581463791,0.016030760432848012,0.45759651701984394,-0.6023265961484304,0.001775015902534852,0.26910744501999545,0.6809310441898906,1.3676022281077382,5.708228500802584,1.0221996459697051,0.8696380954113894,1.1144245555855539,1.3264166874077676,1.6204137606136413,1.879791768560036,2.891785129993159,0.9669849567480383,Relax
79.3016109727634,756.8461538461538,40.38486180411,,,,,,,47.994182547904266,48.30048066002101,0.053359406794738294,0.06341339293858679,754.0,36.323699999999995,0.04817466843501326,45.0,0.8414532691290408,730.4,786.6,12.82051282051282,42.30769230769231,597.0,913.0,5.571428571428571,156.25,,,0.05258755711536561,0.04990236475343704,0.014477475012569702,0.11696739688137235,1.0538089201823573,0.4495915829322901,0.4266348237539023,-2.9976868874990896,34.153597409270546,45.46170449432944,0.751260820269742,4877.890446487868,1.3310956368534537,4.395202152142849,242.05550598529183,0.5641025641025641,0.5844155844155845,0.8222222222222222,0.13636363636363635,51.55195681511471,51.57428569238627,51.52757925876625,45.45454545454545,0.3549065486426297,0.6450934513573703,20.350223068737318,27.436169941386343,0.6126843214458653,0.387315678554135,35.58476467416117,28.29295139454886,0.5196639814935315,0.4803360185064685,28.986264470114094,27.867853520382006,0.9097565027996939,1.743998192295149,1.327196348967966,1.1012790876654388,0.27486754183870765,0.8694651838222276,-0.6295398483212955,0.000957922320991738,0.20356024949464502,0.6801112099745277,1.409824858530085,5.708228500802584,1.1166152151006508,0.7976755586152144,1.3255143466270796,1.5668329799065144,1.6972649586347184,1.8582029706799486,2.500666691581765,0.9669849567480383,Relax
79.30094812223925,757.9615384615385,44.31042863609069,,,,,,,57.42618073462864,57.74709160815178,0.05845999617082042,0.07576397722130941,754.0,34.8411,0.04620835543766578,45.5,0.771606749208223,730.4,786.0,14.102564102564102,41.02564102564102,597.0,913.0,5.571428571428571,156.25,,,0.05540347228172071,0.06743350684650758,0.014553554045161454,0.13739053317338973,0.8216015282703645,0.40325538450164083,0.49081625414034225,-2.6966132503729727,40.83336006992489,45.3150700180971,0.9010989071321662,5813.098024779612,1.109756090130656,4.471377756376279,201.15469970912145,0.5384615384615384,0.5584415584415584,0.7906976744186046,0.14285714285714285,53.84615384615387,53.89720799700295,53.79454359912661,42.857142857142854,0.40509908320468785,0.5949009167953121,26.014419078657127,31.525052694141863,0.6719060639683746,0.3280939360316253,37.14470689173943,25.956238569403872,0.5522180957428432,0.44778190425715675,32.06617571580087,28.87520794765148,0.9044162539727684,2.7209449159952683,1.4992351529886858,1.5749823737348656,-1.0709816990858503,-0.5567937544178143,-0.4721614280756312,0.0018892371925671835,0.47174110325412083,0.6661079652195516,1.4087672169719492,5.701943564960621,1.0031311172709607,1.3761722250208779,1.3766196153779524,1.6873944017706866,1.6970724277366944,1.8832395352319664,2.1995848042381776,0.8864028770190351,Relax
78.68158648201302,763.0519480519481,43.97244834280238,,,,,,,55.15468677895117,55.4598179180997,0.057627070417765006,0.07228169316618568,758.0,34.099799999999995,0.044986543535620045,46.0,0.7972567865181623,735.2,788.6,15.584415584415584,36.36363636363637,597.0,913.0,5.923076923076923,156.25,,,0.054209718103888756,0.04932986606098136,0.008739047316875227,0.11227863148174533,1.098922872340155,0.48281420416762355,0.4393522205425312,-3.0092255789037408,39.21601333325949,45.73803649541746,0.8574048284120938,5634.959914520993,1.1663102036082433,4.457860940909265,213.3789546304464,0.5454545454545454,0.5599999999999999,0.8095238095238095,0.19047619047619047,54.17549809241204,54.16795248651587,54.18565191411842,40.0,0.3599558813988192,0.6400441186011807,23.55419283269966,31.40859754907882,0.710845681057765,0.2891543189422349,38.56249998690533,24.594746943525696,0.5619916876761023,0.4380083123238978,31.952045358944343,28.20816882762923,0.8203650453179565,1.9294122898224972,1.3608053809268184,1.144892228970699,0.07780454712480989,0.456441017117418,-0.6119061763496816,0.002183803201455639,0.29080304763101966,0.7259840582877168,1.4566751578816903,5.727698553625721,0.9798481931691984,1.000668155894422,1.3181464021195075,1.7589058255448076,1.6454427751492489,1.877408177374914,2.227013047662337,0.9766420582901144,Relax
78.36353370774702,767.974025974026,46.41261569250724,,,,,,,68.62982319355739,69.0198039212901,0.06043513728689176,0.08936477129745864,767.0,32.6172,0.042525684485006515,45.0,0.6762747379023442,736.4,789.8,19.480519480519483,37.66233766233766,640.0,930.0,6.416666666666667,117.1875,,,0.05786330273281361,0.06472587634293095,0.016578030515384718,0.13916720959112927,0.893974805783115,0.4157825891804178,0.4650943029833996,-2.737594213954835,48.8043713889101,39.62830815234917,1.2315532422248254,6075.949106603368,0.8119827594245785,4.490584237428068,128.71001201948798,0.5714285714285714,0.5866666666666667,0.8409090909090909,0.19047619047619047,54.059829059829056,53.94771803800724,54.18696264151849,40.0,0.4553251164921613,0.5446748835078389,32.963616306467344,36.053108973660876,0.7341861358458744,0.26581386415412556,33.955382027091446,20.43122214679824,0.5660006284072838,0.4339993715927162,33.46317355396619,29.302401822022077,0.7459618545861727,2.29329013874952,1.449348852418668,1.4142103331946916,-0.10612915793756805,-0.15610148620226527,-0.5153223173248965,0.004669948257034092,0.5001575500628596,0.753241006347142,1.3509549946745818,5.734065112011085,0.9222275082647708,1.2441760037552052,1.3124642532997708,1.3840481924140087,1.5027231072537235,1.9084915296086873,2.3797183695794564,0.9766420582901144,Relax
77.9146522806965,770.4473684210526,44.54821948910106,,,,,,,64.8771146090823,65.31027263541098,0.05782123648549511,0.08420706886447134,772.0,32.6172,0.04225025906735751,43.5,0.6866553754359577,738.0,791.0,21.052631578947366,38.15789473684211,679.0,914.0,6.909090909090909,132.8125,,,0.05614678717355957,0.09955364305225083,0.01587458236994426,0.17157501259575467,0.5639852591239768,0.32724338074709153,0.5802339253607265,-2.3070586539406075,46.1813366616413,43.18517221337781,1.069379472043308,6265.432094136812,0.9351217469036115,4.503921137347555,161.53357472202862,0.5789473684210527,0.5945945945945946,0.8636363636363636,0.23809523809523808,49.06474820143886,49.18930617115896,48.94225630884505,41.891891891891895,0.30797204746608886,0.6920279525339113,25.629902299694624,38.419624771301024,0.7410266283162696,0.25897337168373036,37.17505014325002,21.976686418701657,0.5099844369466491,0.4900155630533511,31.92864110046844,31.29730270737011,0.622169248861187,2.630246962631304,1.3121634568239582,1.3361401576772707,-0.6204220598324142,-0.33316305558864756,-0.4908842396953758,0.0038825367641743464,0.5501582980066376,0.6612898422377289,1.329135947279942,5.780693631807703,1.0019948918526143,0.8023351253519951,1.3027518787961418,1.7469023530956747,1.6971204713440322,1.9480401088331698,3.3792918260539384,1.0687244430890344,Relax
79.41043463587883,756.3461538461538,60.116948130684854,,,,,,,70.54684360662172,71.00174971128706,0.07948337917100465,0.09327322317681998,757.0,40.771499999999996,0.05385931307793923,51.75,0.8521564545949737,728.2,790.6,25.64102564102564,46.15384615384615,584.0,914.0,7.8,171.875,,,0.05086228794616814,0.05508041293408621,0.010053616946243954,0.11599631782649832,0.9234187842243334,0.4384819182126582,0.47484621896768164,-2.898961108162018,50.205818696961074,68.6282632502558,0.7315618422964236,10824.47731529212,1.3669384352537173,4.741377044588589,375.2424431259394,0.5641025641025641,0.5789473684210527,0.8409090909090909,0.19047619047619047,48.76543209876545,48.8775811956408,48.65227955786108,42.10526315789473,0.29330563804414206,0.706694361955858,27.193265420146332,42.21015717124318,0.6202096778755384,0.3797903221244619,54.04708529899733,42.29362939532757,0.5062309873063136,0.49376901269368667,42.781778326336664,42.2519138965939,0.7633599381990778,2.233944219232749,1.3395757268625965,1.6059765966103121,-0.5951082843449598,-1.0661363764762801,-0.38074864741286546,0.004111187596855573,0.46505062654268725,0.6194076690805677,1.0162127569010426,5.907071770088826,0.9192150500218511,1.185288915028438,1.2125512371606633,1.4478233985541056,1.5587233561063811,1.878396899227211,3.1241958265276164,0.9669849567480383,Relax
80.33641144088493,748.3461538461538,64.77991249559591,,,,,,,72.49818627377525,72.97332586944626,0.08656410160279045,0.09687787650296328,753.0,51.891,0.06891235059760956,78.25,0.8935383879945247,688.2,790.0,26.923076923076923,47.43589743589743,584.0,914.0,8.666666666666666,171.875,,,0.047044069513383704,0.06428839792328042,0.023090745611140554,0.1344232130478047,0.7317660889531652,0.3499698336823232,0.47825369194543543,-2.744376100671152,51.59993356802115,74.47291548021357,0.6928684507017929,12072.504368202564,1.443275413950685,4.788767481175275,429.9397116712785,0.5769230769230769,0.5921052631578947,0.8444444444444444,0.2,49.77947662452221,49.91273898269765,49.63318261364386,42.10526315789473,0.3269320576905495,0.6730679423094504,29.50390250725986,42.333108854219034,0.596828120428321,0.40317187957167916,57.53379144094996,47.28718624059066,0.5092856181716534,0.4907143818283464,45.719894032732746,44.87855884392604,0.8106394140188568,2.634304091597589,1.4641375140131143,1.7983639071701594,-1.0094316316076206,-1.3596833218914366,-0.3731253562475578,0.004889554780682244,0.6140532302159611,0.5251141284628225,1.0198314108149953,5.9936728919114355,0.919148324465249,1.2779616953716748,1.0779192145881393,1.4851506905632625,1.5902725721387854,1.9073590097047413,2.4346847226668826,0.8864028770190351,Relax
81.19189695653674,739.6375,65.59508389845666,,,,,,,64.19077578751119,64.60022116941971,0.08868544915374986,0.08678680541144977,750.0,51.891,0.069188,87.25,1.0218771014015178,684.6,785.2,22.5,48.75,584.0,914.0,8.88888888888889,171.875,,,0.02236087763126917,0.02309375592328635,0.015044114367613652,0.06049874792216917,0.9682650888642073,0.36960893240362824,0.3817228738848638,-3.768193004344976,45.679254455047435,81.3682151271386,0.561389412114708,11676.795364123618,1.7812947277239903,4.774293779224455,579.7630904411337,0.525,0.5324675324675325,0.7804878048780488,0.14285714285714285,50.39138943248531,50.549427648939236,50.21958281188413,42.857142857142854,0.3175112744074023,0.6824887255925975,25.73969796407975,37.737368407971616,0.5509821197481903,0.4490178802518097,60.39813691862808,54.52386165464586,0.4950333511257139,0.5049666488742862,46.42449242869218,46.88795401856396,0.8249681438952337,2.364151353183076,1.4382194631524303,1.733720311509712,-0.6295578916180986,-1.1141464384687496,-0.37500764366908174,0.004716463140535809,0.533789160218368,0.5431339374628101,0.9909816244757446,5.928055907333276,0.8989883513926261,1.1110934925795053,1.1275277227453138,1.4132159730909688,1.6027804243770323,1.845577897226168,2.9234694800155245,0.8692651130470124,Relax
81.1162078387137,740.2025316455696,65.92680085088065,,,,,,,64.67740460676099,65.09270650050158,0.08906589484950359,0.08737798351347764,751.0,50.4084,0.06712170439414114,88.5,1.019317352817665,684.2,785.0,24.050632911392405,48.10126582278481,584.0,914.0,8.777777777777779,218.75,,,0.011541205900065958,0.03462856396935665,0.003864148123344834,0.05003391799276744,0.33328572072116386,0.2306676423328326,0.6921017853201565,-3.3630763892486817,46.027494172290325,81.54961114308932,0.5644109582758052,11792.044214026762,1.7717586544649258,4.77855920885803,577.9449172440715,0.5316455696202531,0.5333333333333333,0.8,0.15,49.16256157635468,49.35063957521123,48.97294495189913,41.333333333333336,0.3114221528899403,0.6885778471100595,25.68705267882392,38.19583848957996,0.558207018622311,0.441792981377689,60.92836736142245,54.203995500891146,0.49857997846012597,0.501420021539874,46.75516348304818,46.88813925814665,0.9773483437680874,2.1794652844592655,1.3836383000235515,1.837743913799832,-1.3041889172539918,-1.8362093816665457,-0.2916435664223274,0.002139271284380171,0.359019989967127,0.5228751281648529,0.933097850190536,5.955555748122331,0.9093498384386591,0.9189738804425774,0.998904473445547,1.2623890521605339,1.47632899226055,1.7814242179735194,2.5966997540376684,0.7979469301490004,Relax
81.12414262082643,740.1012658227849,68.58638478491434,,,,,,,66.74895562421241,67.13385543415889,0.092671622049809,0.0901889494135729,752.0,54.856199999999994,0.0729470744680851,93.5,1.027527459321557,681.4,787.4,24.050632911392405,51.89873417721519,584.0,914.0,9.875,226.5625,,,0.020098529403252012,0.01517782895468146,0.005938058063033327,0.04121441642096679,1.3242031823696898,0.4876577457257746,0.36826504589205156,-4.1879195373562155,47.4708044246911,83.6976112355671,0.5671703615421524,12482.153732050063,1.7631386754430742,4.803259637074616,590.2819816465085,0.5443037974683544,0.5405405405405405,0.8,0.2,53.02701024526545,53.32084014673452,52.715578239372675,40.54054054054054,0.35743245770783516,0.6425675422921647,28.40065848879921,38.079462372064214,0.5625980264021934,0.43740197359780675,62.77867790552972,55.354563741157605,0.5126100362125179,0.48738996378748195,48.72247839634006,47.50880540236375,1.0450662153607289,1.3981242106037959,1.3195518643214674,1.3684324884552468,-0.06153574338137702,-0.19460828582452816,-0.4650384252249879,0.00041644442341009044,0.11869259631878896,0.457537571049186,0.9242589015233316,6.015744197516804,0.9073920884540065,0.7567168386141668,1.2443905063857803,1.5607788642688063,1.6335814510648696,1.7894420082327585,2.1969802448743105,1.0373310091937005,Relax
80.56345144000117,745.3291139240506,69.18902416271976,,,,,,,64.84636676060796,65.26508868860749,0.09283016437993345,0.08700366797588406,759.0,51.891,0.06836758893280633,96.5,1.0669683996043062,684.2,792.8,22.78481012658228,48.10126582278481,584.0,914.0,11.285714285714286,226.5625,,,0.020648866626169823,0.013004353357810385,0.008969921439641773,0.04262314142362198,1.5878426291583472,0.4844520121345656,0.30510077210318665,-4.342471103900554,46.14938678645579,86.96929348142373,0.5306400102734318,12609.032071035299,1.8845167734048422,4.807651859315009,655.5803693476457,0.5316455696202531,0.5333333333333333,0.8,0.15,50.45513654096227,50.62009904610232,50.27687723979284,40.0,0.3146277066043891,0.685372293395611,25.88636506162841,38.20637738293534,0.5498192827973821,0.45018071720261793,64.48755710712743,58.352489124398,0.49814353008847817,0.5018564699115219,49.136284544870286,49.31906456807681,0.9762689363340498,1.6129167105420845,1.3620994418402255,1.5398214821388085,-0.3824676268639191,-0.9026531360744139,-0.38981325623512664,0.0012068759449119252,0.19800411209355914,0.47481490004963023,0.9923900754128022,6.06637710890921,0.874522131784994,0.9153666242905111,0.9095249169080691,1.1755278438964014,1.637308460660053,1.7631852995942472,2.8385987993993265,0.9575363161788004,Relax
80.35410402088347,747.4810126582279,70.76140132098922,,,,,,,65.4931979243568,65.89091278478686,0.09466648667013511,0.08761854390313775,762.0,54.856199999999994,0.07198976377952755,95.0,1.0804389396699956,684.2,793.6,22.78481012658228,46.835443037974684,584.0,914.0,9.875,226.5625,,,0.010122325184066465,0.007821209166518756,0.003032487983041933,0.020976022333627154,1.29421486736327,0.4825664762875051,0.37286426578505266,-4.85091611150359,46.59191124869417,87.9265976828774,0.5298955319155646,12870.062833282105,1.8871644310436335,4.816550777152198,663.7277907592392,0.5569620253164557,0.5540540540540541,0.8292682926829268,0.2,52.31511254019292,52.303223630686766,52.31260151879154,41.891891891891895,0.341749110798936,0.6582508892010641,27.248138265963032,37.81628522966565,0.550950203289021,0.44904979671097894,65.2644139094478,58.92064881807443,0.505058275954918,0.49494172404508197,50.00952290266706,49.50613237627377,0.9645273698571722,1.2311161056469273,1.348386526541113,1.3721005005659486,0.4016434183779012,-0.19287598233017755,-0.48073782487609124,0.0015970304485628918,0.15639149665318455,0.4932923195099499,0.8972425369034606,6.006188659514735,0.8745868058643063,1.004799447595566,1.0757369800359622,1.199787220579029,1.6905901468023554,1.7570747104771407,2.9454799243180068,0.9575363161788004,Relax
80.34752540846843,747.9746835443038,75.33786712308083,,,,,,,79.83604995110211,80.33418793752602,0.10072248269966805,0.10673629964692954,766.0,60.7866,0.07935587467362924,104.5,0.9436572471862482,674.4,800.4,31.645569620253166,56.9620253164557,584.0,914.0,9.875,203.125,,,0.01585771040564818,0.009215994029098788,0.005877178417182297,0.030950882851929262,1.7206728167985663,0.5123508263564676,0.2977619111283065,-4.686814822913058,56.8048490517392,90.15116620007069,0.6301066469364726,16088.16945407851,1.5870329330152586,4.913476741927879,572.2914788369769,0.5949367088607594,0.5945945945945946,0.8409090909090909,0.2,51.67667667667667,51.94437214219282,51.39586364372343,43.24324324324324,0.35383058838674375,0.6461694116132564,33.79742939583177,45.67296224813408,0.5526893377514002,0.4473106622485998,67.02115260030492,60.29426068341339,0.49615533969754844,0.5038446603024517,53.07589438549101,53.48559316245306,0.8833865794651257,0.8594786785998672,1.2739209178448085,1.0465896742037217,0.9724291078760361,0.5122438523393509,-0.7644989914251515,0.0022972429125086642,0.11368657993249995,0.5017014355240503,0.8527773261518291,5.990427741820602,0.9134966491902461,0.9288326528527555,0.9826129177098123,1.0987690027893904,1.6067109104043975,1.838547084613555,2.6510506440935035,0.9575363161788004,Relax
76.84283693729807,781.7368421052631,47.0147121430594,,,,,,,57.978041820445554,58.342780187440496,0.060141353983581,0.07416567660327648,778.0,38.547599999999996,0.04954704370179948,47.5,0.8109054853673928,746.0,814.0,19.736842105263158,51.31578947368421,656.0,920.0,9.5,187.5,,,0.059540462408710554,0.14365747587299338,0.048806625280072354,0.2520045635617763,0.4144612874957505,0.23626739757081752,0.5700590252913307,-1.9403234526346707,41.25457550381533,51.57680357163158,0.7998668518982492,6684.615305861903,1.2502080785405638,4.532046528987066,257.9269459622144,0.5263157894736842,0.5466666666666666,0.7560975609756098,0.045454545454545456,52.25919439579685,52.26064718488147,52.255878176040085,50.66666666666667,0.49554756077728285,0.5044524392227171,29.054003771169562,29.313888415801376,0.5276619981926667,0.47233800180733343,37.46556897818127,35.44711282753234,0.5151253500536705,0.48487464994632956,33.524647604367104,32.52538902043957,0.9245644133276644,1.7669996329376927,1.3350224057342446,1.5161123887467558,-0.3650929130622398,-0.7549725908251821,-0.39751555142575584,0.0015956351450524462,0.24658545534130952,0.5459950802361897,2.2617630984737906,5.737994783151961,1.2359830669797178,1.2505206400361963,1.1028137534161353,1.5676072880626994,1.8918692729636104,1.869525295027754,2.685531023004247,1.0687244430890344,Stress
76.70026579777847,782.7866666666666,45.39653913863661,,,,,,,58.812114949769196,59.21216066300351,0.05799350074771749,0.07513172803544073,780.0,32.6172,0.04181692307692307,46.5,0.7718909475948844,754.2,814.0,20.0,53.333333333333336,656.0,920.0,8.333333333333334,156.25,,,0.03126421877718606,0.11512184519141878,0.06386333991333147,0.2102494038819363,0.27157503187341636,0.1487006298231514,0.5475489731046488,-2.1617641881140117,41.869320333517116,47.37753948535152,0.8837377539722706,6231.868576587906,1.131557405469154,4.501588395918901,214.44162263022702,0.52,0.5405405405405405,0.775,0.045454545454545456,50.52155771905424,50.50046559783803,50.548143360148444,51.35135135135135,0.4863218678210319,0.5136781321789684,29.199010116454666,30.009016909762487,0.5578858766115076,0.44211412338849243,35.38711730679555,31.502113840203364,0.5265031268053143,0.47349687319468575,32.44094837597794,30.764624752234045,0.6929868270531586,1.6674372926961525,1.031319627571964,1.173825901717478,-0.560799761465109,-0.8181911531778416,-0.41453575209710636,0.0005988150967937742,0.17036776458264885,0.538305329564412,2.0794415416798357,5.658753523800367,1.2922231329932388,1.4415234551547704,1.2198797682932863,1.4504736764094188,1.9073633592155361,1.9406241848250376,2.7032480734559585,1.0796619063526194,Stress
77.10847767455252,778.4868421052631,43.75065513293948,,,,,,,56.48492424237344,56.86377589475578,0.056199607709007025,0.07255732683884698,779.0,31.1346,0.03996739409499358,40.5,0.7745545509666973,747.0,805.0,17.105263157894736,55.26315789473685,656.0,920.0,6.909090909090909,140.625,,,0.04824081219982773,0.0875616166176051,0.0506754422743645,0.1864778710917973,0.550935604701118,0.25869456744323444,0.46955499923366895,-2.4354125435284626,40.20876153905395,45.899109885577175,0.8760248649547059,5797.954899768324,1.1415201097650398,4.4702449427714,209.57902781880668,0.5131578947368421,0.5333333333333333,0.75,0.045454545454545456,50.55976886962803,50.6542738531593,50.47183104109712,50.66666666666667,0.4696206710657735,0.5303793289342265,27.555349703774354,29.28367777079552,0.5698250570045476,0.43017494299545234,34.64774981101899,30.104181126901977,0.5263146548395641,0.47368534516043614,31.30306585834895,29.696763334622048,0.5317330876676158,2.421443823853159,1.0114191109856887,1.0526615526321472,-0.9147700096488158,-0.32405773666439797,-0.4829678304984045,0.0009956636331522701,0.3356144601146018,0.5392606643567555,2.505525936990736,5.728062052860336,1.301799800354531,1.5290648846150876,1.3275654586458039,1.5501541627759878,1.8264620846007344,1.930292567468981,2.354568451513984,1.0687244430890344,Stress
77.13250959473211,778.3552631578947,39.37366427698203,,,,,,,54.60879050116382,54.97639788422232,0.050585723692851574,0.07015921017814979,779.0,27.428099999999997,0.035209370988446724,37.25,0.7210133005260921,751.0,798.0,13.157894736842104,48.68421052631579,656.0,920.0,6.333333333333333,140.625,,,0.032844855820674784,0.0967960473992178,0.02700366578805356,0.15664456900794613,0.3393202171284135,0.20967759066711505,0.6179342699989019,-2.33514911818599,38.87418374914336,40.30719426988079,0.9644477729920231,4922.5906717676935,1.0368627809649895,4.39916383434243,167.17211817425874,0.5131578947368421,0.5333333333333333,0.725,0.045454545454545456,50.174621653084984,50.2137814266737,50.13723795646507,52.0,0.46504276599645006,0.5349572340035501,26.509942041185738,28.432946249596302,0.5460006246036617,0.4539993753963383,29.78373357364025,27.158776193420866,0.5069862789180994,0.4930137210819006,28.19439494485218,27.80316130188037,0.5821931777362019,2.3131994352847496,1.0683120929089578,0.9806829130626876,-0.5618238309458015,0.188858359756086,-0.5378822415869573,0.0010385379240552507,0.31273080241195056,0.5934560288661426,2.159484249353372,5.556752184325416,1.3239566386462966,1.2557937761729228,1.0882072217090768,1.3467949755898738,1.7740357755867846,1.9521036753007166,2.7953749534601378,1.1509340156343446,Stress
77.18916890243905,777.4473684210526,38.761972683492125,,,,,,,48.13896550612612,48.446002261643166,0.049858002300805636,0.06191925969714628,779.0,25.9455,0.033306161745827984,37.25,0.805209922480767,747.0,798.0,10.526315789473683,47.368421052631575,657.0,920.0,5.846153846153846,132.8125,,,0.025421960216102088,0.12002657132766767,0.03413125145426858,0.17957978299803834,0.2118027694609485,0.14156359803809201,0.6683746317311163,-2.1200421329810286,34.256496720586696,40.89810894546735,0.8376058845719142,4401.4527847861245,1.1938789094241888,4.350566157420285,195.30955882130488,0.4868421052631579,0.5066666666666667,0.6842105263157895,0.043478260869565216,47.90940766550522,48.154659477308684,47.65566383073991,50.66666666666667,0.3639889069170666,0.6360110930829337,20.67476592239791,27.329322931457558,0.5931327344833129,0.40686726551668706,31.4977240609702,26.087328232195304,0.4986146754145716,0.5013853245854286,26.64162689258078,26.7155440351323,0.9022367233904254,2.480516881420071,1.3239814594527175,1.546569602798102,-1.1278560004647638,-0.6542392277582056,-0.41026541886787926,0.0014141641390191379,0.3667549141500474,0.6232125006564408,2.114532861491106,5.6654977436213425,1.28771555648775,1.1889111597336761,1.0786556940454546,1.3315145928193846,1.8108562144506222,1.9380650342401866,2.1009389199383657,1.0687244430890344,Stress
77.45330373003107,775.2368421052631,36.52355164221305,,,,,,,39.81875604954697,40.08662691793434,0.0471127656201533,0.051363343286696256,779.0,25.9455,0.033306161745827984,37.5,0.9172449183687794,747.0,796.0,9.210526315789473,48.68421052631579,668.0,920.0,5.066666666666666,125.0,,,0.052279700282103436,0.08896021914560222,0.020956521630234284,0.16219644105793993,0.587675039295223,0.32232335026036757,0.548472078458391,-2.4195659850656077,28.345525728566557,43.46293854569693,0.6521769276774527,3870.3788234677063,1.5333262456266625,4.294723584771379,266.5714575367033,0.4868421052631579,0.5,0.6756756756756757,0.09523809523809523,49.74019839395372,49.72836995767607,49.752554237832044,51.35135135135135,0.5136357902703613,0.4863642097296388,20.314919294595928,19.768251915224667,0.5017651729762211,0.4982348270237788,30.787139733547395,30.67864165920737,0.5053075226291183,0.49469247737088146,26.08202368412887,25.80661579748338,0.9213535389704771,2.0261765617796827,1.2046202281297393,1.4530284292170434,-1.0188532141007478,-0.7992331192963928,-0.37740051594066615,0.0007261458085596403,0.22294661242656647,0.5922964043066266,2.1316272948504063,5.6391819541476575,1.382862409788927,0.7781141369655331,1.2392769750352126,1.2700941701678488,1.8297723309445644,1.9471681348285501,2.4976255871464446,1.0687244430890344,Stress
77.43988806636877,775.9736842105264,43.28848151158628,,,,,,,50.94873240163423,51.258848500035086,0.05578601748025498,0.06565780958599046,776.0,30.3933,0.03916662371134021,47.0,0.8496478611153389,742.0,797.0,13.157894736842104,51.31578947368421,667.0,935.0,5.428571428571429,125.0,,,0.029165967332931655,0.06760538883914262,0.014020272655436476,0.11079162882751076,0.43141482999717545,0.2632506412405901,0.6102030411015626,-2.6940675825550504,36.2454793701887,48.14166781676951,0.752892058250692,5481.821028617656,1.3282116460671018,4.445894962480016,255.76929542130821,0.5131578947368421,0.5270270270270271,0.717948717948718,0.15,52.70858046658758,52.62168743627449,52.791271559269234,51.35135135135135,0.52545419990446,0.4745458000955399,26.290605659549684,24.984589845137137,0.5262833406101362,0.47371665938986385,34.92455999280006,33.13450300652613,0.5259831316350042,0.474016868364996,30.910522776529003,29.34386664380837,0.823054932643794,1.8919601744458219,1.204775619169915,1.210302340055349,-0.392769469359596,-0.14329840255672188,-0.49707883867742997,0.0006600275142825579,0.21099943288943332,0.6267758442241638,2.1484344131667874,5.691813533095027,1.2674842957183798,1.0776537544505163,1.221819994031617,1.3632507024778546,1.7868287365950783,1.954534282890979,2.497198136537618,1.1509340156343446,Stress
77.35938303537554,776.0131578947369,40.368797660586864,,,,,,,42.37593656782113,42.64877721808912,0.052020764403150406,0.05460723975709862,778.0,33.3585,0.04287724935732648,46.25,0.9526349369524397,741.0,805.0,13.157894736842104,52.63157894736842,667.0,920.0,6.333333333333333,125.0,,,0.04702086941088657,0.07397715172186813,0.01769224191665209,0.1386902630494068,0.635613406524097,0.3390351159268905,0.5333983085425011,-2.6039989939696047,30.157239580225156,48.50988939762047,0.6216719921382555,4595.912411371285,1.6085653087900524,4.369341853298186,312.12530087301866,0.5131578947368421,0.5270270270270271,0.717948717948718,0.14285714285714285,51.673185571490656,51.6722030986407,51.66936628601609,48.64864864864865,0.5095746181661581,0.49042538183384193,21.533914169501546,21.12542978932698,0.5626572134468661,0.4373427865531339,36.38750096429303,32.080510328592695,0.5478543315012104,0.45214566849878957,29.897823381359103,27.161028392963384,0.9949252439181253,1.357047085492101,1.2386249498062178,1.4487613905576144,-0.4141690897881709,-0.9603894732654283,-0.3451516951785092,0.00043880935146672326,0.11719302371279906,0.6191708871286479,2.379546134130174,5.728062052860335,1.3971771425518194,1.0428264008395574,1.033639546694602,1.5710724612855114,1.8884846991747297,1.9260543383505828,2.4325438255266767,1.1509340156343446,Stress
77.22127166138662,777.6052631578947,42.07361134879943,,,,,,,48.689903128540585,49.009533913458256,0.05410664426052924,0.06261519235454811,778.0,31.875899999999998,0.04097159383033419,42.5,0.8641136795389746,747.0,805.0,10.526315789473683,51.31578947368421,667.0,920.0,6.909090909090909,125.0,,,0.06024907598537995,0.04881104674550256,0.008779641481626486,0.117839764212509,1.2343327996941857,0.5112796719172691,0.41421541422535485,-3.0197986240046375,34.654973772998396,48.543751975469064,0.7138915383077687,5285.046191061365,1.4007730115003632,4.430018897335681,271.995110576818,0.5394736842105263,0.5540540540540541,0.7560975609756098,0.2,51.37014314928427,51.421698938424335,51.31605535153266,47.2972972972973,0.4264494974775454,0.5735505025224545,22.634582486194095,26.24971042311319,0.6120679004321988,0.3879320995678014,37.97809198565498,30.235085331200654,0.5493908380705192,0.45060916192948086,31.26227595037824,28.312609225239928,0.9316368015752075,2.3876248034831944,1.3356386250697627,1.4664497036137925,-0.8470718795764753,-0.252858758646485,-0.44521288338385684,0.0010660166827342486,0.32850406203011473,0.5829426452387003,2.0243817644968085,5.780693631807703,1.3273782935039495,0.9396804009796695,0.9894007949874922,1.4062460594277184,1.8625567244196712,1.9141236642433586,2.5692089978314994,1.233143588179655,Stress
77.22393613580702,777.3026315789474,41.52429641766921,,,,,,,48.0080548797109,48.328653392565556,0.053421016127682776,0.06176237276103306,778.0,29.651999999999997,0.03811311053984576,39.0,0.8649443623931983,747.0,802.0,10.526315789473683,50.0,667.0,920.0,8.444444444444445,148.4375,,,0.05428879935109024,0.05580297022507613,0.012795335696054871,0.12288710527222124,0.9728657656056905,0.4417778352808371,0.45409947692608277,-2.8859281811714554,34.17351853949735,48.060215608383665,0.7110562885934306,5159.709894015144,1.4063584220289238,4.419595393959105,270.35955594150516,0.5131578947368421,0.5270270270270271,0.7435897435897436,0.19047619047619047,50.79631181894383,50.830855928265386,50.760851770675906,47.2972972972973,0.4176375984912471,0.5823624015087528,22.085827668072206,26.080177830599155,0.6073160077423867,0.3926839922576134,37.45355783626697,30.11669519933636,0.5436147387262262,0.45638526127377416,30.745347439721495,28.170827156878136,0.9803008424649993,2.372093558468234,1.3813555259532477,1.5411031421198547,-0.8704142292868937,-0.38667884479570347,-0.43265543190894923,0.0011531573762773616,0.3318065365960531,0.6507081917742004,1.9299098077088723,5.754377842334019,1.3113493513004961,0.7353776798468381,0.790544870297664,1.5736547012679214,1.8837045665678789,1.889692833642144,2.8463546726880025,1.1509340156343446,Stress
77.23821893054918,777.0533333333333,38.995458271005944,,,,,,,41.08215236867761,41.3576364300159,0.050183760365233546,0.05286915402890958,784.0,34.099799999999995,0.04349464285714285,42.0,0.9492067971769017,747.0,805.0,8.0,48.0,667.0,881.0,7.5,125.0,,,0.06563382298445963,0.06174722382274418,0.01853521627840546,0.14591626308560926,1.0629437069571352,0.44980471399512323,0.42316889507043504,-2.7847062628208334,29.24426517351204,47.03022829197318,0.621818482188896,4320.834906607779,1.6081863576647757,4.342537782771751,302.533486148045,0.49333333333333335,0.5068493150684932,0.6756756756756757,0.14285714285714285,48.8750598372427,48.94056423724003,48.81339633994056,47.94520547945205,0.36563298183244863,0.6343670181675516,17.68541694738181,23.29501093038111,0.6143601783535906,0.38563982164640953,36.86282510722935,29.205727149121532,0.5449926915116903,0.4550073084883097,28.910567682846686,26.416207454473003,1.112568037528,1.7167719080936443,1.3572672492783786,1.5348499028608735,-0.5559628844775855,-0.44322344579561523,-0.39656013548142915,0.0006090126889579931,0.16409447612256428,0.5246261898266429,1.6486586255873816,5.771956523742675,1.304406571194242,0.8986421936606738,0.8788332597606244,1.2976859441368598,1.950481764874665,1.849822267639727,2.7122847803200645,1.0796619063526194,Stress
77.62018229401338,773.3815789473684,40.01765180692579,,,,,,,41.001138195583465,41.271786493443194,0.05174373542927267,0.05301540573462993,775.0,34.8411,0.04495625806451613,44.0,0.9760131930004906,741.0,802.0,7.894736842105263,47.368421052631575,667.0,881.0,8.444444444444445,85.9375,,,0.05944200901212633,0.040492741407816425,0.00798028428229007,0.10791503470223283,1.4679670218784466,0.5508223129070303,0.3752279885703322,-3.206632545430633,29.183560101197045,48.742350751238476,0.5987310757771676,4468.838023463288,1.6701989264578851,4.357164723563537,325.6376875910088,0.4868421052631579,0.5,0.7027027027027027,0.2,48.812915479582145,48.85912908657947,48.770444024773056,50.0,0.3651750448121064,0.6348249551878937,17.637873868315154,23.255339404334887,0.6046041406869809,0.39539585931301924,37.900246023589986,30.649438952582937,0.5414106776999127,0.4585893223000875,29.55945908878614,27.20476905727118,1.0688609930605066,2.236541793163134,1.4032697516646229,1.6040831923988872,-0.9055104944868333,-0.4138201678962714,-0.41021252482375725,0.001112141637927325,0.28464458838741,0.579037813005078,1.8281271133989299,5.780693631807703,1.2719133031851861,1.2553182646758552,1.1715637945173059,1.603274988758277,1.9009710233164216,1.810232471231898,2.9069609385069946,0.986514870543724,Stress
78.10300956786735,768.2337662337662,39.72335124725827,,,,,,,41.00609710762535,41.24039069360769,0.05170737475130823,0.05337710851822619,767.0,34.099799999999995,0.044458670143415896,45.0,0.9687181675202993,740.2,793.0,9.090909090909092,46.75324675324675,667.0,881.0,7.7,85.9375,,,0.048140225249129615,0.037436103045283005,0.012657238035236908,0.09823356632964952,1.2859304610551696,0.49005881642922294,0.3810927816634077,-3.2851197181189793,29.161359918232577,47.183527455648075,0.618041114998108,4322.629883859476,1.6180153322049802,4.342718161530885,305.3746834030129,0.4805194805194805,0.4933333333333333,0.7027027027027027,0.21052631578947367,46.83065279091771,46.88232643970567,46.781068254851235,49.333333333333336,0.3481540604410224,0.6518459395589778,17.222465948096207,23.56579442044479,0.5953524345118347,0.4046475654881651,36.4063778936998,30.01434510061849,0.52693581765093,0.4730641823490703,28.478392551829597,26.983398400550733,1.0806715161546243,2.3018257326462486,1.4007390226964191,1.5246860718926483,-0.9641116801904541,-0.11224379000402962,-0.4461527224071234,0.000731211828729436,0.2660128847177443,0.5129305395355459,2.3978952727983702,5.85756868349585,1.2695489848743897,1.085951355463421,1.245511514672033,1.6137860308944958,2.013294160921033,1.8171268720973175,2.400235885618723,1.0580288964809574,Stress
78.64040871511129,763.3506493506494,40.96492923470483,,,,,,,40.09528125537179,40.36114163878377,0.05366462879091279,0.05252537780570328,763.0,37.065,0.04857798165137615,47.0,1.021689534331837,732.4,790.8,7.792207792207792,41.55844155844156,667.0,881.0,8.555555555555555,101.5625,,,0.059724896262855855,0.03612556393598542,0.012135692460296759,0.10798615265913804,1.6532585171179197,0.5530792124003113,0.3345388556439916,-3.320754521986669,28.539636949214724,50.53879177111589,0.5647075434345029,4531.303712529986,1.7708281244448865,4.363193281886157,357.9820553750232,0.45454545454545453,0.4666666666666667,0.6571428571428571,0.2222222222222222,50.396039603960396,50.43587147317993,50.35478461180058,45.33333333333333,0.36966770338844335,0.6303322966115567,17.352425382829534,22.658920244942532,0.6385786757722388,0.36142132422776113,40.38611345751333,30.383076103006278,0.5735575197802669,0.42644248021973274,31.081705446048215,26.800727416879358,1.0933669724866972,2.074383734439772,1.390988267390476,1.552970978215801,-1.0380965418029788,-0.6116085054111187,-0.42191285144786794,0.0004217978854634888,0.21197386782089314,0.5663677876603175,1.667706820558076,5.929124203032566,1.2065483101832906,0.6921022450576794,0.0,0.0,1.9406414862121752,1.7922660862189623,2.8418720444701133,0.9766420582901144,Stress
78.29895410348679,766.5454545454545,41.25643345510378,,,,,,,39.4246449772087,39.68580770670207,0.053821248577578466,0.05143158144559959,768.0,34.099799999999995,0.04440078124999999,45.0,1.0464630303951763,738.4,793.0,7.792207792207792,38.961038961038966,667.0,881.0,9.625,171.875,,,0.056781808615486526,0.029308604839769395,0.007912084175581546,0.09400249763083747,1.9373767166985112,0.604045743959672,0.31178538420190577,-3.529874125536599,28.06210374627438,51.28659326883399,0.5471625615524605,4521.410623960337,1.8276104219607188,4.362244060398437,374.9276494599258,0.4805194805194805,0.4933333333333333,0.7027027027027027,0.21052631578947367,50.4879301489471,50.52602228714651,50.44848728993371,45.33333333333333,0.3634139527796355,0.6365860472203645,16.917249579447994,22.390176417348748,0.6374990027445695,0.36250099725543056,40.9490288739577,30.8786606478096,0.5743461371168482,0.42565386288315177,31.3290304594122,26.97046239316806,1.1477834393648136,2.0933798089484656,1.4891612707562691,1.622978070353261,-0.9850208269763403,-0.6569367776049737,-0.4360761964814164,0.0004620711795312604,0.22626613508771878,0.5593911457434548,1.6094379124341005,5.909516735443904,1.1341271219161777,0.0,0.0,0.0,1.9072907441491038,1.7006378668682467,2.7604109416267155,0.8952552200992716,Stress
78.07034269963482,768.6578947368421,41.80575801858844,,,,,,,39.62373026356807,39.867514830231634,0.05438799016420832,0.051549239960819844,769.0,34.099799999999995,0.04434304291287385,46.0,1.0550687111108927,741.0,801.0,7.894736842105263,40.78947368421053,667.0,881.0,9.5,101.5625,,,0.042944388659278125,0.028423174648524556,0.007879504005720642,0.07924706731352332,1.5108934589580536,0.5419050838736813,0.35866531863033635,-3.5605504578182448,28.190590085512035,51.635526215654735,0.5459533803872668,4573.015217487638,1.8316582256357854,4.367172756533795,378.3145453117449,0.4868421052631579,0.4931506849315069,0.6944444444444444,0.2222222222222222,52.620653866113145,52.607637431903,52.62934254403038,45.20547945205479,0.3794553005018981,0.6205446994981021,17.375425330201427,22.219877879344274,0.6239095626759623,0.3760904373240377,40.78584160803447,31.66611267414887,0.5677273438782681,0.432272656121732,31.347968682843558,27.35384492959687,1.2109584449334199,2.096931810768727,1.525843245166484,1.5135840601255468,-0.7220639895175776,0.18776984663702168,-0.5058462487802324,0.0002720676317866337,0.20293582483041037,0.5525046570555516,1.4663370687934272,5.843257941046697,1.1178013761631296,0.0,0.9767977039109775,1.2887647333945762,1.8486918608227725,1.6917956595326855,2.5254442390957443,0.986514870543724,Stress
77.9131560132982,769.8181818181819,42.96777472794898,,,,,,,42.36448984704053,42.638823837503,0.05581548441278209,0.05503181250796479,769.0,35.5824,0.046271001300390115,54.0,1.0142403433414788,741.4,805.0,10.38961038961039,36.36363636363637,667.0,881.0,9.625,101.5625,,,0.02105956291818441,0.02893494450262887,0.011055205943948458,0.06104971336476174,0.7278245484891479,0.3449576051628134,0.4739570901790719,-3.542705261959596,30.150201477316976,52.71767488816284,0.5719182710785081,4993.399791472587,1.748501578930547,4.405366448754659,368.70775111799986,0.4935064935064935,0.5066666666666667,0.6842105263157895,0.15789473684210525,48.5616772306192,48.566345212518904,48.558671914135964,48.0,0.3432819407482349,0.656718059251765,17.668050260286222,24.43726662292655,0.5990629583009379,0.4009370416990622,40.80303622145289,33.38061534371166,0.536004171144977,0.463995828855023,31.440799647028673,29.252739023250783,1.112155245107456,2.351214334923255,1.4166848349976524,1.651029513481046,-1.4146232746950744,-0.7596480309323628,-0.4003303633349774,0.0006434097802759964,0.269175820295209,0.506468460200467,1.4039939382192914,5.8673724172901816,1.1055465214357294,0.7903555306523851,0.9538270728210061,1.218452876145364,1.8979366362735572,1.730966877315038,2.9875724294213626,0.8952552200992716,Stress
