PPG_Rate_Mean,HRV_MeanNN,HRV_SDNN,HRV_SDANN1,HRV_SDNNI1,HRV_SDANN2,HRV_SDNNI2,HRV_SDANN5,HRV_SDNNI5,HRV_RMSSD,HRV_SDSD,HRV_CVNN,HRV_CVSD,HRV_MedianNN,HRV_MadNN,HRV_MCVNN,HRV_IQRNN,HRV_SDRMSSD,HRV_Prc20NN,HRV_Prc80NN,HRV_pNN50,HRV_pNN20,HRV_MinNN,HRV_MaxNN,HRV_HTI,HRV_TINN,HRV_ULF,HRV_VLF,HRV_LF,HRV_HF,HRV_VHF,HRV_TP,HRV_LFHF,HRV_LFn,HRV_HFn,HRV_LnHF,HRV_SD1,HRV_SD2,HRV_SD1SD2,HRV_S,HRV_CSI,HRV_CVI,HRV_CSI_Modified,HRV_PIP,HRV_IALS,HRV_PSS,HRV_PAS,HRV_GI,HRV_SI,HRV_AI,HRV_PI,HRV_C1d,HRV_C1a,HRV_SD1d,HRV_SD1a,HRV_C2d,HRV_C2a,HRV_SD2d,HRV_SD2a,HRV_Cd,HRV_Ca,HRV_SDNNd,HRV_SDNNa,HRV_DFA_alpha1,HRV_MFDFA_alpha1_Width,HRV_MFDFA_alpha1_Peak,HRV_MFDFA_alpha1_Mean,HRV_MFDFA_alpha1_Max,HRV_MFDFA_alpha1_Delta,HRV_MFDFA_alpha1_Asymmetry,HRV_MFDFA_alpha1_Fluctuation,HRV_MFDFA_alpha1_Increment,HRV_ApEn,HRV_SampEn,HRV_ShanEn,HRV_FuzzyEn,HRV_MSEn,HRV_CMSEn,HRV_RCMSEn,HRV_CD,HRV_HFD,HRV_KFD,HRV_LZC,Labels
76.10444555449489,788.4133333333333,61.612146339634826,,,,,,,52.64298418387567,52.99778379333246,0.07814701215052362,0.0667707938947536,780.0,65.2344,0.08363384615384614,91.0,1.1703771603150563,734.0,843.2,42.66666666666667,70.66666666666667,653.0,940.0,15.0,93.75,,,0.05317840607968924,0.02481857113558317,0.004389419502258711,0.08238639671753112,2.1426860470402214,0.6454755663367097,0.30124598385672563,-3.6961630699368446,37.47509230812389,78.81981957473265,0.47545265277589294,9279.573593159708,2.10325885061652,4.674498130319395,663.1139324982147,0.4666666666666667,0.4864864864864865,0.6944444444444444,0.047619047619047616,49.19786096256686,49.135248521428196,49.2607415623191,50.0,0.505668657808119,0.494331342191881,26.650965697376517,26.350508819916424,0.5125955182631798,0.48740448173682027,56.4316616952599,55.02755233612654,0.5113181925007836,0.48868180749921636,44.129391647126766,43.141516148448225,1.3665879290936573,1.6051185639311836,1.6344511061197853,1.9675043012226903,-0.14043658808716408,-0.6266694839488336,-0.29250554906847115,0.0034750237716081375,0.2562880953633756,0.46309263695883374,2.169053700369523,5.995355023771521,1.3941371607596742,1.0939171425069938,0.8169164972594083,0.8888370153723535,2.083386791442435,1.7457988976034706,3.0897040902336865,0.9966109904793409,Relax
75.65325267000347,793.4054054054054,64.62641194640369,,,,,,,54.64743786998092,55.02299574616781,0.08145446389211529,0.06887706776091068,783.0,70.42349999999999,0.08994061302681991,98.5,1.1826064398511251,734.6,846.2,40.54054054054054,66.21621621621621,653.0,940.0,12.333333333333334,93.75,,,0.051437740851292886,0.02415362176074559,0.004712690360557442,0.08030405297259591,2.1296077814255328,0.6405372947844392,0.3007771197922989,-3.7233209407387884,38.907133413313815,83.3341929179411,0.4668807850773276,10185.968775965317,2.1418743969820344,4.714972450519135,713.9654968163985,0.47297297297297297,0.4931506849315069,0.6944444444444444,0.05,50.61885115836242,50.62169031192697,50.61419898790831,50.68493150684932,0.5320706595780793,0.46792934042192086,28.38145423413755,26.61583697308386,0.4715875356745172,0.5284124643254825,57.2274497430829,60.57727878658423,0.4824128613366029,0.5175871386633973,45.16905992237122,46.786800932342686,1.1969518334965374,2.0185387766701233,1.5150190475694107,1.7846630046608816,-0.6049211665424075,-0.5002821875077368,-0.3664162610062472,0.001922685705173118,0.28383858094653613,0.5279439662140906,2.5649493574615367,5.901954885869983,1.376174261626146,1.2943675018610736,0.9878109296453568,1.0307734938770217,2.126500543806717,1.7394310775410127,3.1571911220600524,0.8391153196795879,Relax
75.63512198767361,794.527027027027,67.18798469168998,,,,,,,59.0894376672821,59.46043540872732,0.08456349803869476,0.07437058231786504,783.0,70.42349999999999,0.08994061302681991,101.25,1.1370557470864553,734.6,846.2,44.5945945945946,67.56756756756756,653.0,943.0,12.333333333333334,93.75,,,0.052505549037748594,0.02432916212630534,0.004442134153459452,0.08127684531751339,2.158132235099794,0.6460086982046631,0.2993369394599637,-3.7160795606627555,42.04487708981579,84.1146839789748,0.49985181065799733,11110.53003016903,2.0005929331007426,4.7527048875063445,673.1169693533569,0.4864864864864865,0.5068493150684932,0.7297297297297297,0.047619047619047616,52.26204465334901,52.106375342607855,52.421066546114844,49.31506849315068,0.5581637136893646,0.4418362863106354,31.431914955627153,27.965380383610018,0.50137952754365,0.49862047245635016,59.56005854735558,59.39595513768909,0.5127425675474266,0.4872574324525736,47.6201945184089,46.42166512910957,1.1894512329947453,1.8813766096343612,1.5059619427436717,1.7620017824036105,-0.37930516614187937,-0.4309179523562028,-0.3639082476369794,0.002110126727986429,0.2691199125788743,0.5194193188543599,2.1041341542702074,5.874927858842956,1.3702053274721318,1.063466712214377,0.9485198834504672,1.1344807780995272,2.1057217398337515,1.771607491307745,3.5912275014164035,0.7552037877116291,Relax
74.95456746722309,801.027027027027,65.8574577324813,,,,,,,61.93268550811094,62.350780773088154,0.08221627424596153,0.0773165990890109,792.5,74.87129999999999,0.0944748264984227,100.5,1.0633715814544542,739.4,852.4000000000001,48.64864864864865,72.97297297297297,653.0,945.0,12.333333333333334,93.75,,,0.049037550208803384,0.01898955890082351,0.00318417538113529,0.07121128449076218,2.5823427739902267,0.6886204982746061,0.2666650241828865,-3.963865982399095,44.08865989692644,82.07479906031739,0.5371765804083827,11368.066337058619,1.8615852523573548,4.762656709164671,611.1569420835206,0.527027027027027,0.547945205479452,0.8,0.047619047619047616,51.1298665940648,51.215657037276564,51.048029138324466,50.68493150684932,0.5304871733517141,0.469512826648286,32.117189928274996,30.21508545228507,0.46976815370444847,0.5302318462955515,56.25376752995661,59.76442319203855,0.4833690740999664,0.5166309259000335,45.803931328016425,47.3536570307192,1.1312851846685312,2.5996243976909996,1.503203127642882,2.05477773497809,-1.7069055731750886,-1.753906564216476,-0.2878252689791958,0.0031384885539315287,0.479240856994759,0.49431546318657515,2.0794415416798357,5.912156068331652,1.435716622216252,1.086032179340494,1.0490571777401743,1.225673730268426,1.9982033779150852,1.7984329200953524,2.7914205288740126,0.9230268516475466,Relax
74.45411279448678,806.4931506849315,64.02714773344005,,,,,,,63.72728353434396,64.16474297463962,0.0793895740826362,0.0790177616266452,802.0,63.751799999999996,0.07949102244389027,83.0,1.0047054288597517,744.4,865.6,47.94520547945205,72.6027397260274,653.0,945.0,14.6,93.75,,,0.048866838187500095,0.028119274087943867,0.004318447151325868,0.08130455942676984,1.7378413836241862,0.6010344134699351,0.34585113413314295,-3.571300027168618,45.37132487045957,78.68668679761672,0.5766073870558975,11215.860344385908,1.7342823252853294,4.756802702948838,545.8597205934766,0.5205479452054794,0.5416666666666666,0.7948717948717948,0.05,51.06666666666667,51.04012189982679,51.090458831371976,51.388888888888886,0.5324379967442306,0.4675620032557694,33.11173997155181,31.028950588891778,0.4611229350451575,0.5388770649548424,53.43300769258955,57.76251698212167,0.4789213503801658,0.5210786496198344,44.44926115820147,46.36434051487081,1.3025539566963367,2.653759038449633,1.6730045608735904,2.32843243285043,-1.706416578821731,-1.975656571878118,-0.25301907125684225,0.004860938237448621,0.5731370659654144,0.47619513169000394,2.3978952727983702,5.79592199035723,1.4744227682487345,1.087735866544406,0.8523740461192126,1.092796392693007,1.9598513447807207,1.8324421218921274,3.9687214289465507,1.1022975241841126,Relax
74.38112635750977,807.1917808219179,63.871976452520194,,,,,,,62.14990837572579,62.5848281924206,0.07912862589790368,0.07699521954056822,810.0,68.19959999999999,0.08419703703703703,84.0,1.0277082963080761,744.4,858.6,43.83561643835616,71.23287671232876,653.0,945.0,14.6,93.75,,,0.05922291060245981,0.046673086791126056,0.009971040625238712,0.11586703801882457,1.2688878039607152,0.5111282001775004,0.4028159137333192,-3.064587580407832,44.254156414255625,79.19251863544135,0.5588173880158723,11010.019665264608,1.7894933505032535,4.7487582046382,566.857942030909,0.5342465753424658,0.5555555555555556,0.8,0.047619047619047616,50.389538119087376,50.36957540897815,50.40965971362398,52.77777777777778,0.5219375206754211,0.478062479324579,31.972148971552645,30.598835474481152,0.4461864405223006,0.5538135594776993,52.89837603213421,58.93400394498624,0.4642131365186432,0.5357868634813566,43.70615801403863,46.95479503406452,1.2259330758902665,2.3526294684965405,1.5763626397306267,2.143765948980349,-1.1867881094904433,-1.5836413734774473,-0.25882164325165735,0.0045073054219599866,0.4831275254902501,0.5050762642133333,2.427748235948052,5.79592199035723,1.4369935790734136,1.1816608188233215,0.8863533323073695,1.117980093823432,1.994564118237469,1.817688169427608,3.378640971065674,1.017505406939181,Relax
73.377141569332,817.6760563380282,66.2997036511126,,,,,,,62.440257160630864,62.8880516420844,0.08108309291583833,0.07636307395409166,818.0,69.6822,0.08518606356968214,93.0,1.0618102273434444,762.0,874.0,45.07042253521127,73.23943661971832,653.0,945.0,14.2,171.875,,,0.05706401213145085,0.02831740127377058,0.007738995173828062,0.09312040857904949,2.0151570965061416,0.6127981288120044,0.30409446979318255,-3.5642787772989233,44.46856777172767,82.55481208221363,0.538655066253956,11533.082745160124,1.8564756235459536,4.768915517886655,613.0439849481863,0.5492957746478874,0.5714285714285714,0.825,0.047619047619047616,50.60992907801418,50.56145905501277,50.65875074703865,51.42857142857142,0.529080482934247,0.4709195170657531,32.34707611722168,30.517398221390017,0.5018581386315131,0.4981418613684866,58.48343582247791,58.26649751210136,0.5079807915026787,0.49201920849732106,47.2580448121546,46.509656666818195,1.0870997101704867,2.1750781186512556,1.4539661777387975,1.8331480155621402,-1.0790227177700356,-1.2503209204919927,-0.325669784192179,0.002037803542075029,0.3361454946833601,0.43134248822272925,2.302585092994046,5.762285499725431,1.4415241217241064,1.0965418686683501,0.8285465011681314,0.9222198635284842,2.013272862571179,1.8068141441949885,3.0262750377218497,1.126010035965646,Relax
72.52543069275367,828.0281690140845,74.86081787099232,,,,,,,67.4086683700885,67.8816181206293,0.09040854003810946,0.08140866566212424,824.0,75.6126,0.0917628640776699,101.0,1.110551798175123,764.0,898.0,45.07042253521127,70.4225352112676,653.0,1056.0,14.2,171.875,,,0.062149495839428054,0.051010484117988156,0.00805282051837961,0.12121280047579581,1.2183671046068718,0.5127304673720353,0.4208341356503359,-2.9757240964436775,47.9995524910126,94.6527974779054,0.507111820992053,14273.172522007779,1.9719516654999671,4.861490625169389,746.6029665231466,0.5633802816901409,0.5857142857142857,0.8292682926829268,0.10526315789473684,51.29958960328317,51.23090879106991,51.365934130495496,52.85714285714286,0.5788917708087715,0.4211082291912285,36.527833342475326,31.1545934920065,0.468700638660435,0.5312993613395649,64.80092821286847,68.9926936214556,0.4912483663151837,0.508751633684816,52.59963358211245,53.5284992727996,1.0983227042773613,2.0771875369211767,1.4647843548705324,1.8415546119396387,-0.9773034630995916,-1.2765040565059058,-0.3186151946455648,0.0021362100266911883,0.3220960711226194,0.39937953075721344,1.8562979903656263,5.807991309554114,1.3469169263870637,1.0607344105850978,0.738727569758434,0.840093846785475,1.8819145173315917,1.84791533267307,2.8007479130256345,0.9527777227401621,Relax
72.53240521156995,828.4788732394367,74.22915467945569,,,,,,,66.6956841610781,67.16244637368825,0.08959691921800268,0.08050378388080216,827.0,72.64739999999999,0.08784449818621523,101.0,1.1129528936262705,764.0,898.0,43.66197183098591,70.4225352112676,679.0,1056.0,11.833333333333334,148.4375,,,0.03713209101060999,0.047022690158828685,0.009043222744891064,0.09319800391432974,0.7896632643770234,0.3984215267608399,0.5045461081125008,-3.057125024430922,47.491021271912814,93.61180138304172,0.5073187415504223,13966.64145146021,1.9711473637734909,4.852062094139098,738.0906220570813,0.5633802816901409,0.5857142857142857,0.8536585365853658,0.10526315789473684,48.63888888888888,48.47886821901844,48.79999759497593,55.714285714285715,0.5651996582975252,0.4348003417024749,35.711505067735494,31.322191975417805,0.44838483006415675,0.5516151699358434,62.68390705348615,69.52623357185374,0.47230411057966876,0.5276958894203315,51.01266410261764,53.921131594361455,1.144059794541926,1.524775979505503,1.4296072593904527,1.7657095513987604,-0.3838625865822234,-1.0971703066964622,-0.27957267393646357,0.0017141658094029164,0.2073565436194571,0.40494443348408726,1.7346010553881064,5.7516532813851,1.2843619753912892,1.2046104164547755,0.9829564081810813,1.0934145962508413,1.9499632112324787,1.769367034216226,2.804051798172322,1.126010035965646,Relax
72.27911281920355,830.7605633802817,74.59844211102772,,,,,,,67.10503493990383,67.58288217243268,0.08979535789168194,0.08077542182173424,827.0,75.6126,0.09142998790810157,102.5,1.1116668395722413,766.0,900.0,43.66197183098591,71.83098591549296,679.0,1056.0,14.2,148.4375,,,0.05255364806432264,0.0440101779536149,0.008574084678237644,0.10513791069617517,1.194124870835838,0.49985440757131666,0.41859475485293196,-3.1233343546859462,47.788314276258575,94.12553619048869,0.5077082820494737,14131.20012959711,1.969634995835177,4.85714915698575,741.571800330148,0.5492957746478874,0.5714285714285714,0.85,0.10526315789473684,50.9001636661211,50.95706052805925,50.851133126303,54.285714285714285,0.584564235318004,0.41543576468199594,36.541023204223414,30.804667442319257,0.4649655731627694,0.5350344268372303,64.18268219142925,68.84910943404415,0.489480045569045,0.5105199544309551,52.223859825263794,53.33445137100818,1.1986348045411952,1.3819038259799559,1.4328220390248907,1.7312729779074578,-0.3297303458172127,-0.9585523912716996,-0.2840291536417701,0.0011989432054534223,0.1552979669714372,0.4291454000011803,1.8870696490323797,5.734116485640924,1.342593065418322,1.1428138247680633,0.0,0.0,1.9555416380853314,1.7799080869330115,2.3432476174190433,0.9527777227401621,Relax
72.48910169963929,827.830985915493,74.59471178412677,,,,,,,65.82162041674236,66.26448667738231,0.09010862489235404,0.07951094068307996,822.0,75.6126,0.09198613138686132,101.5,1.1332858612692691,766.0,898.0,39.436619718309856,73.23943661971832,679.0,1056.0,14.2,148.4375,,,0.06246698656821454,0.04009946969681409,0.005646767015063347,0.10821322328009199,1.5578008148366498,0.5772583486079987,0.37055979372339054,-3.21639216927541,46.85606788142267,94.51150422378124,0.4957710520666183,13912.346583316295,2.017060084148735,4.850370498202199,762.5415306505749,0.5211267605633803,0.5428571428571428,0.8421052631578947,0.05,47.98657718120805,47.965549999247926,48.023469823017834,57.14285714285714,0.5621715016783501,0.43782849832164983,35.14895838232363,31.01916191319652,0.4524297208455998,0.5475702791544003,63.571175005891575,69.9366151526661,0.47409830367407063,0.5259016963259292,51.36508331051363,54.09860693589636,1.1708316048194782,2.446114063667588,1.471092125260416,2.1135691115672683,-1.9601215583278169,-2.324513298913992,-0.23734790382442245,0.0025808388195389972,0.41994876845076506,0.4296785799624918,1.6739764335716711,5.744748703981254,1.276411941285264,0.922219863528484,0.0,0.0,1.9924758611960183,1.7766198500315769,2.7534731542430713,1.039393879352904,Relax
72.79348965927718,824.8194444444445,73.40862412184046,,,,,,,64.68809238008683,65.1451003885002,0.08899962848388558,0.0784269730979213,813.5,69.6822,0.08565728334357713,100.25,1.1348089180078853,766.8,885.2,37.5,70.83333333333334,679.0,1056.0,14.4,93.75,,,0.05097807510573023,0.03260901958009544,0.006550616121946012,0.09013771080777169,1.5633121069621874,0.5655576855556763,0.3617688899337333,-3.423166354640677,46.06454224578687,93.570595477576,0.4922972009601685,13541.16486929185,2.031293287976483,4.838626135798751,760.2772901822511,0.5138888888888888,0.5352112676056338,0.8421052631578947,0.05,50.66894392257333,50.67482530804488,50.666758042866,56.33802816901409,0.5957260613322652,0.40427393866773487,35.555992060812635,29.290539672148654,0.4570705468787264,0.5429294531212736,63.260265701270534,68.94632057936683,0.48412147933617816,0.5158785206638219,51.313203895410375,52.96947628454777,1.1062325809406788,1.9569881600992458,1.4218484655156414,1.7313555435019539,-0.9149057245680723,-1.0658176850917673,-0.341845196462192,0.0011893122920984686,0.24802643334634852,0.4113786035173561,1.6422277352570909,5.826107119467819,1.2682558330368603,0.0,0.3892291526361727,0.8513272730094696,2.1708262993095855,1.7873672171886994,2.4058776547370613,0.9426274307759088,Relax
72.3187117964266,830.3521126760563,72.21280032783054,,,,,,,67.97972386780383,68.4674969357429,0.08696647991308572,0.08186855049807602,824.0,66.717,0.08096723300970873,90.5,1.062269691890166,779.0,886.0,42.25352112676056,77.46478873239437,679.0,1056.0,14.2,125.0,,,0.04701492930851299,0.02604221617391879,0.005962850896609043,0.07901999637904082,1.8053351909273496,0.5949750881155846,0.32956488695595787,-3.648036358737824,48.41383137413296,88.35412525329738,0.547952132798985,13438.356478668456,1.8249769279880652,4.835316267378195,644.9769603193416,0.5211267605633803,0.5428571428571428,0.868421052631579,0.05,49.406175771971505,49.27524347074712,49.531776274436915,54.285714285714285,0.5612466652446622,0.4387533347553379,36.27152034869502,32.070009467513046,0.4761319395524121,0.5238680604475878,60.96639131164987,63.94959405430299,0.49578781723547355,0.5042121827645267,50.16235669289778,50.5867378220642,1.253656441165211,1.094626785144932,1.354142704951503,1.800969833737677,-0.6953818678882069,-1.7007712424898032,-0.09179956597991278,0.0015684646441864417,0.12461974735103759,0.42451859776741374,2.0149030205422647,5.868056978659612,1.3514140361241491,0.964835686899808,0.9060852332440912,0.971676299360964,2.210391444059306,1.8508983532504275,2.3825261062339407,1.126010035965646,Relax
72.93694892398554,823.6197183098592,72.55350069277608,,,,,,,65.07885326937732,65.53230992336788,0.08809101953224518,0.07901565713230482,819.0,68.19959999999999,0.08327179487179485,90.5,1.1148552417243642,773.0,878.0,42.25352112676056,77.46478873239437,678.0,1056.0,11.833333333333334,125.0,,,0.059412141965130554,0.02465442676316041,0.0037262952141466354,0.0877928639424376,2.409796120423552,0.6767308787657822,0.28082495155102094,-3.7027988099044524,46.3383407336319,91.83033234116164,0.5046082220575979,13368.309984724869,1.9817354460107395,4.833046617395797,727.9336984777055,0.5070422535211268,0.5285714285714286,0.8108108108108109,0.05,48.60120680197476,48.52207113410852,48.69343541543413,54.285714285714285,0.5360713466546136,0.46392865334538624,33.936001147940864,31.570027980137528,0.4777146618173945,0.5222853381826056,63.47028397327858,66.36514891296164,0.48956299748501153,0.5104370025149885,50.89267688755263,51.9663336060292,1.2679521461470686,1.2984342863821565,1.3427337383402715,1.8142470690192405,-0.8261919928816113,-1.5344564426434912,-0.13686007399515585,0.001540850428177719,0.14058318055322122,0.43170655378369416,1.7917594692280547,5.868056978659613,1.3113123687181678,0.0,0.87412689036662,0.9516656224425799,2.1568320974884894,1.8380185159257636,3.0472270802050976,1.039393879352904,Relax
73.31213010324915,818.7638888888889,71.688782208395,,,,,,,59.78341189684785,60.20440367056191,0.08755733268315108,0.07301666903993223,813.5,68.19959999999999,0.08383478795328825,94.25,1.1991417005789005,761.6,875.6,37.5,73.61111111111111,678.0,1056.0,12.0,125.0,,,0.04366136245867123,0.029738416493487435,0.00357310557371504,0.0769728845258737,1.4681804751854508,0.5672304309187591,0.3863492537231231,-3.515315584374841,42.57094209274659,92.56761192047657,0.4598902489708673,12380.044157519853,2.1744318394177284,4.799692303703483,805.1278506349931,0.5138888888888888,0.5352112676056338,0.8421052631578947,0.1,49.21780986762936,49.22283192720226,49.226361289123645,54.929577464788736,0.5447946468682761,0.4552053531317238,31.424058117490627,28.724305288130367,0.4706267068901708,0.5293732931098294,63.50345351004583,67.35038358433756,0.4835762769275585,0.5164237230724414,50.10069877892913,51.77431739406673,1.2461681778285982,2.3126471812275984,1.5421141471095163,2.0984254831214733,-1.6004670104968657,-1.866757888433372,-0.2594482459202203,0.0024567675970044766,0.37785406587133513,0.4506212067066646,1.55814461804655,5.9754805569978675,1.2679424638224872,0.0,0.510370335803804,0.7928029559328719,2.092967049447198,1.78397684224436,2.977001225598823,1.0283208335737186,Relax
72.4878910973574,828.0140845070423,79.91843930939778,,,,,,,62.0734587864595,62.515283431540794,0.09651821243714372,0.07496667019065853,819.0,81.54299999999999,0.09956410256410256,104.5,1.2874816527354673,761.0,898.0,39.436619718309856,73.23943661971832,678.0,1056.0,14.2,125.0,,,0.042797645675883,0.01776463209857749,0.003555840410645396,0.06411811818510588,2.4091490011386183,0.6674813124166914,0.277061033626905,-4.030545759063442,44.20498084224152,104.68216511699487,0.4222780527402844,14537.635506706316,2.3681079173087753,4.869463885818023,991.59465605832,0.4788732394366197,0.5,0.8,0.10526315789473684,50.917702782711686,50.8817995498752,50.95238954655704,52.85714285714286,0.5545273211279931,0.44547267887200703,32.921293932694965,29.5070613017743,0.5232469796668253,0.4767530203331746,75.72269487268281,72.28021288568783,0.5279815520770401,0.47201844792296,58.38552094905175,55.20460053957016,1.219815628958571,1.741861029600138,1.4804435533709772,1.9016881422173657,-0.6834445877836917,-1.2847460536644286,-0.2581640660833376,0.002092264533552864,0.2535498155969411,0.4202931880952132,1.3350010667323402,5.980733034997641,1.2531020893200053,0.8202278039469134,0.5070370618230713,0.6803238569630576,2.103352060552051,1.7590573721612222,2.691003569397473,1.039393879352904,Relax
72.60990922437126,826.3661971830986,80.62279710153231,,,,,,,62.31670264520923,62.76345549565999,0.09756303848869638,0.07541051758606926,815.0,85.9908,0.10551018404907975,115.0,1.2937590353672286,758.0,899.0,40.845070422535215,73.23943661971832,678.0,1056.0,14.2,62.5,,,0.0625941192305496,0.028140409494654697,0.0033630361357552194,0.09409756486095952,2.224349977651868,0.6652044537288498,0.2990556613897027,-3.570548675352922,44.38046499168126,105.46647048951398,0.42080165180168605,14704.698799877908,2.3764165271653366,4.874426243130573,1002.5290541323051,0.4788732394366197,0.4927536231884058,0.7647058823529411,0.1111111111111111,50.64935064935065,50.60204089782483,50.69883614615676,50.72463768115942,0.5501773127915361,0.44982268720846386,32.920413472318444,29.766969341337315,0.5377709404640082,0.4622290595359921,77.34158669331126,71.70394246676081,0.5396374638901088,0.4603625361098913,59.436834771997184,54.89775873860726,1.3279927588748213,1.7483146118543278,1.5582150522801075,2.1316088045442187,-0.964082501427102,-1.8260139270496856,-0.17203056682346868,0.002898215063729824,0.29324016070049214,0.4813975547850178,1.3437347467010945,5.980733034997641,1.2443339975635372,1.0043109956375524,1.1387787454762968,1.356945859946004,1.8824771256236836,1.7618825872541803,3.0050079105594785,0.779545409514678,Relax
72.70380862842015,825.7323943661971,81.66848627162986,,,,,,,62.730033818396294,63.16591580318184,0.0989043022035192,0.07596896312460363,804.0,91.9212,0.11432985074626865,119.0,1.30190406891953,758.0,901.0,39.436619718309856,73.23943661971832,678.0,1056.0,11.833333333333334,125.0,,,0.0554017977336629,0.016930679189036655,0.0014331231720762258,0.07376560009477577,3.2722726073232757,0.7510519491806664,0.22951998177041497,-4.078627966155856,44.66504740428839,106.78839973911293,0.41825748408447316,14984.482554907418,2.390871743009948,4.882611860418066,1021.2694696699841,0.5070422535211268,0.5217391304347826,0.7777777777777778,0.1111111111111111,48.5052754982415,48.546455391237316,48.48084661021291,52.17391304347826,0.5248026893782627,0.47519731062173715,32.365552451754105,30.797962477307212,0.5335228419402902,0.4664771580597098,78.00107487182095,72.93555126055577,0.5322238825438308,0.46777611745616904,59.714724593967034,55.982627351861495,1.347889758460141,1.4702962492190592,1.5453202812665154,1.9925093398005833,-0.634552203148278,-1.4528363691022737,-0.19585105126154673,0.0017537736099838182,0.1940707158628666,0.5229160358582083,1.5141277326297753,5.980733034997641,1.2395317663802472,1.0806568387009625,0.8901060618053557,1.3983364433165915,1.8165954001371714,1.7833731709429546,2.6445614059685867,0.86616156612742,Relax
72.6034975162602,826.3098591549295,85.08123707027566,,,,,,,65.84841900694568,66.26690026244908,0.10296529337951818,0.0796897414176918,802.0,88.95599999999999,0.11091770573566083,119.5,1.2920771425248845,758.0,900.0,40.845070422535215,71.83098591549296,678.0,1056.0,10.142857142857142,125.0,,,0.058738311951772246,0.024977930424804857,0.0019939009224219694,0.08571014329899906,2.351608438041005,0.6853134260534856,0.2914232722452647,-3.6897626270041326,46.85777454379035,108.14006569964624,0.43330632583427064,15919.087146350585,2.307836143574964,4.908888270180695,998.2782087608593,0.5070422535211268,0.5217391304347826,0.7777777777777778,0.05555555555555555,47.33314716559619,47.64474634909088,46.998415306922,52.17391304347826,0.4992768210436838,0.500723178956316,33.137941825131456,33.18590586116472,0.49819163657472476,0.5018083634252752,76.32816916263357,76.60472832537297,0.49836342554179125,0.5016365744582085,58.839241141118585,59.03214696091566,1.3580972194905472,2.155723661268576,1.6902614549148554,2.148287525565027,-1.0355259851342833,-1.3418040172848134,-0.2875302484824806,0.002748390707307082,0.36452022575757104,0.6142371116420193,1.6964492894237304,5.924395006828627,1.1966251001077683,1.1110437648332885,0.8532935005433505,1.2999760612624047,1.793784052764652,1.8098948070491483,2.124256046174115,0.86616156612742,Relax
73.41542387015986,817.9027777777778,77.74844950625045,,,,,,,65.818251674753,66.27625860538878,0.09505830230518487,0.08047197474200982,800.5,67.4583,0.08427020612117427,115.25,1.1812597194232937,756.4,886.0,40.27777777777778,73.61111111111111,678.0,1025.0,10.285714285714286,140.625,,,0.04902625182113582,0.02278162396617146,0.003642880326917642,0.07545075611422493,2.1520086493366377,0.6497781380336992,0.3019403003951657,-3.7818010343832658,46.864391891543676,99.79506767971647,0.4696062939899078,14692.710982545395,2.129443350308867,4.874072045720347,850.0317730567823,0.5,0.5142857142857143,0.75,0.05555555555555555,48.865190046486184,48.75697135094422,48.978855898874215,52.85714285714286,0.5279915467772089,0.47200845322279134,34.05845814813952,32.20226256469744,0.5335538537739994,0.46644614622600067,72.89507843255058,68.15690041009414,0.5325485749080408,0.4674514250919593,56.893193930013595,53.302667793447284,1.2559387775177506,2.1040321232546413,1.6284761819730198,2.1017939056934316,-0.8651474342459906,-1.383784328404329,-0.2750425392801247,0.0037364163114289397,0.4034437819392795,0.5725216160200319,1.5224265354444706,5.919925001442312,1.2747374051695992,0.6937973759849596,0.6666341387549224,1.038830905716427,1.7452992982033222,1.8292310916009067,3.033096109729758,0.8569340279780989,Relax
73.38097196691977,818.2535211267606,74.9606979518237,,,,,,,63.35545979404052,63.80034203585698,0.09161060235781264,0.07742766533628609,798.0,59.303999999999995,0.07431578947368421,109.0,1.1831766069650531,758.0,886.0,36.61971830985916,73.23943661971832,678.0,1025.0,10.142857142857142,125.0,,,0.06004105612619504,0.025204032979461485,0.006759933861154611,0.09200502296681115,2.382200347663483,0.6525845458226077,0.27394192367685516,-3.6807512584020934,45.11365449557561,96.46517731690854,0.4676677714214706,13671.886640104805,2.138270073562076,4.842798558754265,825.0744071904189,0.5211267605633803,0.536231884057971,0.8108108108108109,0.05,48.705120659211296,48.678044992468685,48.74571683227772,50.72463768115942,0.5088691480350496,0.4911308519649503,32.18819209189804,31.622203720106885,0.5573391139070174,0.4426608860929827,72.01622099885914,64.18095003835707,0.5486377679860908,0.4513622320139089,55.77820271890019,50.59228259301031,1.379879483589567,1.881019289882885,1.6876501197287448,2.119602288286576,-0.8006032746028051,-1.3433186921132574,-0.2703627119184274,0.0023356002669888856,0.2957009301405248,0.5930816213563075,1.5926307941177191,5.868056978659613,1.2325533773840274,0.0,1.1562879140080857,1.3974958702647546,1.7454541751448087,1.7644713748270984,3.055256991012653,0.86616156612742,Relax
73.24482327307678,819.7222222222222,74.74882301060698,,,,,,,63.41668594571958,63.85198553168122,0.09118799147346159,0.07736362907644544,799.5,63.01049999999999,0.078812382739212,113.0,1.1786933028097204,758.2,886.0,37.5,75.0,678.0,1025.0,10.285714285714286,117.1875,,,0.061520761195188026,0.03249806733899353,0.006998536819273932,0.10101736535345548,1.8930590718965914,0.6090117375357147,0.32170773040144307,-3.426574657907154,45.15017196167711,96.01539740705866,0.4702388698164973,13619.155081455407,2.1265787755704517,4.84112027518586,816.7372250152526,0.5416666666666666,0.5571428571428572,0.8205128205128205,0.047619047619047616,51.44989951191501,51.49293184875848,51.40501617202959,47.14285714285714,0.5248740102052608,0.47512598979473913,32.718714609750265,31.12956793789467,0.5631348558131717,0.43686514418682854,72.05217388441675,63.46212081048963,0.5562036207551708,0.44379637924482906,55.95547358026966,49.98245080908489,1.3416260790727779,1.6799002856229883,1.6708817562929075,2.0581033094124823,-0.6305799983880238,-1.3869110863303034,-0.26949729907571607,0.00206875933375783,0.2521006219200549,0.5574962540707116,1.4384801142904606,5.93721823057893,1.2201267395019748,0.6655638864781441,1.022227092705954,1.479460977836205,1.719712032903421,1.753082530257578,2.5215096181352146,0.9426274307759088,Relax
72.52266421951441,827.9577464788732,73.20839854624765,,,,,,,65.43699259593154,65.8931250871243,0.08842045244167021,0.07903421747573598,812.0,71.1648,0.08764137931034482,104.5,1.118761661286972,769.0,890.0,39.436619718309856,76.05633802816901,678.0,1025.0,11.833333333333334,210.9375,,,0.055924088588294424,0.022471073711976833,0.005412220714714952,0.0838073830149862,2.4887145716801022,0.6672931020682776,0.2681276148183582,-3.7955264096819,46.593475582679005,92.86162371733701,0.5017516786536668,13592.872810564935,1.993017746713406,4.840281363156657,740.2994562291008,0.5492957746478874,0.5588235294117647,0.8157894736842105,0.10526315789473684,51.42378559463987,51.42502470320509,51.419476295332686,47.05882352941176,0.520838059651698,0.4791619403483019,33.63443714883364,32.26071330873522,0.5590332473734734,0.44096675262652635,69.43126723289166,61.66506539244949,0.5513483310788204,0.44865166892117947,54.55261786515866,49.21043544332583,1.169665447591433,2.0877754641839843,1.4800635464079286,1.8679865578948078,-1.0169434199208602,-1.154698664042435,-0.3141931361194052,0.0018343136564246967,0.30230899668805294,0.5660849745561709,1.4939250253122562,5.857424760319283,1.3414989260077674,0.0,0.0,0.0,1.7651865949529995,1.7807745837847238,2.7715793580592614,0.9527777227401621,Relax
71.99512224562454,834.1267605633802,75.18756158101547,,,,,,,63.934453041488396,64.38391096942175,0.090139251173566,0.07664836576913828,819.0,90.4386,0.11042564102564102,106.5,1.1760100853951891,769.0,898.0,35.2112676056338,73.23943661971832,678.0,1025.0,11.833333333333334,210.9375,,,0.0584903776427568,0.015428180788466729,0.006055254329352779,0.0799738127605763,3.791138984220423,0.7313691272649949,0.19291540888084516,-4.171559520499814,45.526300045789064,96.6488109088959,0.47104873425399446,13823.204856309583,2.122922592253033,4.84757885416136,820.711776771546,0.5774647887323944,0.5757575757575757,0.8157894736842105,0.11764705882352941,51.26933177706449,51.289615691656564,51.24685503010975,46.96969696969697,0.516637367937288,0.48336263206271207,32.729346845415904,31.657817222675785,0.5522429528031996,0.44775704719680054,71.8226800057346,64.67221417964106,0.5457752042098016,0.4542247957901983,55.81087487279555,50.915187705642964,1.2122351399135392,1.4165344784832117,1.4373831752681783,1.5977266567041837,-0.11232112686382223,-0.2973867675260333,-0.3868058039733018,0.0007368738714015844,0.13141860076634165,0.5720484047546837,1.2878542883066382,5.924395006828627,1.2739275912302384,0.8712697164107144,0.0,0.0,1.7879376583873756,1.7951368121399542,2.67252452029108,0.9527777227401621,Relax
71.43760988711465,840.7571428571429,72.10910326947022,,,,,,,63.98811030863128,64.43347779321368,0.08576686369195989,0.07610772129890048,825.5,86.73209999999999,0.10506614173228344,109.25,1.1269140926598595,778.8,900.8,34.285714285714285,72.85714285714285,731.0,1025.0,11.666666666666666,156.25,,,0.06023596523446921,0.016299437325144453,0.0076751090527829415,0.08421051161239661,3.6955855611988357,0.715302212053084,0.19355585203148223,-4.116624691695035,45.56134908301421,91.46618431406917,0.49812233258325656,13092.030545411431,2.007538981065177,4.823977119864497,734.4877218391443,0.6142857142857143,0.6153846153846154,0.85,0.1875,51.77136052396546,51.75594066723856,51.78199761082942,49.23076923076923,0.5535521504748353,0.4464478495251647,33.910457349423325,30.453677455903993,0.5537336864779407,0.44626631352205937,68.06299167652588,61.102307951635055,0.5536975763308986,0.44630242366910167,53.77029827705017,48.274830437841416,1.3956153609948718,2.0103564849497912,1.7042564982890112,2.3190945161487453,-1.2821041349237365,-2.122002633402465,-0.19416468051182997,0.0033576887944576743,0.37308636776667514,0.5346507231558335,1.6314168191528755,5.843568731230682,1.2967957610643883,0.8280126132795766,0.0,0.0,1.8394300787572406,1.7864261378094217,2.7191810572247737,0.9631730455199232,Relax
71.38107321710585,841.6571428571428,73.3723649185946,,,,,,,66.03973331874981,66.46929115513919,0.08717607346563959,0.07846393733981409,828.5,82.2843,0.09931719975859989,109.25,1.1110336343190976,778.8,901.0,35.714285714285715,75.71428571428571,713.0,1025.0,11.666666666666666,171.875,,,0.05395738695117702,0.018375985489862,0.008655272679954749,0.08098864512099377,2.9362989528341337,0.6662339747821051,0.22689582548774606,-3.9967106032200532,47.000886516461925,91.94386631216715,0.5111911038946835,13576.214293035602,1.9562155764862876,4.839748794423765,719.4480937689368,0.5571428571428572,0.5538461538461539,0.8055555555555556,0.13333333333333333,52.6406429391504,52.59440362312512,52.68318511197207,50.76923076923077,0.5964323454935767,0.4035676545064237,36.32795876780436,29.882613477326476,0.5329857752849095,0.4670142247150904,67.12442391062314,62.83300300874238,0.5461474903100808,0.45385250968991914,53.969476899300815,49.19835797733459,1.3526129723212132,1.5343167152432697,1.6088451762628717,2.0292766819824015,-0.6243024654269682,-1.447741008054452,-0.22598127782706895,0.0017859464720701528,0.21150505825831092,0.484890253480176,1.9740810260220099,5.872140159802109,1.3601104828260064,1.0428264008395574,0.840093846785475,0.9799977937693308,1.9533112885306414,1.8571158522868811,2.602007225791416,0.8756118595635667,Relax
70.89700969713716,846.1714285714286,72.73058711627063,,,,,,,64.75830202498688,65.13298743997488,0.08595254420142734,0.07653094850332727,843.5,81.54299999999999,0.09667219917012447,108.5,1.1231083095447385,781.6,905.8,34.285714285714285,77.14285714285715,713.0,1025.0,10.0,171.875,,,0.060067049193200994,0.04064206421625766,0.014131805181915936,0.11484091859137459,1.4779527160230443,0.5230457047015686,0.35389880814929486,-3.2029516842789416,46.05597709774446,90.14246089722086,0.5109243373137641,13042.633279129805,1.957236966353179,4.822335393316325,705.7206268243465,0.5857142857142857,0.578125,0.8108108108108109,0.13333333333333333,46.39205375401694,46.44016186017595,46.34207917255958,56.25,0.5533088425876327,0.44669115741236726,34.31107692859552,30.828629741925052,0.48581278264587857,0.5141872173541213,62.82953984819253,64.63831819494823,0.4998188140940989,0.5001811859059009,50.620159410730885,50.63850605436579,1.13458766517001,2.0857245582802166,1.5033390248502005,1.716082496037211,-0.6076901505547152,-0.44392494456097786,-0.39800020796493474,0.0016625433303911776,0.2941816756006349,0.47778314752326434,1.8191584434161698,5.87214015980211,1.3467014547560636,1.1118647845559646,0.801363201134015,0.9412671481178708,1.8884032199660956,1.8721474063229917,2.3979560747073365,0.9631730455199232,Relax
72.25287159178393,831.5428571428571,76.18621080192995,,,,,,,65.18735540231576,65.66282158198365,0.0916203057334919,0.07839326000141052,825.0,80.0604,0.0970429090909091,108.25,1.1687268233499077,777.8,898.4,32.857142857142854,77.14285714285715,639.0,1025.0,11.666666666666666,187.5,,,0.04457111442652676,0.04857256717091334,0.016764334750754017,0.10990801634819412,0.9176190805335328,0.40553106049447046,0.44193834794573134,-3.0246963689478985,46.43062641246302,97.24659946892433,0.4774524422039063,14184.98364583305,2.094449439579845,4.858798949386679,814.7123430349369,0.5714285714285714,0.5625,0.8333333333333334,0.125,50.525700934579454,50.52637632750317,50.52700185308726,56.25,0.6144238902076342,0.3855761097923659,36.39590313079045,28.831916546853176,0.35948438627995716,0.6405156137200428,58.30615997488147,77.82861181630393,0.4068142785276904,0.5931857214723097,48.60180066480228,58.68804064295225,1.189512691073841,1.3843900695341231,1.4453120437881812,1.5287622397321745,-0.030938363173987682,-0.1393040355232964,-0.43972060492164894,0.0005495307316061029,0.12027173755269095,0.4822479120773657,1.916922612182061,5.786425874087824,1.3157339124187233,1.0548769262940265,0.825804243325488,0.927170520352529,1.917880476379787,1.8284423601028228,2.427095246621941,0.9631730455199232,Relax
72.22767455573705,830.8591549295775,73.18026583613292,,,,,,,64.56878945302113,65.01875665033981,0.0880778233012737,0.07771327916401655,827.0,71.1648,0.08605175332527207,102.0,1.1333690232705589,779.0,889.0,32.3943661971831,74.64788732394366,639.0,1025.0,11.833333333333334,148.4375,,,0.06340264390353312,0.02366379815027715,0.0048993229807462214,0.09196576503455649,2.6793096991824426,0.6894157176826543,0.25731094762692824,-3.7438089028727077,45.9752037317732,93.09682452726324,0.4938428777268278,13446.473578739968,2.0249355515726526,4.835578512805799,754.060278895105,0.5633802816901409,0.5606060606060607,0.8378378378378378,0.13333333333333333,48.52295992980403,48.496254212078696,48.56016474095805,56.060606060606055,0.591151285469043,0.40884871453095717,35.35749105795041,29.40447565262467,0.33851332488102276,0.6614866751189774,54.16549943911084,75.71735209033477,0.3880665374274208,0.6119334625725791,45.73867894573126,57.43579282980919,1.3393287503331452,2.059391543387876,1.6226395994125167,2.1354042921774563,-0.910825105048092,-1.3345116443015792,-0.2510115575586963,0.004212934980327289,0.38477846060862064,0.42741934532011827,1.8562979903656258,5.755380922321584,1.2922131292218806,1.1924358928189438,0.8106480878713791,0.9505520348552348,1.7715511909667674,1.7884955923256547,2.535034407306528,1.126010035965646,Relax
71.44657003400468,839.8428571428572,81.43524781027762,,,,,,,61.55061543859302,61.998927471954175,0.09696486326896925,0.07328825257618791,841.0,83.76689999999999,0.0996039239001189,106.25,1.3230614711159603,778.4,901.8000000000001,35.714285714285715,78.57142857142857,639.0,1051.0,11.666666666666666,148.4375,,,0.06127855993446385,0.02320594435767363,0.0033727331202389153,0.0878572374123764,2.640640647498603,0.6974787933160254,0.26413241573658475,-3.763346810815685,43.839862041711726,103.47147491486298,0.4236903173341586,14250.81463822604,2.3602144280566932,4.86080980116765,976.8594719454633,0.5428571428571428,0.5384615384615384,0.8,0.125,49.42222222222222,49.48474211290153,49.34261361960896,55.38461538461539,0.5710831850959239,0.42891681490407607,33.13120086245343,28.712699588284256,0.3616279458194277,0.6383720541805723,62.223098243254356,82.67183417626245,0.3935078087996621,0.6064921912003378,49.84671717163487,61.88316121415621,1.3241831845316052,1.960823309286578,1.5709829320029791,1.9747041229633995,-0.5640299443894783,-0.6911566680353767,-0.2941062873700183,0.004272724526576097,0.34000786826667767,0.5245318843683822,2.512305623976115,5.729283016944967,1.2349498427996926,1.4011180763734945,0.9027294781610562,1.114553943257857,1.8079660205761858,1.7625954305559903,2.0496274068357514,0.9631730455199232,Relax
71.68458843518643,836.8450704225352,84.27228791878383,,,,,,,60.640156426485014,60.99440968172707,0.10070237717506483,0.07246282325098351,838.0,85.9908,0.10261431980906921,109.0,1.3897109256462492,775.0,909.0,35.2112676056338,76.05633802816901,639.0,1068.0,11.833333333333334,148.4375,,,0.042115622897672234,0.025615151224013376,0.0043728378572921375,0.07210361197897774,1.6441684270905337,0.5840986566657895,0.35525475799300643,-3.664571257879592,43.12956070041962,110.37951658328379,0.3907388076652556,14955.92900879287,2.559254367323289,4.881783504986184,1129.9570395152095,0.5070422535211268,0.5,0.7575757575757576,0.14285714285714285,46.69051878354203,46.598433998595425,46.790810973060424,57.57575757575758,0.5390006448956123,0.4609993551043876,31.707677486599405,29.323779735412938,0.36950840459585255,0.6304915954041475,67.096620792251,87.64520043573573,0.39201175191412185,0.6079882480858781,52.475391057777415,65.35122499766666,1.3973561806517232,1.8175587007472105,1.3973561806517232,2.2557050376966834,-1.7388571209785795,-2.5690966044318015,-0.02774628038583442,0.004098544642157289,0.32340058525100523,0.5245277154437757,2.512305623976115,5.783549936406092,1.2126024929149268,1.0304358841025538,0.9027294781610562,1.0760162733010423,1.809878371090008,1.7690607983945787,2.324529315361399,0.9527777227401621,Relax
71.43507172811952,840.6857142857143,86.03210436439679,,,,,,,65.82475636661816,66.29339126557184,0.10233563257048285,0.0782988877389762,841.0,85.9908,0.10224827586206896,115.25,1.3069870534002679,775.0,913.0,35.714285714285715,74.28571428571429,639.0,1068.0,11.666666666666666,218.75,,,0.05662611138294614,0.01389446466449379,0.002819587287015265,0.0733401633344552,4.075443908799862,0.7721023353154055,0.18945232779385116,-4.276264743734339,46.87650651173889,112.72012564907259,0.41586634367032016,16599.942173777985,2.404618732004806,4.927076685131191,1084.1957024387812,0.5142857142857142,0.5076923076923077,0.7575757575757576,0.13333333333333333,51.33256083429896,51.352682548115034,51.30152136752971,53.84615384615385,0.6075392179817373,0.3924607820182628,36.545298241078996,29.37260628544903,0.3822784624623753,0.6177215375376246,69.69335624906901,88.59267927477453,0.41550365051814037,0.5844963494818597,55.644958121958624,65.99777579995808,1.4142523084880494,1.7377149439762132,1.684840724823521,2.158124947508273,-0.3727959093675999,-1.114486106838525,-0.22763989610298788,0.005161236094136582,0.3456269445776109,0.47719407454080454,2.3353749158170363,5.786425874087824,1.270051143739462,1.2597221172041022,0.0,0.0,1.7891755912733456,1.7769353945650959,2.2972249920865435,1.05073423147628,Relax
71.80944785134396,836.1142857142858,88.58215589883382,,,,,,,66.11068891189834,66.57385696632386,0.1059450333672493,0.07906896227161159,839.5,91.17989999999999,0.10861215008933887,119.75,1.3399067133740177,765.2,913.0,38.57142857142858,71.42857142857143,639.0,1068.0,14.0,148.4375,,,0.061434666566416746,0.014436222261204126,0.0020405282656916508,0.07791141709331252,4.255591626038908,0.7885194347426386,0.18529020264018853,-4.2380147960050625,47.074825710630876,116.6341234601959,0.40361109008288004,17249.011960095762,2.477632613600022,4.943734333280202,1155.906032574531,0.5,0.49230769230769234,0.71875,0.14285714285714285,48.328974135425746,48.300839367794254,48.36928111623165,56.92307692307692,0.58721768858618,0.4127823114138203,36.08496917000207,30.254314228085963,0.37075461800416204,0.6292453819958378,71.01807797768232,92.52000516474287,0.40109383234518586,0.5989061676548141,56.32802321954929,68.83049791006822,1.3305549318275247,1.6044542407408637,1.593412268753655,1.9302641998950951,0.02359942133220727,-0.49653530131778645,-0.29005201732278924,0.005097540482382966,0.2955781755813466,0.46238823951799235,1.9169226121820613,5.786425874087824,1.2449158687761797,1.2436833427769372,0.7538837252125428,0.9471811972709132,1.7602655496164423,1.773945720989704,2.5123748309933394,0.9631730455199232,Relax
73.36807356950798,817.5833333333334,98.91962165968779,,,,,,,63.88766549825484,64.30134037674078,0.12099026194233549,0.07814208398522658,810.0,102.29939999999999,0.12629555555555555,134.5,1.5483367703017712,724.0,907.6,36.11111111111111,68.05555555555556,636.0,1068.0,14.4,156.25,,,0.04595176234807947,0.022143351591254593,0.0024626617100576165,0.07055777564939168,2.0751945412919284,0.6512643280652463,0.31383290342494663,-3.810217981439886,45.46791381977775,132.33372848282102,0.3435852245762137,18902.76998381577,2.910486040933291,4.983495559666239,1540.6218779756275,0.4722222222222222,0.45454545454545453,0.6666666666666666,0.13333333333333333,47.55434782608695,47.29561870732057,47.817285683001195,59.09090909090909,0.5940006073237727,0.40599939267622753,35.06514345777421,28.989776523063142,0.3755415718498321,0.6244584281501679,81.09602338191446,104.57366153006679,0.3986341895901297,0.6013658104098705,62.474511979183575,76.73349278073465,1.3975953557284606,2.177358039475298,1.7413475764215858,2.1759990500790742,-0.5900308868046125,-0.8465673513169438,-0.3003766648491897,0.005611633676878691,0.45193834238178515,0.5654287629549151,2.03688192726104,5.8921472236645345,1.1193219109109942,0.6825072769552464,0.8887864655442281,1.1944634403640189,1.688234528446126,1.7165818849696035,2.7323999731752666,0.9426274307759088,Relax
73.23649802509202,819.1666666666666,100.45768501649457,,,,,,,65.304055910103,65.76782527228855,0.12263400002013579,0.07972010894417457,810.0,107.48849999999999,0.13270185185185185,145.25,1.5383069798112348,724.0,923.2,37.5,68.05555555555556,636.0,1068.0,14.4,148.4375,,,0.053550313580498436,0.021612427019283228,0.0022086255282686806,0.07737136612805035,2.4777556695839533,0.6921205642391289,0.2793336618034436,-3.8344868047611604,46.50487523392723,133.72056813389744,0.34777653043891377,19536.491347573603,2.8754096739591457,4.997816679313238,1538.0056608780872,0.3888888888888889,0.391304347826087,0.5925925925925926,0.06666666666666667,50.37922987164527,50.27418691847863,50.48346940092969,56.52173913043478,0.6159392049883086,0.3840607950116913,36.49843440869367,28.820751452481495,0.3841924429716313,0.6158075570283689,82.884366443581,104.9350853685196,0.4091982417897166,0.5908017582102831,64.03887067648652,76.94805993520632,1.4061477355990732,2.3983437454509966,1.7715135707293732,2.314953776897806,-0.9294328123761257,-1.1835759709412272,-0.2734102097753124,0.006642499141130672,0.5513618886093945,0.525979423152962,1.7047480922384255,5.9754805569978675,1.1453941382057558,1.0644798865604408,1.034092960428115,1.0731658867502765,1.831346185874756,1.7012707007057934,2.3730718798021537,0.8569340279780989,Relax
73.68044216070417,814.9166666666666,98.15333649341082,,,,,,,66.2546304520524,66.70957505805713,0.12044585723703138,0.0813023382170599,810.0,83.76689999999999,0.10341592592592591,112.5,1.481456251792742,724.0,908.4000000000001,38.88888888888889,70.83333333333334,636.0,1068.0,12.0,218.75,,,0.058487607404527735,0.008945309699882427,0.0017401801970493669,0.06917309730145953,6.5383546648246815,0.8455253514185733,0.12931775572949059,-4.716625939939707,47.17079289362517,131.28754287243282,0.3592937445669103,19455.686936385915,2.7832379915364003,4.99601667933003,1461.617908552076,0.4166666666666667,0.411764705882353,0.6428571428571429,0.0625,51.497005988023936,51.478378876662,51.49711066675691,54.41176470588235,0.6113576349116202,0.3886423650883796,36.89173349139343,29.41416082676603,0.3938211747410101,0.6061788252589899,82.3897247527579,102.2171813769372,0.41870365811515353,0.5812963418848464,63.832071660080125,75.21151848549708,1.4456795786051146,2.2036134454555065,1.7843059645053923,2.2746473877345412,-0.7715909035664072,-1.0517951801377414,-0.2774830135292666,0.005450631976827471,0.46396259318480904,0.5406307170753322,2.174751721484161,5.881662675023375,1.1683119222690037,0.8183410025380677,0.9602134941429408,0.9460474084795654,1.8702410545751387,1.6833792720582987,2.304703650334067,0.9426274307759088,Relax
73.9917242954213,811.4109589041096,95.28011854183174,,,,,,,63.088562090656865,63.53040749165976,0.11742523008379985,0.0777516761369161,809.0,69.6822,0.08613374536464771,96.0,1.5102597901172057,727.0,894.0,34.24657534246575,67.12328767123287,636.0,1068.0,10.428571428571429,179.6875,,,0.051170503399590186,0.014406637321456016,0.0022299789534186844,0.06780711967446489,3.5518700344723197,0.7546479432433436,0.21246496519275296,-4.240066253492414,44.92278194889725,128.01196882617776,0.3509264200904219,18066.211613380474,2.849600208905142,4.963837202871655,1459.131732437739,0.4383561643835616,0.4347826086956522,0.7,0.058823529411764705,50.363196125908,50.319478261976045,50.39980645981041,53.62318840579711,0.5969459682034532,0.4030540317965468,34.70884938098802,28.52031645519077,0.40182054274184287,0.5981794572581571,81.14591188607923,99.0070964473303,0.4232158869970849,0.5767841130029151,62.40738434342304,72.8553827717458,1.5420545879795529,1.2701479107257883,1.760773019747941,1.8967755262260042,0.18829957447628587,-0.072313527467462,-0.3929238828568016,0.0011161104680356866,0.12589772970519836,0.5728348930560077,1.4552872326068418,5.823319250631203,1.1213110706202258,0.7242764984171677,0.5877917418052172,0.5800711675233615,1.7326190780509847,1.6465177612777948,2.3693588564696655,0.8479211724493175,Relax
73.09001384628775,821.1666666666666,101.31362546185657,,,,,,,65.22042797584291,65.68065231505537,0.12337766445527491,0.07942410551147909,813.0,81.54299999999999,0.10029889298892988,109.75,1.5534032603923158,739.4,901.2,37.5,66.66666666666666,636.0,1068.0,12.0,179.6875,,,0.04510546828292219,0.015607174566993804,0.0020320555659326636,0.06274469841584866,2.890047015832811,0.7188729792592168,0.2487409288917961,-4.160024562311351,46.443234644731554,135.89911854951532,0.3417478725427479,19828.459387412946,2.926133797292078,5.0042590820825055,1590.636015239758,0.4166666666666667,0.42028985507246375,0.6551724137931034,0.0625,49.25066118131061,49.26178100929659,49.24440277760274,50.72463768115942,0.5612738524500601,0.4387261475499398,34.79655155327895,30.76419532972891,0.41747213224434127,0.5825278677556586,87.80725182922279,103.72298177710984,0.4325122332006724,0.5674877667993278,66.78665088848425,76.50128320172274,1.4770000889498698,1.3453364333079305,1.7544145273378349,1.9556008736089558,0.18732165020348202,-0.32543044942099275,-0.35045647966550536,0.0022070865579954667,0.18399096246457836,0.5724493636897745,1.5404450409471488,5.8711781263822145,1.1234715803232107,0.841167156377855,0.5553674183625339,0.8117142473045788,1.6990335498561595,1.6589335277176247,2.3725131471852667,0.8569340279780989,Relax
73.28991495072002,819.7222222222222,99.87671586739806,,,,,,,64.82207500883248,65.26376756008514,0.12184214744921486,0.07907809896028362,812.5,71.9061,0.08849981538461538,95.5,1.540782454955185,745.2,901.2,36.11111111111111,63.888888888888886,636.0,1068.0,12.0,140.625,,,0.04399508975412818,0.010396734030181147,0.0018246797745410132,0.056216503558850335,4.23162597277307,0.782600961798911,0.18494095811734912,-4.566263557713807,46.14845260751882,132.6974107392507,0.3477720654112848,19238.422796283892,2.875446591195795,4.99113957480768,1526.2572694827468,0.4583333333333333,0.463768115942029,0.6875,0.11764705882352941,51.69415292353826,51.992027011335566,51.43281645254476,47.82608695652174,0.572597918447383,0.42740208155261705,34.93115678424799,30.179108194719266,0.4526984821191223,0.5473015178808778,89.28262858725525,98.16931826926191,0.46564210015109736,0.5343578998489027,67.7922321572888,72.62228866154044,1.4535018968931872,1.295168149645158,1.7537559983275932,1.8085706388047682,0.33948457748297756,0.06042185178444193,-0.45767758766134514,0.0014453003492248741,0.14738785754612044,0.539405427456173,1.6397432619294294,5.8051380221855,1.124775022175027,0.9660985171720343,0.7426678412786453,0.8604280219522137,1.7010393618642914,1.6379892491286536,1.9395000179626376,0.8569340279780989,Relax
72.4332064197191,829.1830985915493,104.17942076178755,,,,,,,79.05730290654459,79.62138148282756,0.12564103264857515,0.09534360148057933,813.0,90.4386,0.11124059040590405,136.0,1.3177709956149197,743.0,920.0,38.028169014084504,67.6056338028169,636.0,1101.0,11.833333333333334,187.5,,,0.060413785891693786,0.017364300436713956,0.002353333773191288,0.08013142010159903,3.4791949213202265,0.7539337979421161,0.21669777491398096,-4.053338879418847,56.300818773948365,136.83956542852167,0.41143669667203947,24203.393952548147,2.4305075558126763,5.090846379723778,1330.35839083258,0.4647887323943662,0.47058823529411764,0.71875,0.11764705882352941,50.9625668449198,50.80365645365777,51.118860613124774,50.0,0.638801016676419,0.36119898332358097,45.00225437187258,33.8395617883711,0.4408716332814668,0.5591283667185335,90.8589606182994,102.32162988356365,0.46953060587976453,0.5304693941202356,71.69572380270809,76.20640355002318,1.3704665554147928,0.6968281125560845,1.4449245749937758,1.209847955901624,0.7498693483496197,1.027659737024929,-0.8373523755088621,0.0009647490783120639,0.05348801426339965,0.5991690675059158,1.6894806201076367,5.83616032363862,1.1138118717903647,1.232210515793973,0.7836666247639297,0.6863833235892376,1.8544955488927133,1.6652336760083977,2.732074255246162,0.9527777227401621,Relax
71.89580916979058,834.8571428571429,105.54829730593569,,,,,,,78.72572089498313,79.30169979762627,0.12642677637603522,0.09429843365244385,818.5,110.4537,0.13494648747709223,140.75,1.340709187620305,742.0,929.8,38.57142857142858,68.57142857142857,636.0,1101.0,11.666666666666666,179.6875,,,0.04872331884675911,0.01978300032512024,0.0023256750365773316,0.07083199420845669,2.462888239701981,0.6878716234272279,0.2792946965025352,-3.9229322795018575,56.0747696865214,139.21862540874,0.4027820955844683,24525.321690328103,2.482732005624336,5.096584822544587,1382.5701483252167,0.44285714285714284,0.44776119402985076,0.7,0.125,49.67462039045552,49.54882518133867,49.81489557571579,52.23880597014925,0.6350843224738333,0.36491567752616677,44.68764140249121,33.87411817823368,0.43333787793650136,0.5666621220634986,91.64539924263826,104.79955371258268,0.4614996604455749,0.5385003395544251,72.09668680480473,77.87940145092746,1.4424793638199302,0.7664958917181379,1.518288628046419,1.2963208103546966,1.0613722191362354,1.3886097076620953,-0.7895877461184699,0.0010739346224165889,0.06380975078930738,0.5984162365933181,1.6422277352570913,5.782644981137961,1.0753608493131546,1.2722820470608454,0.8033802609341728,0.8959622727260997,1.8475901588115036,1.6642624753027333,2.6636110193459634,0.9631730455199232,Relax
73.3874710021331,818.2222222222222,94.93292253432246,,,,,,,75.76148636940414,76.27560690847062,0.11602339799143158,0.09259279974533369,812.5,89.6973,0.11039667692307692,117.75,1.25304989492208,736.4,900.0,34.72222222222222,63.888888888888886,636.0,1101.0,12.0,140.625,,,0.042018069977841466,0.02108100195414231,0.0033867610168399273,0.06648583294882371,1.9931723392106195,0.6319853134754908,0.3170750973424524,-3.85938302540712,53.934998884099045,123.07780088392275,0.4382187404775478,20854.52366219901,2.2819653922382517,5.0261703845444545,1123.4371286796088,0.4305555555555556,0.4347826086956522,0.6333333333333333,0.11764705882352941,48.03530751708429,47.95641233925398,48.153346961924,55.072463768115945,0.6397505926002265,0.36024940739977324,43.153794734646446,32.38286583982338,0.3792116460401799,0.6207883539598201,75.7915102541859,96.97315114923391,0.4212073781835018,0.5787926218164985,61.670913024741104,72.2926069657616,1.227653941561089,1.7290838618148476,1.6223222034943148,1.3797892589436611,0.46410087826432544,1.2018721448600682,-0.6402667330988162,0.0009409735602619044,0.20290939190416374,0.49710740126875885,1.83258146374831,5.860693577741055,1.1224067486459062,0.9780057513570364,0.9061199482345259,0.8561025161594696,1.895214887057594,1.64231736934986,2.3391448613657673,0.9426274307759088,Relax
73.9108613259902,812.8767123287671,92.57323605387002,,,,,,,74.98842503272681,75.50698622446201,0.11388348891022096,0.09225067454312533,801.0,81.54299999999999,0.10180149812734081,108.0,1.2345003380650916,733.8,886.0,34.24657534246575,65.75342465753424,636.0,1101.0,12.166666666666666,140.625,,,0.04061665133045174,0.01730985377394782,0.0037665320140790673,0.06169303711847863,2.3464468193013737,0.658366863223954,0.28058034719064073,-4.0564793573197155,53.39150198627632,120.31694215220726,0.4437571386973354,20181.28413452146,2.2534848744868308,5.0119189068871295,1084.5296371380243,0.4657534246575342,0.4714285714285715,0.7272727272727273,0.1111111111111111,51.08664973186565,51.007501845821615,51.175055368172686,52.85714285714286,0.6692979314603272,0.3307020685396727,43.68436726864625,30.706814401761466,0.392741083884362,0.6072589161156379,75.40149434025626,93.75916605918535,0.43824865512260647,0.5617513448773938,61.61862256009002,69.76277542793908,1.3384812926570568,1.8719193578689532,1.5683166481360418,1.3007122347273161,-0.22739139108149686,1.2465889299756379,-0.642957233859355,0.0005418986238239005,0.15334914742864234,0.4606153081629354,1.4781019103730133,5.830034661530834,1.0946601753798337,1.0746525349915024,1.0152364554400855,1.2144889790190203,1.791254049840245,1.6129613679645032,2.1894997034906964,0.7631290552043858,Relax
74.44359830847358,806.8356164383562,89.9649644303934,,,,,,,69.4615201228549,69.94835871787089,0.11150346191647936,0.08609129134566645,801.0,81.54299999999999,0.10180149812734081,107.0,1.2951770170199923,730.4,873.2,31.506849315068493,64.38356164383562,636.0,1101.0,12.166666666666666,187.5,,,0.02337761249522894,0.015480554724604651,0.003849373028770276,0.04270754024860387,1.5101275704334276,0.5473884086778602,0.3624782564036972,-4.16817057653983,49.46095878227566,117.31458208507821,0.42160964053390965,18229.065325729833,2.3718622722517444,4.9677345112396765,1113.0161249303094,0.4794520547945205,0.48571428571428577,0.7352941176470589,0.1111111111111111,50.323375423467795,50.242313255491,50.42860864051774,51.42857142857142,0.6566338412115386,0.34336615878846155,40.080025582629375,28.983117961333342,0.4204968781641895,0.5795031218358105,76.07349789496256,89.30584576511038,0.45613679638930277,0.5438632036106972,60.80125628915532,66.3910958434271,1.2363467403641046,1.9859987631720593,1.5151359958225434,1.3041742844706867,-0.13230006288424434,1.2029939724681302,-0.6062244928163532,0.00044459778377740547,0.18624662053242447,0.4935137603907642,1.3862943611198904,5.830034661530834,1.0586416336890971,0.7727606133395789,0.8790127202536984,1.1963702254988433,1.8268172648526784,1.6051312064411094,1.984754087688979,0.6783369379594539,Relax
73.83863180529399,813.4722222222222,88.82424047747679,,,,,,,71.54187191162752,72.01304934283732,0.10919148564757264,0.08794629977184876,807.0,71.9061,0.08910297397769516,97.25,1.24156997998595,739.0,876.4,33.33333333333333,68.05555555555556,636.0,1101.0,12.0,187.5,,,0.043431580846444114,0.026621150067762476,0.004820183279933681,0.07487291419414027,1.6314689912303464,0.5800706612517984,0.35555114094712115,-3.626049263801801,50.92091552424172,114.62761859898357,0.44422902740730275,18337.29813862463,2.2510910775831054,4.970305456021639,1032.1488378910844,0.5,0.5142857142857143,0.7777777777777778,0.1111111111111111,52.40314593649869,52.529498895292946,52.299668408163555,50.0,0.6660823621678889,0.33391763783211115,41.58047275207094,29.440496890216664,0.4429579981216866,0.5570420018783134,76.29051451939357,85.55260568819773,0.4797646642264822,0.5202353357735175,61.43768517741987,63.97652380828103,1.3099538342661003,2.156233861673927,1.5632399528727525,1.8375494454408887,-0.7273043447131045,-0.3262034377612526,-0.3727830512989049,0.002620803346536781,0.30417494461501704,0.4803049156532393,1.2809338454620645,5.898955904159993,1.0915101025026994,1.1093687088577049,0.7717232629877421,1.1715701571328918,1.8228478913668913,1.6333965499462604,1.969703219272995,0.9426274307759088,Relax
72.2999988306701,830.4647887323944,79.2482232312616,,,,,,,72.28327212136587,72.80514423387343,0.0954263495653134,0.08703953870422089,813.0,63.751799999999996,0.07841549815498154,94.0,1.096356333982797,772.0,892.0,35.2112676056338,70.4225352112676,703.0,1101.0,11.833333333333334,125.0,,,0.03918763386925316,0.02813404387222895,0.005637627395193506,0.07295930513667562,1.3928901954949742,0.5371163252698536,0.3856128264862868,-3.5707749102453836,51.48101119303657,100.40120603814002,0.5127529162695532,16238.124658369677,1.950257069770232,4.917505981076899,783.2326475573611,0.5352112676056338,0.5507246376811594,0.7894736842105263,0.1111111111111111,49.92830513335246,49.80092326093118,50.07171253064497,52.17391304347826,0.6467336175052837,0.35326638249471615,41.400920664691235,30.59838017878099,0.4576611562613782,0.5423388437386216,67.92207678283073,73.93912130543808,0.4970225601528659,0.5029774398471344,56.24697656930909,56.58292378883184,1.1715613704651953,1.2822196459218969,1.2479479951503614,0.8605837635732909,0.14257561786486228,1.5049390661305164,-0.8021044271229844,0.0016166238110410592,0.11114081351361627,0.4408754296958697,1.2909841813155658,5.885593774403789,1.1706044413386265,1.325898866944329,0.8778671916173078,1.217931104192743,1.8955345897593787,1.6776509347997492,2.4212659141900357,1.039393879352904,Relax
72.67433144366106,826.3380281690141,78.57661296230428,,,,,,,73.58513048552288,74.11205773320071,0.09509015715567758,0.08904967214031233,813.0,63.751799999999996,0.07841549815498154,90.0,1.067832759741636,772.0,877.0,36.61971830985916,71.83098591549296,703.0,1101.0,11.833333333333334,78.125,,,0.040638136021367614,0.020676061511080403,0.005625542172426522,0.06693973970487455,1.9654679398003065,0.6070853606622009,0.3088757381226383,-3.8787786966537174,52.40513859083512,98.75153168610585,0.530676716563865,16258.017512781715,1.8843864235744245,4.918037696991615,744.3441824659097,0.5492957746478874,0.5652173913043479,0.8205128205128205,0.05263157894736842,50.777345918933925,50.6585255273714,50.90538072093239,52.17391304347826,0.659531862576972,0.34046813742302806,42.56154963398744,30.580020947661566,0.4305447402781973,0.5694552597218028,64.79671433112968,74.52013702511516,0.48086613354995633,0.5191338664500437,54.818334959009846,56.95782871301082,1.0929617595117467,1.2762845444212205,1.206069673861353,0.9206022547476649,-0.05073328771602448,1.0125601687861217,-0.7236706699626643,0.0008074178044422137,0.07826867457395749,0.4466677883831305,1.363304842895192,5.913762788488296,1.191166527086498,0.9820635500891821,1.009510930941227,1.2700027398827183,1.9736652416548155,1.6918254628109526,2.466883998204325,0.9527777227401621,Relax
72.8104651500922,824.887323943662,79.09100532131588,,,,,,,73.19240788106764,73.71693524857815,0.09588098037825785,0.08873018866521766,809.0,74.13,0.09163164400494438,92.0,1.0805902908650449,762.0,877.0,36.61971830985916,66.19718309859155,703.0,1101.0,11.833333333333334,78.125,,,0.04447914278110341,0.03815171794411941,0.007989995832394793,0.09062085655761762,1.1658490148792708,0.4908267751014154,0.4210037224693653,-3.2661844909649096,52.12574480255924,99.54266072567995,0.5236523157262951,16300.892794006963,1.9096640461009329,4.919181501168966,760.3721609642176,0.5352112676056338,0.5507246376811594,0.7894736842105263,0.1111111111111111,49.24393723252496,49.054380473513795,49.45375509478008,55.072463768115945,0.654337744900653,0.345662255099347,42.16736838506452,30.647954278373547,0.4217344288965174,0.5782655711034826,64.64408213496779,75.69599691711156,0.47179511850658384,0.528204881493416,54.57538049154674,57.745913494915975,1.1149127052512002,1.7005354682802318,1.3350012718634745,1.0828786698272226,-0.06177894335264966,1.1615435716325253,-0.6482607136040661,0.00038427219535242663,0.12884699016853385,0.40128572591301204,1.1895840668738362,5.913762788488296,1.136212877292677,1.2576152879282878,0.890559782811678,1.1043527925294963,1.849935874911891,1.70822892400735,2.423589898151989,0.86616156612742,Relax
72.98320965837344,822.1267605633802,80.93452902147244,,,,,,,71.45698006493137,71.92784658163788,0.09844531634757916,0.08691722918247294,806.0,71.1648,0.0882937965260546,95.5,1.132632934500297,758.0,874.0,36.61971830985916,67.6056338028169,703.0,1101.0,11.833333333333334,31.25,,,0.032975558214923664,0.046035927874417,0.012835093799503898,0.09184657988884457,0.7163005013145131,0.35902870041357726,0.5012263704335103,-3.0783331465984465,50.860668074021774,99.47000390579379,0.5113166389557094,15893.665486258633,1.9557352994464563,4.908194178149347,778.147991498551,0.5352112676056338,0.5507246376811594,0.8157894736842105,0.10526315789473684,47.438494934876985,47.63710351207387,47.23361476461168,59.42028985507246,0.6348009523623005,0.36519904763769934,40.548325078437784,30.75522814044816,0.36350535726536265,0.6364946427346373,59.971863368489636,79.35778021800914,0.4197894524067745,0.5802105475932254,51.18979909393792,60.18114878888927,1.04596257483694,1.912720178580539,1.2743086923231073,1.1930979881412211,-0.6770063768685333,0.3277458777169615,-0.5424582252497351,0.0003212114489804612,0.15146755389136993,0.4272638168459304,1.1394342831883646,5.829255746234775,1.095544165519646,0.9403363134002257,0.801554230219014,0.9840572718304028,1.8605652100403272,1.704301284898823,2.175235148544254,0.779545409514678,Relax
73.19424574221506,820.375,78.33989459085991,,,,,,,73.24683332096546,73.76772780827655,0.0954927863365655,0.08928457512840526,806.5,68.19959999999999,0.08456243025418474,92.0,1.0695328526705967,758.2,871.4,36.11111111111111,66.66666666666666,703.0,1101.0,12.0,31.25,,,0.014300257409423039,0.01701480192486192,0.006153710430046971,0.03746876976433193,0.8404598227222143,0.38165804480284926,0.454106233855028,-4.073671612304085,52.1616605659558,98.58684290290144,0.529093528406524,16155.493935243732,1.8900250075099378,4.915290350561909,745.3263939917495,0.5,0.5142857142857143,0.7777777777777778,0.05,50.25626423690205,50.14960054053198,50.37217533992081,57.14285714285714,0.6190847470085739,0.3809152529914261,41.04205160563979,32.19349978755694,0.47414189720935446,0.5258581027906455,67.88489111873503,71.49130822246056,0.5058431307222513,0.4941568692777487,56.09281791015009,55.44108846302662,1.1423732047844704,2.6872312976935095,1.4809519588714288,1.9079903434222265,-1.3578240235762227,-0.9025752748216087,-0.34108610787715554,0.004178537681676216,0.4978914897023024,0.39592218556377157,1.122142786078304,5.853884897245597,1.1499072921264357,1.101846752039165,0.8988210467903017,1.1004813424027287,1.8674123075757532,1.7450071915245602,2.490076510406427,0.8569340279780989,Relax
72.6569090015322,827.0,78.22440247683035,,,,,,,74.76754452491879,75.25183255095807,0.09458815293449861,0.09040815541102634,810.0,71.1648,0.08785777777777777,90.0,1.0462347396036182,767.0,880.0,39.436619718309856,70.4225352112676,705.0,1101.0,11.833333333333334,23.4375,,,0.04058594381202341,0.025067793448208156,0.005615874767335166,0.07126961202756674,1.6190473204543057,0.5694705310914976,0.3517318634835848,-3.686171386313453,53.21108109349702,96.35286522818693,0.5522521926823898,16107.07159213872,1.810766916366266,4.913986698985642,697.890322609194,0.5211267605633803,0.536231884057971,0.8108108108108109,0.05263157894736842,52.79244234509585,52.72739192743096,52.85337000639168,56.52173913043478,0.6381285569352411,0.3618714430647589,42.537962584843726,32.03315764026077,0.47417853708787727,0.5258214629121228,66.34918307110418,69.86888108076627,0.5125380264381018,0.48746197356189813,55.730119123650105,54.349718177208864,1.0958084930692529,0.8054552947544313,1.206308461759097,1.179757196174745,0.4961755160535297,0.3278374241724715,-0.5329642945515018,0.00011504654869102067,0.03184867798338666,0.4450517202952855,1.563975538357343,5.868056978659612,1.189702936757598,0.8389337518963496,0.9012268722141471,1.1086769672660854,1.9381792704441414,1.7833611132709888,2.1706586897928095,0.86616156612742,Relax
73.14914726529693,820.75,67.02338250802401,,,,,,,59.27805094589111,59.69972144359349,0.08166114225772039,0.07222424726882865,813.0,52.632299999999994,0.06473837638376383,73.75,1.1306610362274365,772.0,865.6,37.5,68.05555555555556,705.0,1047.0,12.0,23.4375,,,0.05690067515641867,0.0336914982137944,0.005389980145825282,0.09598215351603835,1.6888734005043942,0.5928255730052017,0.351018361014005,-3.390509751973822,42.214077867712895,85.55002184350712,0.49344321553690823,11345.595724290934,2.026575639330485,4.761797414323764,693.4943608489696,0.5694444444444444,0.5857142857142857,0.8536585365853658,0.10526315789473684,50.18495684340321,50.18940485289638,50.172570892577625,54.285714285714285,0.4832495610976168,0.5167504389023834,29.345722491896986,30.345863450747757,0.565694208243908,0.43430579175609213,64.34443487800988,56.37907357924652,0.549550671192578,0.45044932880742194,50.00688816724094,45.274006704871624,1.1834777105474414,1.910142549874346,1.5073466310930415,1.8717523155106817,-0.21147892092601062,-0.5037218844288516,-0.3092259216770959,0.006195605366138591,0.39724647066539004,0.464084574906551,1.8458266904983303,5.919925001442312,1.3205492190209644,1.112356737966772,1.2648049797179686,1.3566949594898958,1.887856668915231,1.7982893078725113,2.7690354801282866,0.8569340279780989,Relax
73.20219976310017,820.4583333333334,66.473321451457,,,,,,,60.39529409892607,60.81146111397835,0.08101974073612146,0.07361165295689531,813.0,50.4084,0.062002952029520296,67.5,1.1006374328201012,772.0,864.0,40.27777777777778,72.22222222222221,705.0,1047.0,12.0,23.4375,,,0.055077193851694545,0.03018759098329725,0.007395229298889386,0.09266001413388118,1.8244978170722095,0.5944008790255034,0.32578875867297263,-3.5003243336344343,43.000196527556135,83.98568911341461,0.5119943288134303,11345.551282355878,1.9531466340995312,4.761795713141612,656.1454640175815,0.5833333333333334,0.6,0.8809523809523809,0.10526315789473684,51.348947524458936,51.36903522825732,51.314650160728405,51.42857142857142,0.47298043470706114,0.5270195652929388,29.57943300915109,31.22350305230249,0.5932883319560237,0.40671166804397624,64.69015528507263,53.560991262749404,0.568292216482361,0.4317077835176391,50.29790774947636,43.83883511172178,1.1567760202793003,1.7526028956887663,1.1659801432802652,2.0220736599666522,-0.9290774342280717,-1.866653955598017,-0.011530239512730286,0.0052681521674300446,0.36888168624781265,0.48195093160321933,1.8718021769015916,5.91992500144231,1.3715095274593434,1.349307559553249,1.1774598379653003,1.315246030079831,1.9233477712429963,1.8505056674359637,2.4745352765789894,1.0283208335737186,Relax
72.69438814264167,825.9722222222222,63.478059250892194,,,,,,,59.35083088517433,59.75807026478201,0.07685253516166535,0.07185572261194807,826.5,46.701899999999995,0.05650562613430126,53.75,1.069539521252917,780.4,864.0,37.5,72.22222222222221,705.0,1047.0,10.285714285714286,140.625,,,0.0511230736514296,0.02869852637343536,0.009422659349004098,0.08924425937386907,1.7813832315359373,0.5728443936910362,0.32157280002973904,-3.5509095034081386,42.25533671484955,79.10672565759242,0.5341560577004366,10501.343106700579,1.8721120645996983,4.728214958224607,592.3866219782291,0.6111111111111112,0.6285714285714286,0.9090909090909091,0.16666666666666666,51.43808658795035,51.56066683257365,51.31046004443803,50.0,0.46626735812618214,0.533732641873818,28.86087316766421,30.87833267149359,0.6365757101379304,0.36342428986206965,63.11585073245937,47.68923810026221,0.5987548107781541,0.401245189221846,49.07423261591613,40.1729688917494,1.2049238161993088,1.8637957692769416,1.2661688355142042,2.1368217008377797,-1.206743287208857,-2.2043396151149364,-0.0328603703927579,0.005758746586523605,0.4087579642892658,0.45060809274967806,1.7676619176489945,5.881662675023375,1.397885817273606,1.232411166156258,1.0990424809623733,1.427702966239745,1.8649177504218926,1.8457566038235949,2.2249715643084778,1.1140142363715286,Relax
72.50363308675153,828.0985915492957,65.19819343018146,,,,,,,61.95413049760513,62.3600312617369,0.07873240468650199,0.07481492074717178,826.0,45.9606,0.05564237288135593,58.5,1.052362334948785,782.0,868.0,38.028169014084504,71.83098591549296,711.0,1047.0,10.142857142857142,132.8125,,,0.057805229982366264,0.033808036887460355,0.007233129122734848,0.09884639599256148,1.7098073506837257,0.5847985594408146,0.3420259944530959,-3.387056727022296,44.09520098017926,80.21850078064799,0.5496886697091806,11112.60148611579,1.8192115921346206,4.752785850163577,583.7377060952597,0.6056338028169014,0.6231884057971014,0.9302325581395349,0.15789473684210525,52.33866193013617,52.25709171019444,52.409492152749316,52.17391304347826,0.5007108775429688,0.499289122457031,31.222901294040422,31.178541487301203,0.5819497636082017,0.41805023639179834,61.195190230160485,51.86671919631405,0.5630795470822944,0.43692045291770554,48.57839474768037,42.791693174403925,1.1054178034715614,0.9685591853645352,1.2611296238427538,1.3073883266808624,0.3594269332904565,0.10131904559388527,-0.4522396735923802,0.0002878156373579177,0.05700926922886184,0.4935036447184533,1.9459101490553132,5.857424760319283,1.3948858833021025,0.8888370153723534,1.1570462452256438,1.3587896766930905,1.8819651742281551,1.8224803315331566,2.5703510197211243,1.039393879352904,Relax
71.65457900584059,838.0140845070423,65.89721280855218,,,,,,,63.857318631908925,64.30981075881321,0.07863497049374284,0.07620077014513746,834.0,45.9606,0.05510863309352518,61.5,1.031944563604397,795.0,880.0,40.845070422535215,73.23943661971832,711.0,1047.0,10.142857142857142,132.8125,,,0.0577645965843126,0.03218662119005878,0.009087249758153105,0.09903846753252447,1.7946772431694036,0.5832541438036949,0.32499110690993493,-3.4362044037640365,45.47390328438041,81.58096297340904,0.5574082681421942,11654.695569076348,1.794017163277709,4.77347104381178,585.4305910840765,0.6197183098591549,0.6376811594202899,0.9318181818181818,0.23529411764705882,51.04077559167379,51.11519785034693,50.960251048711584,53.62318840579711,0.4920001541463619,0.5079998458536382,31.900888179902868,32.415441838192145,0.5203727129842152,0.47962728701578505,58.849948208731355,56.49900101327786,0.513645594446316,0.4863544055536838,47.33383077058643,46.05919009852209,1.094850237441607,1.300271226907622,1.2510209658713445,1.484947091737311,-0.3704695503544322,-0.6532354464443157,-0.32009436106472733,0.0005883635809918073,0.10230353324086942,0.5300338429120517,2.0794415416798357,5.885593774403789,1.4021179133356438,1.3100308429120273,1.383669634958534,1.6133906668703197,1.8338886914998143,1.8279566079565672,2.4389015219965313,1.126010035965646,Relax
71.99764934722435,833.9577464788732,66.55533393236858,,,,,,,62.12280464646503,62.561540716414534,0.07980660196919778,0.07449154937256619,829.0,51.891,0.0625946924004825,70.5,1.07135108131593,785.0,869.0,39.436619718309856,70.4225352112676,711.0,1047.0,8.875,132.8125,,,0.051977062825252884,0.02311477956946794,0.0067562071637334185,0.08184804955845425,2.2486505947004063,0.6350433896183671,0.28241087837969586,-3.7672830578423206,44.23768968205502,83.57890669237268,0.5292925144962695,11615.529076240467,1.8893144577185366,4.772009106246874,631.6273470968331,0.6338028169014085,0.6521739130434783,0.9333333333333333,0.2777777777777778,48.851774530271385,48.82706344235182,48.875947964244666,55.072463768115945,0.4761777846875961,0.523822215312404,30.53128592591303,32.022297485219326,0.5256800860779663,0.4743199139220334,60.59788246476314,57.56153476653563,0.5148442551155384,0.4851557448844612,47.98053136170494,46.57659187247911,1.190054309907463,0.9442638213688825,1.3425790933695907,1.4723464788499903,0.24638294764501012,-0.2348430211705761,-0.36257295626101815,0.0004732056214030287,0.06386320308732231,0.4781104016833968,1.5686159179138452,5.846792541978951,1.3061080226308666,0.991627797678054,1.1418641545822903,1.3437913168477256,1.8704312666099563,1.771002784776589,3.182652861324425,1.126010035965646,Relax
71.94283388270597,834.7464788732394,64.22498808538155,,,,,,,61.079573391718164,61.5057168815203,0.0769395136258304,0.0731714058550625,829.0,50.4084,0.06080627261761158,66.0,1.0514969984071612,788.0,871.0,39.436619718309856,67.6056338028169,711.0,1047.0,10.142857142857142,140.625,,,0.051707553418821356,0.018049158082108812,0.005789127339707116,0.07554583884063729,2.8648180255053752,0.6844527006695577,0.23891664132796533,-4.014656238941577,43.491109488662914,80.05899998289306,0.5432382305294353,10938.569252600773,1.8408130057882868,4.745930630648825,589.494593595655,0.6619718309859155,0.6811594202898551,0.9574468085106383,0.2777777777777778,51.44083384426732,51.487651409908445,51.382657827628094,53.62318840579711,0.500440359946391,0.49955964005360903,30.77383605446754,30.746744849505284,0.5192638082032942,0.48073619179670585,57.69048473522741,55.50902133235067,0.5149730302328839,0.48502696976711634,46.23430011632464,44.869888389185576,1.385792554100217,0.9909185208249092,1.4800213793908616,1.635198943416512,-0.01079778838779788,-0.243057375243664,-0.343400278868065,0.00041292633467624834,0.05536435112806197,0.46981973654295794,1.5404450409471486,5.790454513809937,1.2967413890734414,1.0063379226837872,1.1898111666575872,1.2159652677759178,1.8404834984467517,1.7388469746119768,2.418285204655637,1.212626192578388,Relax
72.74189366592196,824.9305555555555,69.59142864270054,,,,,,,58.64382824773035,59.05730259620429,0.08436034787902078,0.07108941213631761,823.5,52.632299999999994,0.06391293260473588,63.5,1.1866794976058523,777.0,867.0,38.88888888888889,69.44444444444444,673.0,1047.0,10.285714285714286,179.6875,,,0.05475309498843325,0.020249891806150187,0.008672117256554084,0.08367510405113751,2.7038709891676524,0.6543534735848221,0.24200617418742132,-3.8996058283500257,41.75981914436195,89.36216638311822,0.46730983406699245,11723.631808132734,2.139907887871759,4.77603228050888,764.9072188821729,0.625,0.647887323943662,0.9347826086956522,0.21052631578947367,49.25465838509317,49.20161962331905,49.30114946033893,54.929577464788736,0.46914520673612475,0.5308547932638753,28.604944627509017,30.428135476420973,0.5456890547425124,0.4543109452574876,66.01251971259966,60.232416702949465,0.5319680698252385,0.4680319301747613,50.87187639525996,47.716954274393785,1.411690546900472,0.7117136236954122,1.4968419288403199,1.4039379569844024,0.7041592069034124,0.7597807395814362,-0.6305356097773351,8.605172652274489e-05,0.022761366955124825,0.43429788283214776,1.4087672169719494,5.919925001442312,1.2546638226908602,0.9734184666899874,1.1438961548484663,1.300532855056077,1.866105860369979,1.7304369218123574,2.49717018036925,1.0283208335737186,Relax
71.91098635556494,834.6571428571428,69.49233837746218,,,,,,,62.32139698160761,62.77389431389157,0.08325854390891645,0.07466706241591985,835.5,52.632299999999994,0.06299497307001795,72.5,1.115063874418137,786.6,872.6,42.857142857142854,74.28571428571429,673.0,1047.0,10.0,203.125,,,0.06623699084081494,0.04121513315712962,0.014218133243461672,0.12167025724140625,1.6071036477861507,0.5443975573208,0.3387445222159314,-3.188949780429259,44.387846350840384,88.38096642329987,0.5022330955088812,12324.596024865756,1.9911073343081123,4.79774280285654,703.9039618346854,0.6714285714285714,0.6911764705882353,0.9574468085106383,0.2222222222222222,50.71868583162218,50.73295896505049,50.69476952339844,51.470588235294116,0.48106853537219246,0.5189314646278076,30.789011599824338,31.97770362943163,0.5638738703821802,0.43612612961781966,66.366624777431,58.36665436332746,0.5471926776131084,0.45280732238689136,51.73244687641614,47.05974857019477,1.1488413019305477,2.3203496111753354,1.4525822013850385,1.8712534045000484,-0.9660505159328299,-0.7860089882439709,-0.31956546500639665,0.004295803900717797,0.41760180004117026,0.40304146605420144,1.4663370687934272,5.900711588373539,1.3106352670105665,0.8864446526183157,1.0902518140045423,1.1257673499146603,1.8563318521543088,1.8013745152967784,2.7452307589893086,1.05073423147628,Relax
72.99693545411228,822.2957746478874,71.97507393261665,,,,,,,61.91907160618147,62.16480467240761,0.08752942207861504,0.07530024294809934,829.0,56.3388,0.06795995174909529,72.0,1.1624055733650773,767.0,864.0,42.25352112676056,74.64788732394366,658.0,1047.0,10.142857142857142,210.9375,,,0.05322432167728107,0.013982592131999953,0.008038734432329088,0.07524564824161012,3.8064703007015557,0.7073408618446659,0.185825924272757,-4.269942142196733,43.957154934996595,87.2528630579034,0.5037904017639561,12049.225570530238,1.9849524653479522,4.787929244735462,692.7711425418105,0.676056338028169,0.7,0.9591836734693877,0.2222222222222222,44.93891797556721,45.119460113091286,44.715288488199946,55.714285714285715,0.43161138394354237,0.5683886160564576,28.97212553422711,33.24731655293423,0.4301727836421805,0.5698272163578194,57.22702264380313,65.86448201517176,0.43046550112418297,0.5695344988758168,45.355904679795394,52.1704612261474,1.241324667194832,2.2333531160224496,1.5146405409736452,1.8908922996155297,-0.8216988730264756,-0.5211000938234109,-0.3315305555836239,0.004003199701001902,0.37714460104925623,0.43115449106576387,1.4307461236907246,5.896225992744119,1.2195954045911954,0.805626398229695,1.0218710815805234,1.0539330636884328,1.8577427778711975,1.7407383408262094,2.0529790688263665,1.126010035965646,Relax
73.28271470214226,819.0833333333334,67.95021997290515,,,,,,,57.52953925874901,57.918373839128236,0.08295886048172364,0.07023649110845337,826.5,56.3388,0.06816551724137931,76.0,1.1811361754052527,762.4,867.2,41.66666666666667,76.38888888888889,657.0,971.0,12.0,218.75,,,0.04191547622068756,0.012691577803242591,0.009224445364670946,0.0638314993886011,3.302621381714928,0.6566581800861275,0.19882938556679164,-4.36681667060784,40.95447489694511,87.19357151465289,0.46969603590630193,11218.523491632866,2.129036490739059,4.756905811656234,742.553182050247,0.6527777777777778,0.676056338028169,0.9375,0.2222222222222222,51.60624815797228,51.60643954624848,51.598275973827036,50.70422535211267,0.5383279783815988,0.46167202161840104,30.059346062652224,27.837025703188907,0.48632394277594776,0.5136760572240523,60.806120068799764,62.492676976263326,0.4957286613989642,0.5042713386010357,47.963259498993494,48.37475930513553,1.326177406534959,1.1817266249594107,1.4828628555630052,1.4924193588050634,0.09504190861416006,0.29402492967914906,-0.4919131015243171,0.00016871586668988235,0.06485289149249228,0.39558415363230504,1.4136933353080048,5.947702779220088,1.2856464638658383,0.8013632011340149,1.2702497809609534,1.417612176807681,1.9261499808250355,1.717180029271164,2.947063367646481,1.1140142363715286,Relax
73.67077691463997,814.75,66.27232549685097,,,,,,,54.487496950618514,54.87355136893396,0.0813406879372212,0.06687633869360972,820.0,56.3388,0.06870585365853658,72.5,1.2162850049234768,752.2,862.2,37.5,76.38888888888889,657.0,971.0,12.0,218.75,,,0.0464757967049419,0.009621893036996733,0.004009668602400887,0.06010735834433952,4.8302134025227454,0.7732130971168967,0.16007845465234713,-4.643714252270849,38.80146028076156,85.9692425462962,0.4513411905410959,10479.511616868953,2.2156187402287344,4.7273111533880146,761.9002594753732,0.5972222222222222,0.619718309859155,0.9090909090909091,0.16666666666666666,49.516983483951385,49.51261722867995,49.525590233708705,53.52112676056338,0.5367164632266084,0.46328353677339157,28.42722538091157,26.411036654074316,0.4660466531099561,0.533953346890044,58.68914694433511,62.81954070932184,0.4780070494586455,0.5219929505413544,46.111403751734244,48.186292408074934,1.436280359235262,0.8496708852268036,1.5604352755628552,1.409399433355512,0.662589427751394,0.9349546624371925,-0.6777580529513225,4.5260844388788644e-05,0.03277887841072163,0.41175862461096946,1.2656663733312756,5.94770277922009,1.2638786057609548,0.8920628665813303,0.9609126739435899,0.9613749950907109,1.9326285322483792,1.6820166117068123,2.99049975385653,1.1140142363715286,Relax
73.58367726735803,815.7222222222222,66.7710450492128,,,,,,,52.92088168492528,53.295848664876864,0.08185512571585034,0.06487610640391303,820.0,57.8214,0.07051390243902439,80.5,1.2617145240842198,752.2,863.8,36.11111111111111,75.0,657.0,971.0,14.4,218.75,,,0.05359229627198309,0.008513732442593841,0.003478654410414194,0.06558468312499113,6.294806259574604,0.8171465305374278,0.12981281660488303,-4.766074837652089,37.685856000026426,87.27219151868967,0.4318197508762669,10332.469662852553,2.315781059043172,4.721174248786084,808.4131524006787,0.5694444444444444,0.5915492957746479,0.8809523809523809,0.17647058823529413,50.48891786179922,50.47911774807764,50.49701518242704,52.112676056338024,0.5724738991370121,0.42752610086298815,28.514783133365352,24.64186333399787,0.473645186511037,0.5263548134889628,60.062367348373115,63.316249422908264,0.48917818643572814,0.5108218135642716,47.01372580764991,48.04252735626717,1.5455142298258044,1.0539362527892298,1.7102478645555306,1.606008204684076,0.5148351126719568,0.8110691457823531,-0.5989050899383958,0.00013916739102471227,0.05507056098842253,0.37971206243698585,1.2367626271489267,5.947702779220088,1.2427964166911112,0.3091906567872317,0.9689344147526822,1.2667244223792946,1.927381749688235,1.670824811493567,3.035269409062101,0.9426274307759088,Relax
73.76680423452919,813.5416666666666,66.33651672121641,,,,,,,53.205818807058854,53.58165697123127,0.08154040467652722,0.06540023822634636,818.0,59.303999999999995,0.07249877750611246,73.25,1.246790636974757,750.0,859.0,36.11111111111111,73.61111111111111,657.0,971.0,14.4,218.75,,,0.05199929182980947,0.007791023700587291,0.0030979432047702244,0.06288825873516699,6.6742566610200065,0.8268521481694574,0.12388677723446914,-4.854783015591157,37.88795299156907,86.42187712072925,0.4384069665443685,10286.667677995885,2.2809856510316107,4.719244819666732,788.508246590402,0.5833333333333334,0.6056338028169014,0.8837209302325582,0.17647058823529413,50.638716017032415,50.60698347956222,50.66782404650198,52.112676056338024,0.5827126587757662,0.417287341224234,28.923544536785744,24.476081619176124,0.4718745883576248,0.5281254116423753,59.365890979731645,62.804711871427585,0.48974494901052656,0.5102550509894735,46.69518412207415,47.66293321167723,1.5015808615556816,1.4764443756659897,1.714440830941567,1.7782179120698265,-0.1540506445523402,0.11619508244756993,-0.45680360047462604,0.0003800224061795495,0.11277451690797492,0.38937749076219186,1.2130226398458537,5.94770277922009,1.263560073694354,0.8231160453814224,0.8636891020430211,1.0569068282664154,1.9237209148687084,1.691783544638362,3.2915285623457273,0.9426274307759088,Relax
74.31593736018984,807.945205479452,69.0450518001268,,,,,,,53.625242812193086,54.0014490039174,0.08545759208900061,0.06637237581027629,808.0,71.1648,0.08807524752475247,95.0,1.2875475835501042,747.8,859.0,36.986301369863014,72.6027397260274,657.0,971.0,14.6,218.75,,,0.04989709952712198,0.008118413966792887,0.0033140001763453434,0.06132951367026021,6.14616349095012,0.813590334262148,0.13237368896224677,-4.813620468173413,38.18479078456952,90.13305891768655,0.4236491165737706,10812.45712725966,2.3604439638336143,4.740894508406318,851.016139456451,0.5616438356164384,0.5833333333333334,0.8809523809523809,0.17647058823529413,50.12804097311139,50.120555568041006,50.13693267742868,51.388888888888886,0.5720992233684942,0.4279007766315056,28.88198424770201,24.978300441738355,0.47495224866159724,0.5250477513384029,62.11680140528133,65.31057565996485,0.48973493682172775,0.5102650631782727,48.43896175037027,49.44384079940463,1.4277662639215731,1.2572045636868419,1.5783059637363053,1.612454154675866,-0.07620372892893101,0.1846634820724642,-0.4728379995381033,0.00016179558084928957,0.06968323801464647,0.3668108260477805,1.3862943611198904,5.998043736962208,1.2547855575437614,0.8958797346140274,0.7675283643313483,0.9606037458353694,2.067108525081518,1.7210494388053037,2.6197453346271637,1.017505406939181,Relax
73.86418068138356,812.3835616438356,70.69331850735932,,,,,,,60.659454699530926,61.01245255025553,0.08701963191415808,0.07466849104724399,812.0,62.2692,0.07668620689655171,91.0,1.1654130235349114,752.4,859.0,39.726027397260275,73.97260273972603,657.0,1012.0,14.6,171.875,,,0.054921522958239696,0.00946288716517126,0.003910256117353544,0.0682946662407645,5.803886488299443,0.8041846601112389,0.13855968095386847,-4.66037774531755,43.14231893510815,88.73046909783797,0.48621763610353064,12026.136677609791,2.056692159531353,4.787096245276562,729.9650404202495,0.547945205479452,0.5694444444444444,0.8536585365853658,0.11764705882352941,46.842573376815885,46.98077157848092,46.70858821036668,51.388888888888886,0.5045653741191036,0.4954346258808965,30.681691563261282,30.402812138279135,0.47635098647104135,0.5236490135289584,61.24015933912991,64.20855885659138,0.48175612258773226,0.5182438774122677,48.4340960123399,50.23479877712189,1.3460525083739974,1.4383173608988251,1.5541830425781273,1.4985220773988317,0.009887699356779578,0.5435769735220459,-0.5386986674098909,0.00015520138724738533,0.09520921747484329,0.3710775947303304,1.519825753744413,5.970646476688235,1.2394427083548871,1.1012370148294661,0.7198280831177907,0.9181349667181146,2.0895234644769523,1.7681118509413973,2.2479176160154615,0.9327132896942493,Relax
75.76803880527058,793.2837837837837,76.35237708713935,,,,,,,59.519307331365,59.89157186547624,0.09624850355941454,0.07502902309117099,798.0,72.64739999999999,0.09103684210526315,98.25,1.2828169632764492,731.8,852.8,36.486486486486484,72.97297297297297,621.0,1012.0,14.8,234.375,,,0.05058922407080235,0.008221880794591567,0.002043180561354239,0.06085428542674816,6.15299897124274,0.8313173627138861,0.1351076713321768,-4.80095628895848,42.34973660199968,98.01551359673455,0.4320717715793369,13040.534912367435,2.3144303001900237,4.822265516137205,907.4002982278787,0.5,0.5205479452054794,0.7894736842105263,0.05555555555555555,47.616173808086906,47.223472532192595,47.968455954544496,52.054794520547944,0.5165773415930025,0.48342265840699755,30.458304833548,29.464668107186725,0.4320383940765836,0.5679616059234163,64.42523205000623,73.86765449731371,0.4453526536596142,0.5546473463403858,50.39007272286121,56.234318025566814,1.5334364877931514,0.8316541566530891,1.664685080284845,1.462866885360489,0.7833654031778181,1.1232530860165673,-0.742670818524558,5.637385893671871e-05,0.03425475158655918,0.4264278547993303,1.791759469228055,6.074318230493813,1.152385585529757,1.1655025204888267,0.8958797346140276,1.072691728061571,2.1299584925264377,1.7072588878472355,2.6231929189278507,0.6712922557436702,Relax
75.68052582926384,793.3066666666666,76.82007292110313,,,,,,,60.74136575278427,61.155963181480296,0.09683527965784959,0.07656732043865039,803.0,71.1648,0.08862366127023662,100.5,1.2647076990951895,728.2,851.2,37.333333333333336,72.0,621.0,1012.0,12.5,187.5,,,0.05330512069498634,0.010244460753167373,0.0051654371854090424,0.06871501863356275,5.203311524084419,0.7757419230175441,0.14908619624769526,-4.581018133799306,43.24379627561954,100.45686271329453,0.4304712998955384,13647.506075740623,2.323035241240631,4.842023406283628,933.4593292298202,0.48,0.5,0.7567567567567568,0.05555555555555555,50.05858230814293,50.040771414764265,50.07629870110407,48.64864864864865,0.5437580578996718,0.4562419421003281,31.887967413327313,29.20932952854018,0.47169083183745425,0.5283091681625458,68.99352405848005,73.01694943086598,0.48295751769657314,0.5170424823034269,53.74452915302863,55.60872159875863,1.5020717685605982,1.0329813147629023,1.693656814973036,1.5352491530839143,0.5978285473766682,0.8547310456856829,-0.6533499779959531,0.00013051775357971252,0.057521950130164944,0.42512721971169887,1.7346010553881064,6.068818690495879,1.1640601208731616,0.9829564081810813,0.9796226302966065,1.2569987521105546,2.1038468190956756,1.6978719410569516,2.8310940646170972,0.8305091587327841,Relax
76.313972039255,786.9066666666666,76.40966638532795,,,,,,,62.69456202979735,63.117751947331406,0.09710130771797751,0.07967217039267345,794.0,72.64739999999999,0.09149546599496221,99.0,1.2187606693705286,720.6,844.4,37.333333333333336,73.33333333333333,621.0,1012.0,15.0,140.625,,,0.05648541636873654,0.009381425374413435,0.004522393037683131,0.0703892347808331,6.0209844575210125,0.8024723744278783,0.1332792635638651,-4.669023568615897,44.63099041520845,98.99318083538229,0.45084913969403817,13880.070638094843,2.2180368375076296,4.849361786286444,878.2820870197289,0.49333333333333335,0.5135135135135135,0.7894736842105263,0.05263157894736842,50.81127241673782,50.76782016010463,50.84691962837293,48.64864864864865,0.5628900005157031,0.4371099994842968,33.48737239003743,29.50969193007984,0.4732226804039094,0.5267773195960908,68.09857979384785,71.8486832305759,0.4883718874310293,0.5116281125689708,53.66013734387988,54.922924174591515,1.4632982062638868,1.3439937275649818,1.7004073049457729,1.6112191838673553,0.16381270130074732,0.49548659555246655,-0.5663605188396278,0.0001782407233142176,0.09207519741581638,0.44314140682792935,1.9218125974762528,6.042152023829214,1.2004181529208193,1.0799269675686558,0.9851327740067545,1.2547555598815536,2.006672045249547,1.705320886227328,2.7662156169936556,0.8305091587327841,Relax
74.79467679788738,802.1369863013699,86.98839562909993,,,,,,,67.73262384799021,68.19389041652371,0.1084458105219669,0.08444022031735919,804.0,71.1648,0.0885134328358209,101.0,1.2842909470674682,731.2,855.8,39.726027397260275,73.97260273972603,621.0,1045.0,14.6,187.5,,,0.055760677205507606,0.012248608884442758,0.004023612388543186,0.07203289847849355,4.552408990406293,0.7741001456737959,0.17004187174419694,-4.40234290889353,48.220362349016234,112.37806076227055,0.4290905361948156,17024.010391268825,2.330510499877304,4.938031985665404,1047.5930022492846,0.4931506849315068,0.5138888888888888,0.7837837837837838,0.05555555555555555,48.646431501230516,48.744931799233036,48.55201151960734,50.0,0.5474501612097543,0.4525498387902455,35.685539739211926,32.44540376312356,0.43529354192727154,0.5647064580727285,74.1434252369591,84.4486887690983,0.4527388530724461,0.5472611469275539,58.18378318890676,63.969857199200234,1.3504051330091378,1.2173598217972534,1.5048203925494787,1.3850067444855205,0.053970972982195775,0.6251496561150667,-0.5984208989968726,2.9335332100302336e-05,0.05701692453308224,0.44423299256250903,1.6582280766035322,5.998043736962208,1.088446548342652,0.0,1.108260993504501,1.5425153317063036,1.953481502306854,1.7153575008250639,2.2599755290915957,0.8479211724493175,Relax
74.63323192239062,804.6027397260274,89.15790295344725,,,,,,,67.48878507656744,67.93537934554543,0.11080984261103326,0.08387839332929418,804.0,74.13,0.09220149253731343,104.0,1.3210773145833896,731.2,859.2,39.726027397260275,72.6027397260274,621.0,1045.0,18.25,140.625,,,0.051124352248056934,0.014129894695676149,0.004305307669992385,0.06955955461372547,3.618169374163939,0.7349723921028254,0.20313377183251893,-4.259462534848776,48.03756741771569,116.55396258073225,0.41214872797174956,17589.679360574486,2.4263085923403462,4.952228032807406,1131.1835235237834,0.5068493150684932,0.5277777777777778,0.8157894736842105,0.05555555555555555,51.8938346696157,51.77705439614457,51.99296690041408,47.22222222222222,0.5813210303072807,0.41867896969271906,36.64052632010196,31.0952647996081,0.46468758701626267,0.5353124129837373,79.4525021870696,85.27676172020392,0.48163447220416866,0.5183655277958311,61.86771481475772,64.18349313663983,1.4456246058832412,1.0076577693177589,1.5651456517840825,1.509548330899094,0.19169311385878274,0.415309449607725,-0.5551748049564794,2.5914011743208185e-05,0.0393816390581318,0.3806729665292359,1.466337068793427,5.998043736962208,1.0693982326693308,0.0,0.9092201858929503,1.159899752022329,2.004258012288678,1.7259704060196845,2.6584298320977635,0.9327132896942493,Relax
73.39740270400424,818.3098591549295,90.20098060114675,,,,,,,68.68686711654357,69.1824245563483,0.11022839281723613,0.08393747960885703,814.0,77.09519999999999,0.0947115479115479,98.0,1.3132201887749428,750.0,900.0,39.436619718309856,71.83098591549296,621.0,1045.0,17.75,140.625,,,0.06193100492364028,0.01715637794965987,0.005856984698474379,0.08494436757177454,3.6097948591105786,0.7290772383620503,0.20197193104255473,-4.065385282396472,48.91936154272061,118.73207830329365,0.4120146993280044,18247.304646654145,2.42709787206864,4.9681688328071605,1152.6974983848445,0.49295774647887325,0.5142857142857143,0.8055555555555556,0.05555555555555555,49.773755656108584,49.729910963331584,49.81784159186834,47.14285714285714,0.557937574942771,0.4420624250572289,36.540626586093836,32.52557522132792,0.4940943700283362,0.5059056299716638,83.45897036152893,84.45061683855775,0.5033594439676589,0.496640556032341,64.42288849900675,63.99148274532774,1.2746414917626727,1.9881129020682247,1.6429167215528102,1.6163946100432223,-0.4911328748854391,0.08926377951758813,-0.5133403447470197,0.0004894797773622956,0.21023245476054087,0.39455189557041903,1.3083328196501787,6.008902049082148,1.0540186208294657,0.0,1.1139352045557238,1.3929312768176692,2.0187141095313907,1.7384485722531153,2.711779721350375,0.86616156612742,Relax
74.8281207366573,803.1621621621622,97.43097690680536,,,,,,,67.5949864396822,68.02189581673157,0.12130922184445933,0.08416106936326821,779.0,98.5929,0.12656341463414633,134.5,1.4413935417199475,717.6,887.0,36.486486486486484,70.27027027027027,644.0,1070.0,12.333333333333334,70.3125,,,0.02368529898640718,0.009740737532469162,0.0016028467101517807,0.03502888322902812,2.4315714192540443,0.6761648332191015,0.27807730748313153,-4.63143844217504,48.09874380117573,129.2629167094154,0.37210009665264077,19532.487628137944,2.6874489122573655,4.997727667861714,1389.5499396237315,0.6351351351351351,0.6527777777777778,0.9148936170212766,0.21052631578947367,52.302720172367344,52.300315600908355,52.28756783573867,44.44444444444444,0.5698695520517593,0.4301304479482405,36.33142196807361,31.56419824914156,0.5394546650233172,0.4605453349766827,94.94048101351423,87.72232726705218,0.5431576073138974,0.4568423926861027,71.8806898871306,65.92232289694788,1.4545929651984426,2.0671987470506954,1.8284297771823341,1.993538047060595,-0.6796945226953266,-0.4736672140141529,-0.4201294650000038,0.0010974076317965444,0.2647124935858184,0.4990574995937824,1.455287232606842,6.047291203466787,1.0374061082766355,0.8836821935716694,0.8847195439235064,0.9527946193093793,1.7747706222189816,1.5396332988388366,2.3133037665633633,0.8391153196795879,Stress
73.74366512026072,814.4722222222222,99.33440069376448,,,,,,,71.51469857781723,72.01001495292947,0.12196168019424718,0.0878049571570349,796.5,100.07549999999999,0.12564406779661016,135.5,1.3890067730017184,728.0,895.6,40.27777777777778,69.44444444444444,644.0,1070.0,14.4,70.3125,,,0.03218295192649933,0.006531723903825151,0.002260467139850871,0.04097514297017535,4.927175796217004,0.7854262265765465,0.15940698263284667,-5.031084373012018,50.91876988656111,131.38524918046647,0.387553170574124,21017.177159385814,2.580291108233208,5.0295444949923915,1356.0487608534481,0.6111111111111112,0.6285714285714286,0.8863636363636364,0.15789473684210525,51.28138752265079,51.41267799581086,51.15610984317856,45.714285714285715,0.5486162938320495,0.4513837061679505,37.7220094904818,34.216328599911805,0.5509390310335924,0.44906096896640757,97.52105243750269,88.04389833313337,0.5506356182852596,0.4493643817147403,73.93681650070602,66.79253392615176,1.28485275129093,2.210002295916964,1.6450747043128058,1.9512754165894672,-0.8313216962256504,-0.7885953743168663,-0.3614477854424065,0.001934800677822606,0.33669160799414233,0.5107388594237028,1.7047480922384253,6.086591668108979,1.0985576443755003,0.0,0.947303700461253,1.1910992628868398,1.8255960597095422,1.5992600567355357,2.2525752591376267,0.9426274307759088,Stress
73.69535938851914,814.7222222222222,95.60455853092772,,,,,,,67.30830892768161,67.78576146020963,0.11734620208364807,0.08261503993851135,799.0,84.5082,0.1057674593241552,125.25,1.4203975713258312,740.2,887.4,38.88888888888889,68.05555555555556,644.0,1070.0,18.0,62.5,,,0.03982855149640318,0.00956669081558565,0.002043526570894433,0.05143876888288326,4.1632527134164485,0.7742905275801907,0.18598211083486987,-4.649467920610611,47.93177159640795,127.32449869450434,0.3764536447256148,19172.790588503256,2.6563695530929667,4.989655438749377,1352.8836867796263,0.6111111111111112,0.6285714285714286,0.8863636363636364,0.15,49.5480690221857,49.49417315700158,49.60519903222532,47.14285714285714,0.523625951706621,0.4763740482933792,34.68521710634496,33.08322837934653,0.5413505439605705,0.4586494560394295,93.68094514790205,86.22881469672771,0.5391503609594955,0.46084963904050436,70.63704329004193,65.30661713793864,1.3483750519551865,2.2904285347187203,1.6456835221680821,2.169410489633186,-1.2173707528509539,-1.3872126378333052,-0.2713410571312931,0.0035720002247449935,0.4104081851048355,0.5601269988225743,1.8123787564307907,6.031036112553425,1.073539419711711,0.0,0.9472632945564469,1.2013794085529486,1.8830588672924287,1.5779742741091998,2.5820175831923566,0.8569340279780989,Stress
73.10097589109301,821.3333333333334,97.19517173425182,,,,,,,68.56250361100044,68.94888025581841,0.11833827727384555,0.08347707420170507,806.0,94.8864,0.11772506203473945,132.5,1.4176140983080647,740.2,910.0000000000001,40.27777777777778,69.44444444444444,644.0,1070.0,18.0,70.3125,,,0.04160908077519508,0.014954607507166592,0.001980593557705159,0.05854428184006684,2.7823585978605627,0.7107283489934015,0.2554409591703605,-4.202735832168295,48.754220784108455,127.55204800275918,0.3822300115718551,19536.624464755303,2.616225753408719,4.99781963848638,1334.819811539375,0.5833333333333334,0.6056338028169014,0.8837209302325582,0.09523809523809523,53.518123667377395,53.575204445878285,53.45583145028786,45.07042253521127,0.5638396682626333,0.4361603317373666,36.66313835837998,32.24592997573492,0.5651834211832936,0.4348165788167065,95.8919484216343,84.10861535895603,0.5650116847298136,0.4349883152701865,72.59287666976384,63.69481602768318,1.3432199725466951,1.800040859064668,1.6284977044529048,1.8306221378678027,-0.1868138474502281,-0.11360396606909262,-0.38771119700031403,0.002253335367234728,0.24134704112531627,0.5818111687268264,2.0794415416798357,6.08659166810898,1.1244366215191308,0.0,0.9754804129423466,1.3433041372730585,1.8480548603970635,1.6015169174874186,2.2216041617491227,0.9426274307759088,Stress
71.91530341798268,835.169014084507,97.19317817264645,,,,,,,68.52152946337375,69.00850009155486,0.11637545997702917,0.08204510501205013,839.0,106.74719999999999,0.12723146603098925,128.5,1.418432701864869,750.0,923.0,39.436619718309856,67.6056338028169,644.0,1070.0,17.75,140.625,,,0.03654405585637453,0.013105409749927136,0.002171828239881243,0.051821293846182906,2.7884710629957765,0.705193814049595,0.25289622811863594,-4.3347301760090176,48.79637837425092,129.3765973186318,0.3771654177461015,19833.218098315345,2.6513565479462264,5.004363297639023,1372.0939538070265,0.6056338028169014,0.6285714285714286,0.9090909090909091,0.14285714285714285,50.981461286804794,50.97130542593921,50.98277236888924,47.14285714285714,0.539225470389212,0.4607745296107879,35.8361812147719,33.12689699244144,0.5533142224801362,0.44668577751986405,96.23690366349933,86.46827341291001,0.5515592943122054,0.44844070568779437,72.61464559851416,65.47577266194568,1.4908793578608555,2.0236758105525015,1.8853119167402577,2.1224003604876738,-0.6740292927113618,-0.792228198542066,-0.382842675436889,0.0016480969464245107,0.2909786015423587,0.5573809332300037,2.0368819272610397,6.065240077251162,1.0940537586201957,0.0,1.1036415676552687,1.407018397548647,1.9137628404305767,1.6014944792903074,2.6983432141839314,0.9527777227401621,Stress
72.66775473567297,826.8450704225352,101.12575592333732,,,,,,,64.46471903297181,64.91754445171006,0.12230314909135268,0.07796468932206246,820.0,103.782,0.12656341463414633,137.5,1.5686992426293591,745.0,920.0,35.2112676056338,69.01408450704226,644.0,1070.0,17.75,31.25,,,0.045683322773770116,0.013381102096571751,0.0014763422089734471,0.060540767079315314,3.414017951890093,0.7545877757696685,0.22102630577906257,-4.31391185872264,45.9036358997833,135.02733447676664,0.33995809868913374,19472.36283688944,2.9415389833510783,4.996388763318548,1588.7526727255765,0.5774647887323944,0.6,0.8809523809523809,0.09523809523809523,48.70148818208346,48.43782636476628,48.938370650458424,48.57142857142857,0.5173032564567085,0.4826967435432917,33.02206113705094,31.898389400984044,0.5413745160983077,0.4586254839016925,99.35062391076438,91.44306744878186,0.5388799004162033,0.4611200995837967,74.03040926942549,68.48117197748327,1.4876593258298871,1.462775994785182,1.7699018330292413,1.9657836471284171,-0.16871171124169315,-0.5692551226213016,-0.3660889877893147,0.0010301749882638074,0.16122119846705438,0.6004910966693697,1.791759469228055,6.008902049082148,1.0523684755742957,0.0,1.2810270505821508,1.5214493971559453,1.9075140732043474,1.5846406535835398,2.310026283695386,0.779545409514678,Stress
71.4756977579179,840.2857142857143,95.14156391538353,,,,,,,69.58125268085995,70.05447581894884,0.11322525457458087,0.08280665908976872,845.5,88.95599999999999,0.10521111768184505,112.5,1.3673447983432838,765.4,923.6,40.0,72.85714285714285,644.0,1070.0,17.5,140.625,,,0.04937984499573382,0.023060231647187047,0.0026490082563163397,0.07508908489923721,2.141342105804792,0.6576168169048421,0.3071049764174354,-3.769645718780272,49.53599490404774,124.52749142682156,0.397791638910172,19379.207019574515,2.513878880762038,4.994306112084744,1252.18812308865,0.5714285714285714,0.5942028985507246,0.8536585365853658,0.10526315789473684,52.06721792477994,52.32466460531603,51.82839647585591,46.3768115942029,0.5543678363921011,0.44563216360789903,36.901697713217025,33.08533974258618,0.5714701284477851,0.4285298715522149,94.13735821740835,81.51842680587289,0.5691315134682429,0.43086848653175736,71.49677442469103,62.20889652930201,1.3561611305243468,1.9006297077487782,1.6181657607909494,1.9621168671049722,-0.9825044253823947,-1.1002306006862979,-0.31903307892550015,0.0011730767631430784,0.22708880468023096,0.5375167058328882,1.9459101490553135,5.986425874087824,1.2065278278392348,0.0,1.2398285987326434,1.477928055534407,1.940588526241463,1.6515160172977872,2.1343975237079915,1.05073423147628,Stress
70.21155051073245,855.2608695652174,83.60123348617057,,,,,,,69.76030389842062,70.27716981363808,0.09774939607452204,0.0815661120260116,852.0,80.0604,0.09396760563380283,101.0,1.198406956596749,788.6,924.2,40.57971014492754,72.46376811594203,652.0,1070.0,17.25,132.8125,,,0.036534072680663894,0.020557253396685564,0.002694093311057834,0.05978541938840729,1.7771864740721766,0.611086667190764,0.3438506178760991,-3.884541436974437,49.69346333782202,108.16784708548091,0.45941067218016435,16886.798609735444,2.176701719301453,4.934517434020157,941.7965548964119,0.5942028985507246,0.6176470588235294,0.8809523809523809,0.15789473684210525,50.45649838882922,50.426420212623235,50.479615970608315,47.05882352941176,0.5316026133046459,0.4683973866953543,36.232973355894416,34.01086305829578,0.5181608666941592,0.4818391333058408,77.86288495811014,75.08431453444915,0.5205035376002451,0.47949646239975496,60.72667129115859,58.28547458448906,1.4067598106653956,1.6640576060582495,1.6549464425036602,1.9589134434936804,-0.8050091092699017,-1.1089049245248495,-0.31733384716768037,0.0007640115851220681,0.1722755990117854,0.48001048716234784,2.1102132003465894,5.963596920546285,1.3216881675355996,0.0,0.7658533083557649,0.8509909123167635,1.8571439400868057,1.6717526639070404,3.0853554366761857,1.1508814193929884,Stress
70.01586645158248,857.4705882352941,85.59091711265938,,,,,,,71.20539976170261,71.74229598372729,0.09981790429547983,0.08304121533573056,854.5,91.9212,0.10757308367466355,123.0,1.2020284613119179,788.4,929.6,44.11764705882353,73.52941176470588,652.0,1070.0,17.0,132.8125,,,0.04105835562854,0.025379388653352354,0.0030939848485123283,0.06953172913040469,1.6177834773461581,0.5904981242669268,0.36500442273992734,-3.6738179047183834,50.72946398798597,110.89192892405428,0.4574675946229475,17672.992134661443,2.1859471834813062,4.954280194135384,969.6155988093826,0.6176470588235294,0.6417910447761194,0.8837209302325582,0.23529411764705882,50.23796932839767,50.215536330937205,50.255462142887616,47.76119402985074,0.5333937781127099,0.4666062218872902,37.04992536695545,34.65282357641555,0.5128412308669349,0.4871587691330651,79.41296381426862,77.39897337000778,0.5163980828264797,0.4836019171735201,61.964166223162024,59.964236260246636,1.427677524238082,1.0104275766556574,1.571702270365304,1.6844618896487273,0.05446351183743303,-0.2965393132308618,-0.3884040559773335,0.00021656119646891253,0.05681555206756994,0.44055596910691674,1.791759469228055,5.940404017720928,1.3092660221193517,0.0,0.8811568551569795,1.2281637214340129,1.917044709750072,1.7032953928616794,3.0310221382459797,0.8952151237132852,Stress
69.49555599968593,863.7205882352941,83.13140929630096,,,,,,,67.3677809523793,67.84719242293194,0.0962480348721922,0.07799719246014664,867.0,83.76689999999999,0.09661695501730103,114.75,1.233993581517322,799.2,929.6,44.11764705882353,73.52941176470588,652.0,1070.0,17.0,179.6875,,,0.0554451660561659,0.04770971425189981,0.003750407491627198,0.10690528779969291,1.1621357814767894,0.5186382001987854,0.446280209649619,-3.0426202487426544,47.97520984672372,106.93369554061037,0.4486444577098161,16116.893335459625,2.228936483701759,4.914251441643389,953.3936613100902,0.6176470588235294,0.6417910447761194,0.8837209302325582,0.23529411764705882,48.196721311475414,48.32011655639769,48.072282937378304,49.25373134328358,0.48119865559041564,0.5188013444095846,33.29391608815112,34.570306053115296,0.5125821260713945,0.48741787392860536,76.55900931937124,74.6561004473739,0.5073198943029654,0.49268010569703463,59.03290081153229,58.17490607905801,1.420849015627007,0.649599976862067,1.420849015627007,1.6972099399307483,0.05420727174697504,-0.7776524180004794,-0.07456752748249802,0.0004378128435444694,0.036545414437654127,0.429079531850463,2.197224577336219,5.910992253015046,1.3194197815759106,1.1748758068759726,1.062652029611637,1.3874600211928878,2.1242983032165683,1.734645159151476,2.263742859151403,0.8952151237132852,Stress
70.49732871335401,851.8840579710145,77.01366117008149,,,,,,,67.25379936785552,67.73795730905871,0.09040392345586293,0.07894712753286885,862.0,83.0256,0.09631740139211137,95.0,1.1451198578216055,790.4,917.6,44.927536231884055,75.36231884057972,652.0,1022.0,13.8,242.1875,,,0.04061222202168304,0.04533726165722808,0.0044763527073365325,0.09042583638624765,0.8957802155924489,0.44912188423904387,0.5013750877965135,-3.093626031464893,47.89796895696028,96.07373144856645,0.49855426904702554,14456.78191674434,2.005799693404443,4.867041739618693,770.8186443350214,0.5797101449275363,0.6029411764705883,0.8536585365853658,0.15789473684210525,51.32957292506043,51.150493684054766,51.52056169504302,47.05882352941176,0.5343028718759044,0.4656971281240956,35.01971726063655,32.69419593385336,0.5451028716303694,0.45489712836963053,70.93227575213234,64.79794850976943,0.542952054400562,0.45704794559943784,55.93642972335412,51.32097319242847,1.2064421075042122,1.349431371184009,1.4126311479084563,1.8019714651013539,-0.6147387447212758,-1.4438627967103033,-0.21147823779190403,0.0010488554628078843,0.14843350976658934,0.42074863361698833,2.0149030205422647,5.9056259060535305,1.3996303856290429,0.7783788273025936,1.0610992146118174,1.435999024803127,2.090858151180923,1.8132611602825355,2.6382782109577074,1.1508814193929884,Stress
70.62473448852934,850.4782608695652,74.8731493330459,,,,,,,67.73021742871623,68.23122130680673,0.08803652342211828,0.07963779974748086,857.0,66.717,0.07784947491248541,94.0,1.105461523312654,790.4,898.2,44.927536231884055,73.91304347826086,652.0,1022.0,11.5,242.1875,,,0.05848781217578122,0.04684387950841326,0.005042880097711086,0.11037457178190557,1.248568922761333,0.5299029589111349,0.42440825592487313,-3.0609349189938118,48.24675927468308,93.90495914520814,0.5137828684859723,14233.330962148793,1.9463474968459418,4.860276657916395,731.0867286947853,0.5507246376811594,0.5735294117647058,0.8461538461538461,0.15789473684210525,50.53966540744739,50.58997360044793,50.4898193897652,48.529411764705884,0.5246584300927737,0.4753415699072262,34.94804245793734,33.2649921312562,0.5187888248130168,0.4812111751869832,67.63692178885687,65.14129383878763,0.5200147283894004,0.4799852716105997,53.833627319333274,51.72015015679966,1.0861480906945982,1.5933183577649772,1.3697532295832748,1.6701699689622884,-0.47629278249645424,-0.9952393036815161,-0.3114521571191696,0.0012514497801870753,0.1949982561581446,0.36804982569851585,1.8325814637483102,5.9346114132999075,1.3990997927168294,0.8047189562170501,1.1371690084211745,1.3364650146081338,2.030260141857941,1.8334393615661848,2.5953155936450574,1.0623520794396815,Stress
70.26539310766985,854.4057971014493,72.22031627974543,,,,,,,65.79346025073241,66.28255656394978,0.0845269502205522,0.07700493193507711,866.0,74.13,0.08560046189376443,94.0,1.0976822925032503,797.6,906.4000000000001,43.47826086956522,72.46376811594203,652.0,1022.0,11.5,242.1875,,,0.041165950684163254,0.059733916128034144,0.007719269605605303,0.1086191364178027,0.6891553970097629,0.3789935368830289,0.5499391552724934,-2.8178553105492976,46.868845220749805,91.44807809740189,0.5125186466010747,13465.072886889271,1.9511485223646163,4.836178818566219,713.715129811319,0.5797101449275363,0.5970149253731343,0.875,0.15789473684210525,49.901602473994934,49.88461983168821,49.91719461925418,50.74626865671642,0.5415634756435214,0.45843652435647875,34.49129243347288,31.73396880504238,0.4759319973555923,0.5240680026444077,63.08803992015893,66.20158764516867,0.48958539261316775,0.5104146073868321,50.84166615434092,51.9119205137912,1.1259014641222478,1.7832887255534287,1.4142320169653924,1.7589210466028935,-0.8663307944907377,-1.2567365463495346,-0.30671159711923274,0.001151626599109751,0.2176484943713552,0.3514746356533771,1.466337068793427,5.8476548915607784,1.3703686618494748,0.7131578574783294,1.1240752880039906,1.3413937012810422,2.084948743409783,1.8080537286635014,2.80055807833652,1.1508814193929884,Stress
69.95729217889436,858.2794117647059,73.66561108390557,,,,,,,66.48308055437865,66.98370566761798,0.08582940482335691,0.07746088236892805,869.0,60.0453,0.0690970080552359,81.75,1.1080354651083308,799.2,909.6,42.64705882352941,72.05882352941177,652.0,1022.0,8.5,242.1875,,,0.04622009380642693,0.05257899562347217,0.005817674320967002,0.10461676375086609,0.8790600363958546,0.4418038959463061,0.5025867149617013,-2.9454385617367103,47.364632506576456,93.62923308510506,0.505874404242145,13932.065604735904,1.976775246215726,4.850985620803094,740.3358011391927,0.5882352941176471,0.6060606060606061,0.875,0.16666666666666666,49.630891538898354,49.605578147263564,49.656517731651036,51.515151515151516,0.5442425879651517,0.45575741203484843,34.942810419312295,31.97631699375099,0.4797124211357714,0.5202875788642287,64.84880058537733,67.5356672488167,0.49286169706642385,0.5071383029335762,52.08822773603473,52.83725579185458,1.108510715258806,1.1022675303228247,1.3545905557906055,1.3230334020807717,0.4470845939643189,0.26223887661094114,-0.5286293053561975,0.00041796351303152973,0.08365687736651321,0.3425336201781728,1.504077396776274,5.852168723603281,1.3699467521402806,0.5493061443340548,0.7611306094308558,0.8374760218186512,2.1941605509578297,1.7805572820670734,3.0358443810140905,0.9847366360846136,Stress
69.55150544234992,863.0735294117648,72.42398303532204,,,,,,,66.80479471576068,67.3071595845738,0.08391403578868098,0.07740336418531114,872.5,62.2692,0.07136871060171919,68.5,1.0841135481887152,803.6,917.8,42.64705882352941,72.05882352941177,652.0,1022.0,8.5,242.1875,,,0.05347640120316791,0.05599714472399204,0.005925858238316815,0.11539940416547677,0.9549844276302161,0.46340274969258527,0.48524639385221635,-2.8824545766184433,47.59334896465725,91.51506686161883,0.5200602545220646,13683.233546048628,1.9228541141237567,4.843158849543498,703.8804912766979,0.5588235294117647,0.5757575757575757,0.8421052631578947,0.16666666666666666,50.46755454803061,50.44079239889954,50.48862583017184,50.0,0.5563403597836883,0.44365964021631166,35.5,31.701734968294716,0.48874311269911713,0.5112568873008827,63.97833395917533,65.43531345149037,0.5031341802550766,0.4968658197449232,51.737207192656655,51.41390982260928,1.1669567709187074,0.9098623915782307,1.349239137319392,1.4773036787269391,0.12582473663792015,-0.5467696688797536,-0.3592484505427147,0.000305712892532436,0.05737018812384705,0.34682738245357214,1.575536360758419,5.811655672100877,1.3834006531878205,0.6685371623566321,0.8275343540366313,0.8919916313621563,2.2073470765144694,1.793973598660574,3.1513761452489133,0.9847366360846136,Stress
70.06379207731406,856.9420289855072,72.81077086974294,,,,,,,66.4891632037087,66.91859973387373,0.08496580679551934,0.07758886943895382,870.0,60.7866,0.0698696551724138,80.0,1.0950772631423586,801.6,898.2,43.47826086956522,73.91304347826086,652.0,1022.0,8.625,242.1875,,,0.030861263872402088,0.06996583758330781,0.010423685332625434,0.11125078678833532,0.4410904655526464,0.27740265721552543,0.6289019574883918,-2.659748190584561,47.318595659330406,90.67086991184476,0.5218720820185817,13478.746396714369,1.9161783786786166,4.836619612079014,694.9662420042338,0.5942028985507246,0.6060606060606061,0.875,0.16666666666666666,47.235343150875245,47.214328731531,47.262528624180916,51.515151515151516,0.5125625800442426,0.48743741995575735,33.90988936895733,33.068337203027525,0.4888260307117374,0.5111739692882626,63.39353133135431,64.82643624256445,0.49391465879423524,0.5060853412057649,50.836111238342795,51.458632712521656,1.1098272692352242,2.56870390241954,1.4695907083702533,2.2268989573374642,-1.1182144302505126,-1.7074674770018232,-0.20517884593320418,0.012691524134702493,0.7968395740308182,0.417098200762827,1.550597412411167,5.8077289857323215,1.344370044245247,1.1109417907648482,1.12185529055047,1.3515446527868746,2.1975263679587655,1.8257800246465454,2.3870466893048503,0.8852933995330681,Stress
71.01034685777071,846.2463768115942,74.46444192820795,,,,,,,66.59667894917001,67.06245042022573,0.08799380885832317,0.07869656021463463,856.0,60.7866,0.0710123831775701,96.0,1.1181404704135924,783.6,895.0,44.927536231884055,73.91304347826086,652.0,1022.0,11.5,250.0,,,0.05313375846320725,0.05661497203622539,0.01124316921292474,0.12099189971235738,0.9385107252055045,0.4391513695505724,0.46792365580522477,-2.8714818051449784,47.42031345512824,93.91080706677627,0.5049505476127952,13990.391443133813,1.9803919507120076,4.852799975934298,743.9208255996482,0.5797101449275363,0.5909090909090909,0.8717948717948718,0.16666666666666666,48.15121412803532,48.01996680567151,48.283890844890955,51.515151515151516,0.5216354762125816,0.47836452378741867,34.26401009893182,32.81210642976475,0.47258127331415867,0.5274187266858412,64.55855883998609,68.20140881563466,0.48255464318403024,0.5174453568159698,51.68089544287931,53.51666325919217,1.1470245976665423,2.5359236040942865,1.4803581766721332,2.2413101640648616,-1.1421927649909556,-1.7102858970174726,-0.19993102861452125,0.012515461952522096,0.7725478048071273,0.38451016759971957,2.159484249353372,5.8367144929786985,1.3231847219422028,1.0794953938149472,1.1916528060220182,1.4729186415240472,2.4528702081974676,1.8402605494125082,2.976091825334039,1.0623520794396815,Stress
