PPG_Rate_Mean,HRV_MeanNN,HRV_SDNN,HRV_SDANN1,HRV_SDNNI1,HRV_SDANN2,HRV_SDNNI2,HRV_SDANN5,HRV_SDNNI5,HRV_RMSSD,HRV_SDSD,HRV_CVNN,HRV_CVSD,HRV_MedianNN,HRV_MadNN,HRV_MCVNN,HRV_IQRNN,HRV_SDRMSSD,HRV_Prc20NN,HRV_Prc80NN,HRV_pNN50,HRV_pNN20,HRV_MinNN,HRV_MaxNN,HRV_HTI,HRV_TINN,HRV_ULF,HRV_VLF,HRV_LF,HRV_HF,HRV_VHF,HRV_TP,HRV_LFHF,HRV_LFn,HRV_HFn,HRV_LnHF,HRV_SD1,HRV_SD2,HRV_SD1SD2,HRV_S,HRV_CSI,HRV_CVI,HRV_CSI_Modified,HRV_PIP,HRV_IALS,HRV_PSS,HRV_PAS,HRV_GI,HRV_SI,HRV_AI,HRV_PI,HRV_C1d,HRV_C1a,HRV_SD1d,HRV_SD1a,HRV_C2d,HRV_C2a,HRV_SD2d,HRV_SD2a,HRV_Cd,HRV_Ca,HRV_SDNNd,HRV_SDNNa,HRV_DFA_alpha1,HRV_MFDFA_alpha1_Width,HRV_MFDFA_alpha1_Peak,HRV_MFDFA_alpha1_Mean,HRV_MFDFA_alpha1_Max,HRV_MFDFA_alpha1_Delta,HRV_MFDFA_alpha1_Asymmetry,HRV_MFDFA_alpha1_Fluctuation,HRV_MFDFA_alpha1_Increment,HRV_ApEn,HRV_SampEn,HRV_ShanEn,HRV_FuzzyEn,HRV_MSEn,HRV_CMSEn,HRV_RCMSEn,HRV_CD,HRV_HFD,HRV_KFD,HRV_LZC,Labels
102.29234858095545,586.52,29.461318587756605,,,,,,,17.602800511810212,17.672785722248147,0.0502307143622666,0.03001227666884371,583.5,33.3585,0.057169665809768636,45.25,1.6736722414135285,561.0,615.4,0.0,23.0,521.0,656.0,7.6923076923076925,70.3125,,,0.03633894586672841,0.0060775280501061835,0.007021426947985971,0.04943790086482056,5.979231287314834,0.7350422495908757,0.12293256679170378,-5.103157236382559,12.496546626658462,39.52739252522648,0.3161490254810796,1551.808238329475,3.1630652616382853,3.897808163107683,500.1108887187388,0.51,0.5154639175257733,0.76,0.029411764705882353,52.81980742778541,52.865155503725745,52.77388901526211,43.29896907216495,0.5326639718346591,0.467336028165341,9.130572103585596,8.552359741197579,0.6287102694783034,0.3712897305216965,31.341764543464677,24.085442805673132,0.6199651375144466,0.38003486248555357,23.08325747849245,18.072789108051484,1.3604759412866978,0.8223875921486865,1.3764938769321038,1.7012178179198312,-0.5821100522054792,-1.3109274050276367,-0.10514489264203568,0.0004748422974632221,0.047991914271689806,0.6625717958540016,1.8382794848629476,5.90611181466655,1.097006904436116,1.53600639884847,1.1620072256631515,1.673698187009628,1.7778753943329866,1.5460314763795273,2.232832000500223,0.7308241808752197,Relax
101.25672801340167,592.5050505050505,27.398187686740002,,,,,,,17.189223011966018,17.273654186974337,0.04624127281849467,0.029011099563309963,589.0,34.099799999999995,0.0578943972835314,45.5,1.5939165876006827,565.6,618.8,0.0,22.22222222222222,542.0,656.0,8.25,46.875,,,0.04217816033332012,0.00730095829095629,0.006313507908782744,0.05579262653305916,5.777071810637007,0.7559809056189177,0.1308588382486386,-4.919749666709564,12.214318011480954,36.87793536192018,0.3312093774125258,1415.0953195881912,3.019238186467427,3.8577558045054303,445.37308273114746,0.5050505050505051,0.5104166666666666,0.7755102040816326,0.029411764705882353,51.2893982808023,51.28315674902316,51.29368507953828,43.75,0.5131924298936318,0.48680757010636816,8.752024802543119,8.524071434146537,0.6135988199374587,0.38640118006254126,28.88742670879519,22.923758302293052,0.6036690330537919,0.39633096694620806,21.343398979548027,17.293907720876486,1.316420765507191,1.2499870351520128,1.36489469546635,1.9020724043242603,-0.9952140979240252,-1.7626957845646887,-0.07025337563394536,0.0025638641172988728,0.16637809834209039,0.7215180703211748,1.62924053973028,5.884160281586507,1.1533255555000406,1.220810804447503,1.1264848647110806,1.4498288488186535,1.7115743251183748,1.5780672621314884,2.7602173189287553,0.8035583781914678,Relax
101.18401509043068,593.15,27.590942372635645,,,,,,,16.7162897628135,16.796930642055464,0.046515961177839744,0.028182230064593274,591.0,37.065,0.06271573604060914,45.0,1.6505422413778406,565.8,620.0,0.0,18.0,542.0,656.0,9.090909090909092,46.875,,,0.045541040355305124,0.011560128142317756,0.0068656350281388265,0.0639668035257617,3.939492693735343,0.7119480393758324,0.18072074115227724,-4.460193330823759,11.87722356011753,37.26714967996635,0.31870490934009776,1390.5639988251892,3.137698763632397,3.850161091437424,467.7323578997356,0.51,0.5104166666666666,0.7755102040816326,0.029411764705882353,51.40324963072379,51.39833200777632,51.40590129841992,43.75,0.5036871023713131,0.49631289762868713,8.431597519728623,8.369648762532586,0.6235364660720497,0.37646353392795007,29.427753281230537,22.865864997590663,0.6124802136326872,0.3875197863673129,21.64583678118807,17.217706039077985,1.3528830151591384,1.370604555534464,1.4789561369234616,1.8481837450323737,-0.5818106653041593,-1.0419834223156936,-0.23060967394425982,0.001414337272892411,0.14195935652005773,0.6442272997567282,1.358123484153194,5.92611181466655,1.1065812282210856,0.9715889466602935,1.1156250521031497,1.2920704019153924,1.7250770473452761,1.578412533371482,2.679315906049801,0.6643856189774725,Relax
100.66371332309028,596.2121212121212,27.098562627470738,,,,,,,16.54677969779458,16.613576991685377,0.04545121050605003,0.027753175604941352,599.0,31.1346,0.05197762938230384,40.5,1.6376940481707472,569.6,621.4,0.0,18.181818181818183,542.0,656.0,8.25,101.5625,,,0.030844182946135168,0.00929540743638209,0.007391082543386396,0.047530672925903655,3.318217426964146,0.6489321746868316,0.19556650188548463,-4.678234824839113,11.74757295058553,36.25352264927341,0.324039488913527,1337.9757290734497,3.0860436280556516,3.8334183453479485,447.51981026544576,0.5151515151515151,0.5157894736842106,0.7959183673469388,0.029411764705882353,52.84431137724551,52.90329427292191,52.78538903848663,43.15789473684211,0.5052921884317234,0.4947078115682767,8.359820448917807,8.271800312650875,0.6301128375085016,0.3698871624914987,28.77791834342765,22.04879407814382,0.6182282644390396,0.3817717355609604,21.190271141718952,16.65190680842229,1.3804571495377758,0.23179649190839768,1.3902929224697615,1.4341217272707434,0.49134500080690824,-0.278448759757719,-0.31091687609188545,4.905327941390658e-05,0.0031495110502602875,0.6481731616549276,1.3862943611198906,5.9497181098256275,1.1236511371770324,1.3507673780604788,0.9581476014332125,1.254773156531168,1.7437301025762202,1.5819261848224953,2.235510394732855,0.6026687836436009,Relax
99.96175178472434,600.2755102040817,23.73773394036605,,,,,,,16.261395687047333,16.345857898768585,0.03954473160548511,0.027089886911293087,603.0,25.9455,0.0430273631840796,34.0,1.4597599367976657,581.4,621.6,0.0,19.387755102040817,548.0,656.0,6.533333333333333,93.75,,,0.03244689873119375,0.011928360186396144,0.00878085760991464,0.05315611652750453,2.720147465717731,0.6104076228820211,0.22440240118414334,-4.4288365052623195,11.558266964530958,31.683256076920806,0.3648067905795328,1150.4623259838188,2.7411770444607075,3.7678425114234444,347.39765700730214,0.5204081632653061,0.5212765957446809,0.8163265306122449,0.02857142857142857,49.92492492492494,49.92752581523358,49.922325297947715,44.680851063829785,0.44791423001949315,0.5520857699805066,7.735537580974361,8.588085254195683,0.6131918585868396,0.38680814141316044,24.81007045220788,19.705053153752722,0.5937794952315246,0.40622050476847515,18.376318150138037,15.199413280215019,1.2024054053796347,1.033679009372443,1.4416773385085433,1.7000827594731718,-0.8275074403507059,-1.827507440350706,-0.2500138644379467,0.00178267327529386,0.12166610999331573,0.5795241437852745,2.0949457282158015,5.85420652765622,1.2231827386969987,1.3076842862102522,1.1430250711839547,1.3857070460221965,1.8348670303428207,1.6538243317700883,3.067912108218883,0.6749703922566539,Relax
100.51486399829241,596.9090909090909,23.93106209173738,,,,,,,15.922965060770894,16.00080539210062,0.040091636157342556,0.02667569535005785,596.0,23.7216,0.03980134228187919,31.5,1.5029275012790102,576.6,617.4,0.0,17.17171717171717,548.0,656.0,7.615384615384615,93.75,,,0.04772928841052348,0.02591965775947616,0.011162607431747677,0.08481155360174733,1.8414320456478162,0.5627687076061313,0.3056147029352632,-3.6527536113091466,11.314277997200623,31.97918153669329,0.3538013624338224,1136.6952951633405,2.82644474040726,3.7626141723943562,361.54955782766285,0.5151515151515151,0.5157894736842106,0.8163265306122449,0.058823529411764705,48.65900383141762,48.6615263566831,48.65794678290729,46.31578947368421,0.43590775546343635,0.5640922445365638,7.471940638630402,8.499848391613368,0.604966443793791,0.39503355620620884,24.873275909152515,20.099457637059714,0.5861503058422167,0.4138496941577834,18.36450042010459,15.431066391931092,1.1433070064111843,1.1107044638350594,1.1656012439167527,1.6767283140360227,-0.8293536287657073,-1.6962936531411898,-0.03981721802535865,0.0012976114298968104,0.11387082044236688,0.6228019677051697,2.228477120840324,5.819872120206703,1.1792215552971672,1.4992601207516332,1.1669929213779895,1.6528310793104541,1.8459165973230225,1.6925305149102787,2.787018311457351,0.7365951800088454,Relax
99.93977690267808,600.4591836734694,22.34046228252325,,,,,,,15.866387996051184,15.941372668090892,0.037205630107694426,0.026423757729849878,601.5,24.462899999999998,0.04066982543640897,32.75,1.4080370584712367,582.0,621.6,0.0,17.346938775510203,551.0,656.0,6.533333333333333,93.75,,,0.03774288867940778,0.02567759043222379,0.011308282429240835,0.07472876154087241,1.4698765750248428,0.5050650900826793,0.34361054435753763,-3.6621366350836158,11.272252715028955,29.252674489294687,0.38534092734509284,1035.9198810539547,2.595104565948293,3.722296277956261,303.6549965334712,0.5102040816326531,0.5106382978723405,0.8125,0.06060606060606061,51.81747873163186,51.90873898370468,51.729217314365364,45.744680851063826,0.48478643679102346,0.5152135632089766,7.852149387269704,8.094815727777046,0.5777033524724393,0.4222966475275607,22.23402155989118,19.009662018324434,0.5656803886258748,0.43431961137412556,16.67345142323127,14.609813340997777,1.297432975785776,0.614020038184953,1.297432975785776,1.4707531026180232,-0.07308683287068973,-0.604499424751479,-0.21772887519341808,0.00012987311368395864,0.01765754731253395,0.6463265992681584,2.001480000210124,5.776557135059926,1.2538447158401278,1.0659881924804269,1.2403558638843901,1.576083678657122,1.8920206040131244,1.6813420371588723,2.2164824114397215,0.8774615099336501,Relax
100.04105146493055,599.7777777777778,22.399688206446797,,,,,,,15.683085910415379,15.763665887519279,0.03734664576843667,0.026148161021440977,599.0,25.2042,0.0420771285475793,34.5,1.428270452282023,581.6,621.4,0.0,19.19191919191919,556.0,656.0,6.6,31.25,,,0.04359253418694204,0.02052750280742276,0.009689517380485053,0.07380955437484986,2.123616038244016,0.5906082831167441,0.27811443899487054,-3.8859896916173517,11.146595045423938,29.701229855221257,0.37529068997337994,1040.0794820304448,2.6646011391088114,3.7240366389608184,316.56772362062077,0.5252525252525253,0.5212765957446809,0.7959183673469388,0.09090909090909091,50.15822784810127,50.16559220244383,50.150782444478246,45.744680851063826,0.4590109525389979,0.5409890474610023,7.5518824034178085,8.198566633586678,0.5748643648060477,0.42513563519395203,22.51941616067664,19.36592240754213,0.5605615647027167,0.43943843529728355,16.79516347126154,14.870363908464096,1.315281023209704,0.3882178945264978,1.3673244128095596,1.4183538970109268,-0.11932233823018823,-1.1014528893417004,-0.3685545284727101,0.00025764022064605254,0.014688987751673098,0.6661348867623471,2.169053700369523,5.699668741116904,1.2362112504177394,1.3255753628431564,1.1919390073411475,1.5210291704229073,1.9284011079634853,1.6508132760052003,2.566113092581187,0.8035583781914678,Relax
99.5797982499561,602.5816326530612,21.44084331959491,,,,,,,15.7797338380595,15.861541160067285,0.03558164098894724,0.02618688154928337,605.0,25.2042,0.041659834710743804,32.5,1.3587582363323045,582.0,622.0,0.0,19.387755102040817,556.0,656.0,5.444444444444445,78.125,,,0.060312619221353135,0.024513717353391806,0.01036858455554208,0.09519492113028703,2.460362023102468,0.6335697168004081,0.25751076908653026,-3.7085224261373115,11.215803314353114,28.330576477966048,0.3958904021270497,998.241610930169,2.525951613444467,3.706205779099095,286.24666145732084,0.5306122448979592,0.5368421052631579,0.803921568627451,0.09375,50.27450980392156,50.27470741924434,50.273892103810226,45.26315789473684,0.4672297437171366,0.5327702562828636,7.666553441192898,8.186625271339427,0.5706942248067147,0.4293057751932854,21.40213753429667,18.562598754940876,0.5566752137080573,0.44332478629194294,16.075253228232782,14.34557259000605,1.1984355079388902,0.7398395382069518,1.2148563586364087,1.5556935969054044,-0.5229509049442012,-1.4459857407599186,-0.039309241170002306,0.00038190008440914445,0.042785717923947655,0.6810082261134851,2.014903020542265,5.619313160220976,1.253714231902769,1.038742296009634,1.2650758466791618,1.5927503251514337,1.9594658564496772,1.6597520827373526,3.281005717580255,0.6749703922566539,Relax
100.05316469093867,599.8367346938776,21.395487469866556,,,,,,,14.946985352706433,15.02162673479308,0.03566885159306822,0.02491842277771554,600.5,25.2042,0.04197202331390508,32.5,1.4314249305123257,581.0,619.2,0.0,17.346938775510203,556.0,656.0,6.125,78.125,,,0.04245916365259271,0.01810405537800763,0.0092986441022756,0.06986186313287594,2.3452846760605404,0.6077588221750712,0.2591407466985823,-4.011619311773143,10.621894128625321,28.415219879324848,0.3738100276448644,948.2063558199591,2.675155629987655,3.6838729720270798,304.06054175005204,0.5306122448979592,0.5368421052631579,0.803921568627451,0.12121212121212122,48.81439084219132,48.80285618466388,48.82687986970773,47.368421052631575,0.46859858797471277,0.5314014120252873,7.272594103894428,7.744621789775577,0.5530405520141487,0.4469594479858511,21.13146027362474,18.997002592372233,0.542684142451726,0.457315857548274,15.802361189008757,14.506296463282142,1.2256171889436542,1.3907884417987333,1.395901613876473,1.8340828425194386,-0.5873355977228005,-1.366769786874225,-0.18494041546947468,0.0016407607779634268,0.17308645461430855,0.6799012306297647,1.9965538818740682,5.632018389790737,1.2232397273421358,1.1320574045784682,1.3258759027759852,1.6545165718405297,1.9718253335756293,1.6444295541461362,3.1449247517369905,0.7424674314823193,Relax
99.82039197327805,601.2222222222222,22.096982689745893,,,,,,,15.38850617990517,15.45496637632209,0.03675343637178212,0.025595371579956856,602.0,26.686799999999998,0.04433023255813953,35.0,1.4359407229923902,581.0,622.4,0.0,20.2020202020202,556.0,656.0,6.6,85.9375,,,0.058329733085963904,0.022231826912941115,0.012976928040371384,0.0935384880392764,2.6237039949249628,0.6235907198058569,0.23767571380463268,-3.8062303720642747,10.928311527707434,29.10931554004254,0.37542317038250306,999.3898474024821,2.663660846988058,3.706705043181752,310.1493763465294,0.5353535353535354,0.5416666666666666,0.8269230769230769,0.12121212121212122,52.38095238095237,52.40870930186118,52.35263366131301,45.83333333333333,0.5087689059335545,0.49123109406644555,7.801334805164308,7.665695441245898,0.5539704627532928,0.4460295372467073,21.665828364447925,19.44078528486043,0.5483786195280763,0.45162138047192374,16.28295033862083,14.77678955473725,1.2455603378805435,1.1465645260055792,1.3243401658900904,1.7826758905745401,-0.6244026788127037,-1.5057882975338446,-0.10025300426727188,0.0014303335917859696,0.12453201641519725,0.6393000254173473,1.91959284073794,5.724822528951986,1.2315235048792441,1.4178571425937891,0.9471305056089252,1.2946450333067903,2.061606240750114,1.6577876208110838,2.3763931758482846,0.7365951800088454,Relax
99.88301022373462,600.765306122449,21.021246503109612,,,,,,,15.11297660474832,15.175611481874371,0.034990779741906446,0.025156207342086373,602.5,25.2042,0.04183269709543568,33.25,1.390940186892434,581.0,621.6,0.0,21.428571428571427,556.0,646.0,6.125,78.125,,,0.05582257402334431,0.01642202835366815,0.01062337105019579,0.08286797342720825,3.399249643292411,0.6736326679012998,0.19817099024502344,-4.109131653130952,10.730777787485799,27.456109539243315,0.39083387878199505,925.593024793373,2.5586318236188386,3.673390183103882,281.0003024794908,0.5510204081632653,0.5531914893617021,0.8461538461538461,0.08823529411764706,47.269763651181755,47.244007019491136,47.295235660255685,47.87234042553192,0.4278943805010156,0.5721056194989844,7.026734661277598,8.125,0.5390240810095734,0.4609759189904268,20.157797716630295,18.641382519715165,0.5242715453114268,0.4757284546885732,15.094896634038033,14.379095368734816,1.277461188943684,0.2915534897536336,1.2201430731425718,1.2685065177799375,0.39619037506638577,-0.11683335457399124,-0.3341181075272552,0.00010036945574266317,0.004569596214447102,0.6480978680068725,1.7917594692280552,5.68824058371244,1.2586373821499333,1.2310096185070947,1.0299995606502024,1.4352581434516223,2.148850069884106,1.6560305829481896,2.589778671503975,0.8099644707079847,Relax
100.11299009741862,599.0918367346939,23.067845579603006,,,,,,,16.2680510368047,16.352400067650883,0.03850469020798649,0.027154519623356112,599.5,25.9455,0.04327856547122602,32.5,1.4179845838579255,577.4,617.0,0.0,24.489795918367346,556.0,670.0,6.125,70.3125,,,0.050833364843337094,0.013750206538148312,0.0072421439606049996,0.07182571534209041,3.696916457386002,0.7077321068259289,0.1914384906945798,-4.28670143402613,11.562892976511296,30.116620763623715,0.38393726398671885,1094.013343031669,2.604592192006119,3.745992728823634,313.76606116217476,0.5408163265306123,0.5425531914893618,0.8235294117647058,0.08823529411764706,50.26985350809559,50.25342975398919,50.28694320922703,47.87234042553192,0.5024346538896032,0.49756534611039704,8.19616272003755,8.156349775890357,0.5222142764992032,0.47778572350079673,21.763593748176596,20.817224439974215,0.5196731389461788,0.4803268610538213,16.44431658915938,15.809536284327356,1.2554440849975395,1.1985758282420038,1.3761279975488583,1.2158391261233645,0.1598852317355206,0.9402233346886719,-0.6337327748888407,6.975761706968456e-05,0.053619964268648124,0.6161694484534124,1.864784604242945,5.7213539765475065,1.1972518323663892,1.3043265515367413,1.1276360126237857,1.4431743278281857,2.006906554747729,1.6231447295701862,2.5572353285349334,0.8774615099336501,Relax
100.42146296161266,597.4545454545455,21.87453683580697,,,,,,,15.882862025543412,15.962927806953143,0.0366128888000421,0.02658421824117126,599.0,23.7216,0.03960200333889816,31.0,1.377241507269126,577.0,614.4,0.0,23.232323232323232,556.0,670.0,6.1875,70.3125,,,0.05092840077749065,0.01165333935822194,0.005719322234290395,0.06830106237000298,4.370283848428256,0.7456458071120399,0.17061724889567675,-4.452162499853154,11.28749449988787,28.914719678675084,0.39037191525022874,1025.3364834241977,2.5616596915251937,3.717836520635155,296.27868757044905,0.5151515151515151,0.5157894736842106,0.7959183673469388,0.09090909090909091,49.14463452566096,49.13047581245473,49.159723943687545,51.578947368421055,0.5095866030256451,0.4904133969743547,8.058420709413037,7.905368135692654,0.4837597907028767,0.5162402092971232,20.111009452389258,20.775185026908186,0.4871756790172153,0.5128243209827849,15.319772281662463,15.717874510618394,1.4138479545030416,0.47931811464883367,1.4701741900892096,1.3017760272600816,0.8278785892890967,0.7716773893710016,-0.8513286013663447,6.626735032517079e-05,0.01228571727664419,0.6264163902680862,1.704748092238425,5.618860660308825,1.2210491061071589,1.1728264491145795,1.2653311996593084,1.5794400915948543,1.9347562508155642,1.6065549292729988,2.7869037675368307,1.0044479727393347,Relax
100.6077911008319,596.4949494949495,22.11766942430258,,,,,,,15.797829869049375,15.878205173669171,0.037079390937055784,0.02648443190076521,596.0,23.7216,0.03980134228187919,31.5,1.4000447914453644,575.0,614.4,0.0,24.242424242424242,556.0,670.0,6.6,70.3125,,,0.05263931267396731,0.017617894641929265,0.004173802003567575,0.07443100931946416,2.9878321867523097,0.7072228786799727,0.2367010040977918,-4.038840152450383,11.227586551372793,29.279413094155903,0.3834635112140889,1032.7581987140102,2.607810054296657,3.72096876133941,305.42059140337983,0.5050505050505051,0.5104166666666666,0.7755102040816326,0.13333333333333333,49.36908517350158,49.35028100680198,49.38829644953828,52.083333333333336,0.5082999427590155,0.49170005724098453,8.005152979600336,7.873353206966488,0.47110344639368623,0.5288965536063138,20.096503716007213,21.293533514443695,0.4758722604245901,0.52412773957541,15.296273007407652,16.053103442206844,1.3397741653219442,0.889615221910371,1.440011960106947,1.1035810347454587,0.7773711923627573,1.6520591495281751,-0.8781757742847883,0.00019853051767199786,0.04258717176184242,0.6563356869332586,1.698669046162043,5.6745149532818235,1.206941739667571,1.2080268274115042,1.3133805761725554,1.675452902414951,1.9196893351742508,1.6032040218879893,2.5342244259024054,0.9374847745567124,Relax
100.66062675810346,596.1414141414141,22.087031055280853,,,,,,,15.951456973951839,16.0331420899544,0.03704998601228108,0.02675784066591942,596.0,22.238999999999997,0.03731375838926174,30.5,1.3846403555078504,575.0,613.4,0.0,21.21212121212121,556.0,670.0,7.071428571428571,85.9375,,,0.05086797655832206,0.024517711695916197,0.00453928660638636,0.07992497486062461,2.07474405398098,0.6364465756420574,0.30675907923237844,-3.708359496252922,11.33714349553421,29.23936128345238,0.38773567540103254,1041.4091706748486,2.579076580883888,3.7245915077262253,301.6422077046203,0.5050505050505051,0.5104166666666666,0.7551020408163265,0.13793103448275862,50.38639876352396,50.394006646936106,50.37851403095943,51.041666666666664,0.5152390118703882,0.4847609881296119,8.13798526194975,7.893622637960055,0.4716541111759248,0.5283458888240755,20.080739102523122,21.253333041211512,0.47735046828712013,0.5226495317128799,15.320947866031535,16.03142918942613,1.4217073871855064,0.6823683167315826,1.4923487738198618,1.3648098180740704,0.6024587553917282,0.7056610118853142,-0.6869063270063288,3.2729582283719164e-05,0.01837963838803415,0.6148273781358466,1.6094379124341005,5.696995382465487,1.2292486697045633,0.7783788273025936,1.1480359372309585,1.5410451901045668,1.98434194999451,1.6018044289029292,2.417198085833577,1.0044479727393347,Relax
101.40688348003061,591.47,26.781742235555118,,,,,,,16.132344071849115,16.202611952893974,0.04527996726047833,0.027274999698799793,592.0,25.9455,0.04382685810810811,34.5,1.66012714062361,570.8,613.2,0.0,22.0,524.0,670.0,7.6923076923076925,125.0,,,0.048775986459043644,0.009317042420716324,0.005314658542455266,0.06340768742221523,5.235136243513378,0.7692440529214871,0.1469386883435217,-4.675910037479637,11.456976784825537,35.644738923220565,0.32142125685095013,1282.966580901945,3.1111819106093574,3.8151854538512144,443.5890677852683,0.49,0.49484536082474223,0.75,0.1,47.655649500384314,47.475044961982555,47.825225753657456,53.608247422680414,0.484145158160295,0.5158548418397049,7.977647343851265,8.234757099623273,0.4077838097196326,0.5922161902803674,22.762000449513277,27.430616989796505,0.41494358163899975,0.5850564183610003,17.055080205125094,20.251542816915315,1.4546385252864493,1.4784304000602297,1.4819770605784992,2.1635790906151087,-0.9376820343212486,-1.8771327649183376,-0.03896914592067256,0.0018290300263437318,0.20039190404270174,0.6699934201026445,1.5436865348713198,5.931014064623281,1.080671675492734,1.1000886984779028,1.2522105680427398,1.6130945669094243,1.9004643310385547,1.5474553887838212,2.4613865815338913,0.7308241808752197,Relax
101.00116514675503,594.13,27.907008279482614,,,,,,,16.47219880080778,16.554782155125732,0.04697121552435092,0.027724906671616957,595.5,29.651999999999997,0.049793450881612085,38.25,1.6941884090249129,571.0,617.2,0.0,24.0,531.0,670.0,7.6923076923076925,125.0,,,0.0500785246956059,0.02087866342917346,0.004123158199709953,0.07508034632448932,2.3985503126427092,0.6669991169083292,0.2780842717338847,-3.869027530029321,11.705998722955451,37.718148551575666,0.3103545421098469,1387.1030022675832,3.222121362238868,3.849078821687931,486.12980876852384,0.48,0.4845360824742268,0.7446808510638298,0.10344827586206896,50.755287009063444,50.73001386818496,50.7800901320459,51.546391752577314,0.5183530638076091,0.4816469361923907,8.428571428571429,8.124666398174922,0.49428281870333696,0.5057171812966631,26.517838659961846,26.822806768922657,0.4963978607179271,0.503602139282073,19.675321897268894,19.81758268614762,1.3575296668623493,1.6475729908206675,1.5395980063310972,1.8831722570894462,-0.8164313024699492,-1.0499318101781538,-0.29146644629855684,0.0010920266174443798,0.17146048910378495,0.6451013283397042,1.5553706911638243,6.026111814666549,1.0666290635050164,1.2119482232554337,1.2031034065765691,1.4211679683737113,1.9322359932528568,1.517139792168436,2.6250139641787067,0.7972627427729669,Relax
101.09224909511697,593.5858585858585,27.772402283418746,,,,,,,17.626510645928207,17.716708466561236,0.04678750661207277,0.029694963906183827,593.0,26.686799999999998,0.04500303541315345,36.0,1.5756040909795315,571.6,615.8,1.0101010101010102,25.252525252525253,531.0,670.0,5.823529411764706,93.75,,,0.04658443567952514,0.015898172017933757,0.003113165313231094,0.06559577301068999,2.930175596727478,0.7101743533372704,0.24236580023750723,-4.141551143790762,12.52760469701057,37.383496000185374,0.33511057117152576,1471.288453203081,2.984089688678164,3.8746679365665013,446.22281976357823,0.48484848484848486,0.49484536082474223,0.7708333333333334,0.1,50.43227665706053,50.44740213780076,50.41665650277829,50.51546391752577,0.47845507094062,0.5215449290593798,8.665609240275876,9.04741234293501,0.511265890245151,0.4887341097548492,26.730268584014123,26.134622909511126,0.5079531255413879,0.49204687445861206,19.86957526066784,19.55599888429937,1.4717758750967571,0.604986119877645,1.5558152891406458,1.6404075954232797,0.3758752540325787,-0.2399794519299201,-0.360174798225549,8.50974788656324e-05,0.02020597508916347,0.6498910496477097,1.7227665977411037,5.9878437412480245,1.098495596785104,0.9965383349066065,1.2613887180760586,1.6306069197289357,1.967697946249413,1.5222504536269323,2.409051439795858,0.8705215763740901,Relax
101.12416856361277,593.37,27.71305166024183,,,,,,,17.533805731624366,17.620042091976575,0.04670450420520389,0.029549531879981068,592.5,26.686799999999998,0.045041012658227846,37.25,1.5805497154709516,571.0,615.4,1.0,24.0,531.0,670.0,6.25,101.5625,,,0.04602408292361439,0.009960523788306596,0.0024532309531729206,0.05843783766509391,4.620648863631599,0.7875733388250519,0.17044648101783233,-4.6091256195809835,12.459251248029036,37.297107280629454,0.33405409042271345,1459.8793521786602,2.9935271821835676,3.871287076124246,446.5996178455236,0.49,0.5,0.8163265306122449,0.09375,48.85877318116976,48.847259461095156,48.8718903710114,53.06122448979592,0.4661256406886581,0.5338743593113416,8.507799542844465,9.105111818340825,0.503985737482428,0.49601426251757214,26.477944829178433,26.267711151254993,0.500183820428383,0.4998161795716168,19.665505529203177,19.658277014406114,1.5195648802741932,0.8761335516237061,1.611475632532021,1.7163736467118689,-0.04844655699552192,-0.3401660462251215,-0.38027166179694377,6.705939868327508e-05,0.03255287757463582,0.6764501344223226,1.7692866133759961,6.061209564709819,1.0870785698300114,1.1617570445134835,0.90541075259446,1.5338200738651284,1.8372392973297118,1.5244232924801686,2.734867863323641,0.9301398665684615,Relax
101.27306261559576,592.51,27.452252396045058,,,,,,,18.01850900231944,18.10609722013671,0.046332133459426945,0.030410472401004945,592.0,26.686799999999998,0.04507905405405405,34.5,1.5235584915772584,571.0,615.0,1.0,26.0,531.0,670.0,6.25,93.75,,,0.04839372851899928,0.013660945598519042,0.0028255920651011827,0.0648802661826195,3.542487463257708,0.7458928787805016,0.21055625080309268,-4.2932142033320595,12.802944125181563,36.74396333380469,0.348436667238963,1477.9022893080892,2.8699620161221016,3.8766158318304225,421.8151163592108,0.47,0.47959183673469385,0.8085106382978723,0.06060606060606061,51.308539944903586,51.304463538573486,51.31057953108953,52.04081632653062,0.49576877605625036,0.5042312239437495,9.016707847555185,9.093336874338489,0.5076247357634515,0.49237526423654854,26.179261260652556,25.78303941203365,0.5063406426906147,0.4936593573093852,19.57874792423748,19.332018736188477,1.4686585417910958,0.7774190583556733,1.4918413832939668,1.579638768143274,-0.21128248475314138,-0.4085866751100946,-0.38706556148107774,0.00012671966347631934,0.020936318790720006,0.7422248160625089,1.9459101490553132,5.92611181466655,1.1423078421601565,1.4134877326682547,1.1992630367853383,1.484186539293164,1.7781459113016365,1.5483714224006204,2.548513269805324,0.9965784284662087,Relax
101.0072656683894,594.1818181818181,27.776206098600127,,,,,,,18.12175375573991,18.214899351469896,0.046746980888096916,0.03049866758156962,594.0,28.1694,0.047423232323232326,38.0,1.53275485766946,572.6,617.0,1.0101010101010102,27.27272727272727,531.0,670.0,6.6,117.1875,,,0.047862162129758426,0.018775246488426815,0.0016667171647831735,0.0683041257829684,2.5492161798920177,0.7007213924651801,0.27487719479909384,-3.9752159528734134,12.87987885005481,37.23563593698099,0.345901943822128,1506.6779279866566,2.890992715884322,3.884990536100537,430.5918090605301,0.48484848484848486,0.49484536082474223,0.8333333333333334,0.0625,50.10351966873705,50.10920286380508,50.09769016514925,52.57731958762887,0.48628157723021465,0.5137184227697853,8.98165369477044,9.23155726215984,0.5161427713008172,0.48385722869918285,26.75122659811202,25.901051313177515,0.5129517278827151,0.487048272117285,19.95367419294401,19.44332930097609,1.3948614941115722,0.416946924016377,1.5322365635376949,1.5946237212791783,0.10617356560108959,-0.8938264343989104,-0.35037146421295357,0.00017591551414004243,0.01650458237543773,0.7450008910170611,1.9148195619852821,5.944766342192567,1.1308874456443743,1.3986960777190072,1.2275415455781413,1.605105399960263,1.773327692448357,1.563419309864307,2.4647508077718987,0.8705215763740901,Relax
101.56415348827049,590.89,27.128908506751184,,,,,,,18.23804437504917,18.325415730018364,0.04591194385884206,0.030865379977744033,591.5,25.9455,0.043863905325443785,32.5,1.4874899933824755,570.8,614.0,1.0,25.0,531.0,670.0,5.882352941176471,93.75,,,0.04415421316871686,0.010459713001548437,0.004101295963737068,0.05871522213400236,4.221359913238571,0.7520062355882133,0.1781431223691335,-4.560224258432256,12.95802573075861,36.18096394699263,0.35814484516617434,1472.885015949764,2.792166391606205,3.875138953961453,404.09308619483437,0.51,0.5104166666666666,0.8367346938775511,0.0967741935483871,48.48066298342542,48.476283313972864,48.48705597594064,54.166666666666664,0.45976313392043733,0.5402368660795628,8.788907665869727,9.52708277084066,0.5107694687199338,0.4892305312800661,25.85786108645961,25.306781149860573,0.5049677321407742,0.4950322678592259,19.311575258453487,19.120649548189874,1.4379349625188789,0.11504772490164172,1.4592708835566297,1.4954588249696998,0.9492790960842186,-0.055386545281015165,-0.18545278540702698,0.00011618263659681566,0.0033305823129422393,0.7374744505877864,1.8718021769015916,5.923465189601647,1.1285068779695298,1.046067283839675,1.268070908142324,1.5618091265823915,1.7945328603879829,1.568627873565115,2.646925070401921,0.8637013046707142,Relax
101.63287336742033,590.39,26.717714397497822,,,,,,,18.12275761120099,18.214643631715266,0.0452543477997558,0.03069624758414097,590.5,24.462899999999998,0.04142743437764606,31.5,1.4742631872416931,571.0,612.2,1.0,25.0,531.0,670.0,5.882352941176471,93.75,,,0.045230168826324406,0.0075813082958970344,0.005083419929467968,0.057894897051689403,5.966011018283314,0.7812462087278997,0.13094950819462262,-4.8820694958179445,12.879698028882226,35.62488955958679,0.3615365040595965,1441.4815239977374,2.765972422621971,3.865779190208561,394.1498483230817,0.53,0.5263157894736842,0.84,0.13793103448275862,49.618320610687036,49.605886854213956,49.63078734220366,53.68421052631579,0.4758726741503921,0.5241273258496079,8.885036721984912,9.324643671038412,0.512555222398726,0.48744477760127414,25.504913684879092,24.872316620283346,0.5083146202241723,0.4916853797758276,19.097702736509348,18.78271963336859,1.2933233934296848,0.6416614202378197,1.3610259192420395,1.2285271152492183,0.7217114286272359,0.8082565387636915,-0.7064933309278795,3.4047783103478196e-05,0.017053386143630694,0.7499294934498013,1.7730673362159024,5.880818564536743,1.1426860373668537,1.1562408717604682,1.2077321476078642,1.5692611573534587,1.76789576153934,1.6215530914182252,2.49217940990537,0.8637013046707142,Relax
102.0909137703734,587.56,26.16857549493941,,,,,,,17.489101945745723,17.570478276488778,0.044537707629755965,0.029765644267386693,589.5,24.462899999999998,0.04149770992366412,31.5,1.4962789728208425,568.0,607.4,1.0,23.0,531.0,647.0,5.555555555555555,93.75,,,0.04521500567715847,0.00411160866480991,0.004154514792940237,0.05348112913490862,10.996913705368133,0.8454385015526042,0.07687961588167272,-5.4939409244218735,12.424204337996136,34.63677740792796,0.3586997771666939,1351.935390022137,2.787846727697528,3.8379260468134517,386.24810621871853,0.53,0.5263157894736842,0.84,0.14285714285714285,51.8332135154565,51.76135605397152,51.90623143601118,51.578947368421055,0.47359730524091026,0.52640269475909,8.553851024359657,9.018122344049502,0.5116597567494943,0.48834024325050557,24.77582407924597,24.20464604989308,0.5073173781154445,0.4926826218845554,18.533885536399044,18.26460266489323,1.403204781718847,0.43427377924267274,1.7608934818631816,1.5437565922418452,1.8636899281249901,0.8636899281249901,-1.0,0.00035366167876807795,0.025451089436806826,0.798611140596508,1.9029851043382793,5.923465189601647,1.1648645009857845,1.2215510066903792,1.235401586357556,1.5409584404763972,1.7961700740900444,1.6047523959228354,3.2024439155573763,0.8637013046707142,Relax
101.76780227607982,589.55,27.868513422930196,,,,,,,17.53265351833371,17.62169162330543,0.04727082253062539,0.02973904421734155,590.0,24.462899999999998,0.04146254237288135,33.0,1.5895205705051085,568.0,612.0,1.0,23.0,531.0,663.0,6.25,93.75,,,0.04549569958444528,0.0035028581653666108,0.004227038412801129,0.05322559616261302,12.988164931788974,0.8547710662638399,0.06581153463579437,-5.6541760250622115,12.46041764281745,37.572934639707114,0.3316328033011632,1470.8134368365538,3.015383249321924,3.8745276987390573,453.1871909617613,0.53,0.5212765957446809,0.8367346938775511,0.10344827586206896,50.28943560057887,50.28994230018008,50.28830372379907,53.191489361702125,0.4608635646687698,0.5391364353312302,8.459085201662152,9.149272302946796,0.4984360140595358,0.5015639859404643,26.52649222975363,26.609596528781175,0.4947131471856552,0.5052868528143448,19.687698093786373,19.89698232267889,1.4869312869430504,0.47256599182528625,1.6074544174049215,1.7121556099011066,0.09824263472903283,-0.9017573652709672,-0.27844111868529353,0.0003295232345588432,0.023971719680248253,0.7773118907625727,2.0402208285265546,5.938562939644916,1.1021952079981325,1.1814022558215458,1.3404460653100583,1.6011550433818733,1.822857811843159,1.5495119910447004,2.902167728402789,0.8637013046707142,Relax
101.69794403884684,590.01,29.138296158668975,,,,,,,18.10853919893021,18.19956256369344,0.049386105589174716,0.03069191911820174,588.5,27.428099999999997,0.04660679694137638,37.75,1.60909148101744,566.8,615.0,1.0,25.0,531.0,663.0,7.6923076923076925,62.5,,,0.04434964079418092,0.009753227058844162,0.004145774568105788,0.05824864242113087,4.547176080963372,0.7613849688296288,0.16744127679971443,-4.6301570683400355,12.86903410341646,38.961302548410906,0.3303029740195722,1575.1767474778455,3.0275234516681784,3.9042994021493707,471.82502869141274,0.56,0.5434782608695652,0.86,0.13333333333333333,50.6993006993007,50.66304222536316,50.73640602510514,52.17391304347826,0.47846845736816174,0.5215315426318383,8.902246907382429,9.29422686732062,0.4950876964402775,0.5049123035597225,27.414134207868123,27.68480344705024,0.4934527101552724,0.5065472898447276,20.381177031356717,20.649830446798216,1.430022912520415,0.15506641026615742,1.4673930659870313,1.4882289704795437,0.6547883457396733,-0.34521165426032674,-0.36563237997997405,4.300944654571243e-05,0.0026360962145766287,0.7410325361742767,1.9783454248084673,5.910015409922182,1.096149886128561,0.9850570899998553,1.3736285515911075,1.4462286521342098,1.8543949627081282,1.5346755195803967,2.5591024392903132,0.8637013046707142,Relax
101.51432959428635,591.12,30.164960608044037,,,,,,,18.176741715553405,18.26450226197684,0.05103018102592373,0.03074966456143153,588.5,31.1346,0.05290501274426508,40.5,1.6595361853127175,566.8,618.6,1.0,26.0,531.0,663.0,8.333333333333334,62.5,,,0.04963798943956349,0.010504533513782251,0.006326351543001279,0.06646887449634702,4.7253873172413625,0.7467854663657872,0.1580368795677375,-4.555948351784219,12.91495340444086,40.73249763562705,0.31706755426518896,1652.6609189476358,3.1539020203991606,3.9251538672622734,513.8652263556328,0.56,0.5434782608695652,0.86,0.13333333333333333,51.43056524773203,51.47690644494447,51.382996195827204,52.17391304347826,0.4896205937203828,0.5103794062796172,9.039313230188972,9.228947360764124,0.4814123054357176,0.5185876945642822,28.26178801580705,29.33270703133191,0.4821624733767469,0.517837526623253,20.981394681048783,21.743748195443484,1.4730828359240002,0.28281920521302517,1.6754751074807466,1.534065504874234,1.4380961170884055,0.43809611708840546,-1.0,0.00025928117770927767,0.014559500568594673,0.7631028128528987,1.6519975268528961,6.017564284943817,1.0814064621198332,0.9811875196715185,1.19895376443491,1.3363180887915433,1.8354155394160967,1.5651450271278473,2.3079068294140987,0.7972627427729669,Relax
100.97143779285089,594.28,26.580953156481627,,,,,,,18.261567525402864,18.35348866780149,0.04472799548442086,0.030728894671540125,590.0,25.2042,0.04271898305084746,39.0,1.4555679910558625,572.6,618.6,1.0,26.0,535.0,663.0,6.666666666666667,54.6875,,,0.051177139263053464,0.015045343825315834,0.01009123910708971,0.07631372219545901,3.401526735264167,0.6706151631809505,0.19715122513328404,-4.19668671603292,12.977876295432887,35.292642349350594,0.3677218658486671,1438.9234090089403,2.7194466602960774,3.8650077878942075,383.90583347986154,0.55,0.5326086956521738,0.8367346938775511,0.13333333333333333,50.65562456866806,50.687949906410935,50.62343755323049,54.347826086956516,0.48450704225352104,0.5154929577464787,9.033949573578502,9.318349245068099,0.4585379622475617,0.5414620377524385,23.89856494840739,25.969774689163724,0.46163151792871765,0.5383684820712824,18.065902295363017,19.509751793128867,1.2910062012361525,0.7453922441532761,1.3447096539179373,1.6146120944332463,-0.19237628124697892,-1.031482085539567,-0.1379054885097402,0.0002904590683741065,0.0395691146251067,0.7343322992302168,1.8021222562636017,5.932662034987086,1.1695807345405873,1.2240568539068253,1.238400813272462,1.4068797688077699,1.8543331359933963,1.6135263602795256,2.3668327150277033,0.8637013046707142,Relax
101.51623377199304,591.08,24.92602388401862,,,,,,,16.910638573681865,16.996016121651014,0.04217030500781386,0.0286097289261722,586.5,24.462899999999998,0.041709974424552425,31.5,1.4739847803743584,570.0,612.2,0.0,21.0,535.0,663.0,6.666666666666667,54.6875,,,0.03895877678588068,0.012811172752054881,0.005361114123937992,0.05713106366187355,3.041000034882192,0.6819193322997738,0.22424180351125556,-4.357437617532855,12.017998252775316,33.30613299612607,0.3608343920974904,1257.4948675110568,2.7713544548431504,3.8064763311122807,369.2124002096496,0.54,0.5217391304347826,0.8541666666666666,0.09375,50.54704595185996,50.54529514945942,50.548019316769214,53.2608695652174,0.5058457843241144,0.4941542156758855,8.547884330675764,8.448523600038538,0.462982562051205,0.5370174379487949,22.662432776882174,24.407225073509164,0.4679208413693587,0.5320791586306413,17.126765396555705,18.263216951147225,1.3859321154820434,0.2641052762963785,1.536512682870626,1.4585104244402167,0.4548166042933479,-0.5451833957066521,-0.7953453241232303,0.00024036039564973686,0.012913665802285023,0.6143605013020754,1.8971199848858813,5.818562939644916,1.191906250218354,1.381237732875097,1.4078999465409663,1.6428711407748502,1.8484583974588722,1.6261759014555643,2.7201127307017345,0.9301398665684615,Relax
101.1042327894895,593.3131313131313,26.420711752005868,,,,,,,17.252920486286445,17.331063700419765,0.04453080567007016,0.02907894596585444,588.0,26.686799999999998,0.04538571428571428,37.5,1.531376196453608,570.6,617.4,0.0,22.22222222222222,535.0,663.0,7.615384615384615,117.1875,,,0.047254696207457585,0.011565215997428605,0.0036782953046087486,0.06249820750949494,4.085932871289574,0.7560968240613699,0.1850487631292718,-4.4597533066526855,12.254912667742834,35.04151981103198,0.34972548947162585,1349.096536641108,2.859385518369923,3.8370131373434684,400.78885715735044,0.5353535353535354,0.5164835164835164,0.8297872340425532,0.1,52.148579752367084,52.06461158718915,52.233602551298716,52.74725274725275,0.5301155256933257,0.46988447430667446,8.928120754458105,8.405631396585132,0.49968249861559016,0.5003175013844099,24.770227952289996,24.785962112827864,0.503002659645335,0.4969973403546651,18.618210615075153,18.506736030886106,1.3941776608054504,0.2762842780294359,1.5913636649321186,1.4999166388627707,0.3533243420616703,-0.6466756579383297,-0.8309888884071966,0.00011166449639727396,0.010272033312766127,0.6588889193396206,1.5629178967992077,5.740072781520944,1.1762045144525284,1.224053626970458,1.4824277706259117,1.6007373808115375,1.9007860646354622,1.6028531190026112,2.777634365392098,0.7365951800088454,Relax
101.0814459202284,593.59,26.551682021706615,,,,,,,17.320799664279388,17.40489366944278,0.04473067609243184,0.02917973628982865,590.0,28.1694,0.047744745762711864,38.25,1.5329362694762896,570.0,618.6,0.0,24.0,535.0,663.0,8.333333333333334,117.1875,,,0.04813273063279216,0.014867137761301061,0.004156392672026808,0.06715626106612002,3.2375250304117675,0.7167273738691635,0.22138126103630645,-4.2086020211463895,12.307118339493803,35.52912318231775,0.3463952171389034,1373.696333298189,2.886875887778217,3.84486084898189,410.2726761157407,0.54,0.5217391304347826,0.8333333333333334,0.09375,48.668106551475894,48.63378068036052,48.70382832542923,52.17391304347826,0.4739234369213158,0.5260765630786842,8.474451399979367,8.928571428571429,0.48918186957756193,0.510818130422438,24.84961508487536,25.393212168566684,0.48754648361330544,0.5124535163866946,18.565016784224536,19.03332093977487,1.3288484201704374,0.7708986843983121,1.4338490662174932,1.5806834612540563,0.027908404694890976,-0.6267707289345985,-0.30952828431512025,9.975864163671016e-05,0.032194453180638835,0.6190690104810472,1.4987723445465806,5.758562939644914,1.1517151104331447,1.2801428752105353,1.4709781007202263,1.7026011022025564,1.9776979326522268,1.585396727460172,3.027759167559852,0.6643856189774725,Relax
101.49165787050521,591.06,26.901924380117034,,,,,,,17.19437305185812,17.27149308266293,0.04551470980969282,0.02909074045250587,586.0,25.2042,0.04301058020477816,38.0,1.5645772194764533,568.0,613.8,0.0,22.0,535.0,663.0,7.142857142857143,54.6875,,,0.043732821509973874,0.014781441002187846,0.0038603708059216893,0.06237463331808341,2.9586304544665736,0.7011315206769324,0.23697840317247154,-4.214382871449504,12.212789879967502,35.96138042806909,0.3396084837287003,1379.7522540911532,2.9445671940246942,3.8467712222033863,423.56280424133587,0.53,0.5108695652173914,0.8297872340425532,0.09375,47.85454545454545,47.81015290469458,47.900749814212496,53.2608695652174,0.46991697700638885,0.530083022993611,8.37696062947386,8.897087347289906,0.47089943517951355,0.5291005648204865,24.67745900683053,26.158056106265036,0.4707977320654252,0.5292022679345749,18.427567018214265,19.537170502964543,1.3438060239379042,0.8994284917772419,1.39328579534285,1.779549881686045,-0.1947088999614497,-1.1667681236804897,-0.07054497397569681,0.0005798668974896637,0.07057646497999187,0.640858160064429,1.4539530095937052,5.758562939644915,1.1373875019930775,0.8677909040406119,1.2377282855075173,1.404058953513297,1.9295974614536302,1.589834625863365,2.703577550725218,0.7308241808752197,Relax
102.01852805773717,588.4,27.737951247234164,,,,,,,17.142598603149025,17.22796932988617,0.04714131755138369,0.029134260032544233,583.0,25.2042,0.04323190394511149,35.75,1.6180715590073267,566.0,613.0,0.0,22.0,535.0,663.0,5.882352941176471,78.125,,,0.04623847072349437,0.010498329805420922,0.003630457933056942,0.06036725846197223,4.4043644637281885,0.7659528012626554,0.1739076789785682,-4.55653910062141,12.182013939236374,37.240045176523836,0.3271213523370248,1425.2109944717995,3.0569695094978866,3.860849273921443,455.36673054782887,0.51,0.49462365591397844,0.8043478260869565,0.058823529411764705,49.085588880760795,49.03591241755993,49.13457078438956,51.61290322580645,0.47994362905166194,0.5200563709483379,8.44036704879399,8.78600464096283,0.4737309198711358,0.526269080128864,25.631620536504784,27.015569463221798,0.47433158586028573,0.5256684141397147,19.08166354443109,20.0877434144951,1.420605195265462,0.9414536783928529,1.717432458288819,1.8913320344618882,-0.6326305249801063,-1.6441553602148187,-0.31528610470784735,0.0007551255007441031,0.08054527101980247,0.6559331461765714,1.4947750041139605,5.741209564709819,1.1146612734030277,0.9185061024790728,1.106445772164507,1.3308552274585261,1.8692950779783848,1.5984011651078367,2.4513114707611487,0.7308241808752197,Relax
102.10221756800958,587.83,28.026342226303072,,,,,,,16.431369358331004,16.51461250843794,0.04767763167293787,0.027952587241772287,583.0,28.1694,0.048318010291595194,37.0,1.7056607769633763,564.0,613.0,0.0,20.0,535.0,663.0,6.25,78.125,,,0.04800167246663098,0.014666509170560572,0.004646947858303477,0.06731512949549504,3.2728764499041523,0.7130889122012819,0.21787834741582288,-4.222188672160512,11.677594493384646,37.98770673137192,0.30740456579709174,1393.6263188710516,3.2530421186394123,3.85111644942829,494.30243995069907,0.48,0.47368421052631576,0.7777777777777778,0.027777777777777776,49.58364875094625,49.56734289252244,49.60036983593861,50.526315789473685,0.49784877848030235,0.5021512215196977,8.239712200244444,8.275239684549003,0.483140268900333,0.5168597310996668,26.404606207061335,27.310485784012293,0.4844102364941393,0.5155897635058605,19.55883542152803,20.178481429427144,1.4411392446173235,0.20310887726580273,1.2795407644458734,1.3810952030787749,1.144291059604579,-0.055144663421133444,0.0,5.7117271564434706e-05,0.003089657321766952,0.6201152266428371,1.2809338454620645,5.778562939644915,1.0722992715145447,0.8150476028474178,0.9062931471468225,1.2679352464700109,1.8858374206343218,1.59167872375538,2.436033367195982,0.7972627427729669,Relax
101.47395501229254,591.1515151515151,28.22806666565903,,,,,,,16.913344568410942,16.975223588031618,0.04775098420990096,0.028610845333071618,586.0,29.651999999999997,0.05060068259385665,41.5,1.6689819421275551,566.0,621.4,0.0,19.19191919191919,549.0,663.0,6.6,39.0625,,,0.030194716334861534,0.01165124339383913,0.0058256629107048645,0.047671622639405525,2.5915445514448443,0.633389732991855,0.24440626831544376,-4.452342375580667,12.003295711254994,37.72943976351231,0.31814137147255594,1422.7570118256758,3.143256708083512,3.860100844596886,474.3732585155714,0.45454545454545453,0.45263157894736844,0.7674418604651163,0.029411764705882353,53.32840236686389,53.34117275714358,53.314732601765115,47.368421052631575,0.5344581579510593,0.46554184204894067,8.788171525572688,8.202023889034258,0.5312785657371036,0.4687214342628963,27.50055786873544,25.830794447264623,0.5315715905080097,0.4684284094919904,20.414610476991147,19.163808828793996,1.2100602246500285,0.8791146515088499,1.2633698607890644,1.5895363504772293,-0.4664423357409788,-1.267748095907299,-0.1289829897290918,0.00039603823470867744,0.05389798381928594,0.6731387361829699,1.3331845358059422,5.742746140172364,1.0824711273123935,0.9820117492353314,1.13908718892769,1.3693307049477321,1.895432761524739,1.6209342073246962,2.180187678053895,0.6696319818262232,Relax
101.12512822050371,593.3030303030303,29.555708225023903,,,,,,,16.36852380114259,16.448764563641344,0.049815535595576325,0.0275888086949132,588.0,29.651999999999997,0.05042857142857143,43.5,1.8056428657885932,566.6,622.4,0.0,17.17171717171717,549.0,668.0,7.071428571428571,62.5,,,0.02343252076302209,0.007702007214566064,0.004857399199940236,0.03599192717752839,3.0423914325484427,0.6510493491343864,0.21399263164143162,-4.866274306876529,11.631032965091773,40.20614419635672,0.28928496371820006,1469.1312109515995,3.456799092309982,3.8740306951649033,555.9382510530006,0.4444444444444444,0.4421052631578947,0.7380952380952381,0.029411764705882353,48.66514111365369,48.69637486248897,48.635883338732874,48.421052631578945,0.46966523212857525,0.5303347678714248,7.972892217337342,8.472210485786098,0.5500794196354107,0.4499205803645893,29.81982732460749,26.96872131690379,0.5438668417185336,0.4561331582814664,21.8264645783357,19.98862526518876,1.2730332823828998,0.6634026396586394,1.2730332823828998,1.4832698583564459,-0.23792936350205096,-0.8402069017436098,-0.1830935492181258,0.000260224106273026,0.0250677960933787,0.6026856999712544,1.2927683031090673,5.814920352573642,1.0303469878041496,1.1654601174947246,1.1391210024129717,1.392533553316414,1.8966593352533756,1.601100658611391,2.5636562341437648,0.5357055854609786,Relax
102.23953703402063,586.8712871287129,33.34326419723679,,,,,,,16.483931569865245,16.564913632022463,0.056815293112003847,0.028087814025650196,581.0,31.1346,0.05358795180722891,44.0,2.0227737573354516,561.0,621.0,0.0,17.82178217821782,517.0,668.0,7.214285714285714,93.75,,,0.018445324714596815,0.005797024967531597,0.004048183547237508,0.028290533229365922,3.1818604918741498,0.6519963609399324,0.20491041722445208,-5.150410429659244,11.713162758972565,45.61303198504444,0.256794215364001,1678.4677157735537,3.8941687163105247,3.931883102256434,710.4993688489255,0.42574257425742573,0.4343434343434343,0.6976744186046512,0.0,49.042709867452125,48.972192453918254,49.110607298529466,46.464646464646464,0.46459590755189173,0.5354040924481084,7.984834109583978,8.571741216039333,0.5417217971638407,0.45827820283615944,33.571990911135636,30.878311371111494,0.5369493850254909,0.4630506149745092,24.40119002728094,22.659930059535277,1.3748997724775458,0.28422731420344416,1.445262873684328,1.303149216582606,1.163290821723714,0.08603234212877497,-1.0,0.00011263117977284942,0.008418257628062843,0.5890060541797588,1.122142786078304,5.994651581676014,0.9535569706289948,0.848480728303541,1.027293278639471,1.165543210213942,1.7730506941210344,1.5314725876895705,2.272888816335164,0.7910746316140745,Relax
101.73576381082358,589.9108910891089,36.327152106902346,,,,,,,19.275632285349293,19.372736752790743,0.061580744915277305,0.03267549824306874,584.0,34.099799999999995,0.058390068493150676,53.0,1.8846153303367015,561.0,627.0,1.9801980198019802,19.801980198019802,516.0,690.0,7.769230769230769,93.75,,,0.028278876208792117,0.004563058343941051,0.003403441679323874,0.03624537623205704,6.197351442227679,0.7802064469613922,0.12589352955606173,-5.389762190806748,13.69859352804019,49.56467614352102,0.2763781506081895,2133.0357029722068,3.6182310280296393,4.035968234738013,717.3457964669128,0.42574257425742573,0.43999999999999995,0.75,0.0,50.03353454057679,50.0270076897989,50.039905375909086,49.0,0.5385008747140358,0.4614991252859643,10.052388027255267,9.305966371151902,0.49165351573772603,0.5083464842622738,34.753763977532856,35.33883148331394,0.4949780058414382,0.5050219941585619,25.581972320919327,25.84022078763135,1.4702790802019572,0.2683011235750552,1.515558679655605,1.3814081178680775,1.0905591989072958,0.07345773029866942,-1.0,0.0004518588163146835,0.0161846397622516,0.5520810609949964,0.9453719411749966,6.041729675756841,0.9191967141427055,0.8360017109069476,0.988638159650222,1.1162307185826017,1.7346978383850855,1.4984361063232123,2.3478912165485055,0.6592288596783955,Relax
102.15828965391817,587.3960396039604,35.38109077117912,,,,,,,19.299222782278047,19.396438285979677,0.06023379182984292,0.032855554823437605,581.0,31.1346,0.05358795180722891,42.0,1.8332909656687633,560.0,621.0,1.9801980198019802,20.792079207920793,516.0,689.0,7.214285714285714,54.6875,,,0.03518706798021635,0.0035168566209499807,0.0030840628554647488,0.04178798745663107,10.005260882859519,0.8420378707334166,0.08415951174006378,-5.650187693750939,13.715353042882603,48.37735717118792,0.28350769543589394,2084.486098874609,3.5272411158451873,4.025969113188952,682.5544131605682,0.44554455445544555,0.46,0.7391304347826086,0.0,49.93306559571619,49.92797369745895,49.938392959840435,47.0,0.5276808247865542,0.47231917521344574,9.963063096388893,9.42594742444943,0.509524248316224,0.49047575168377594,34.53222547070484,33.880585752154445,0.5108750416967117,0.4891249583032883,25.41394520949298,24.867072362439206,1.546734053669459,0.5719960428088002,1.661981247763213,1.6890771188560336,-0.3400384709393869,-1.3400384709393869,-0.45262926827296596,0.0012110564912627085,0.05103017574846063,0.5696713888319946,0.998528830111127,5.940099353910402,0.9540944708854402,0.7549919728592671,1.0122845552113022,1.176907600681802,1.6806739105721447,1.4844830259225994,2.4754906756568467,0.7910746316140745,Relax
102.51081588225848,585.4257425742575,36.623038250438334,,,,,,,19.480246405012437,19.576062480034697,0.06255795669216398,0.03327534986649736,576.0,31.1346,0.054053125,45.0,1.8800089839220364,556.0,621.0,1.9801980198019802,22.772277227722775,516.0,689.0,7.214285714285714,54.6875,,,0.04036462506966988,0.003960827369677369,0.004100667198330166,0.04842611963767742,10.190957924267677,0.8335300323808026,0.08179113666988279,-5.531302343802234,13.842366528564076,50.09133274491323,0.2763425481021917,2178.325643831862,3.6186971816956652,4.045092914099494,725.0614585255893,0.45544554455445546,0.47000000000000003,0.7446808510638298,0.0,49.00924702774109,48.966424704392026,49.054144372016445,47.0,0.5149151470433225,0.4850848529566774,9.93412646823407,9.642079494056091,0.5143792963604358,0.48562070363956406,35.92562454557887,34.906892115622625,0.5144173218975822,0.485582678102418,26.35656813468673,25.60723349115845,1.4850021019353061,0.4403393636461579,1.0446627382891482,1.2648324201122272,1.012875644581914,-0.26863437475882956,0.0,0.0007641645271108417,0.03737376540125714,0.6469707459112604,1.2492725635555992,6.045594621554495,0.939963884121248,0.8330195282290156,0.9663433112300434,1.219413825275771,1.7042538382082146,1.4626906203050671,2.40179265132166,0.7910746316140745,Relax
103.02702801275417,582.4356435643564,38.22653943050146,,,,,,,18.876175460087246,18.961361563011035,0.06563221164928175,0.03240903208562221,573.0,32.6172,0.05692356020942408,51.0,2.025121005647019,551.0,621.0,1.9801980198019802,20.792079207920793,516.0,689.0,7.769230769230769,54.6875,,,0.031063316633198407,0.0029368004629159506,0.0037152742836608797,0.03771539137977523,10.577264960778312,0.823624400988081,0.07786742641336611,-5.830434568155692,13.407707341735055,52.433516827204016,0.25570871749687313,2208.5812569175914,3.9106996812192305,4.051083492175962,820.2069501653996,0.4752475247524752,0.48484848484848486,0.7708333333333334,0.029411764705882353,47.880472550382194,47.89474649482855,47.87354302027144,46.464646464646464,0.4990878729196485,0.5009121270803515,9.476979018291182,9.49428323473732,0.5307185417511282,0.469281458248872,38.198043431171925,35.91911976787557,0.5287753395898278,0.47122466041017214,27.828974588392832,26.27094001972906,1.5575261803413483,0.8832561416401052,1.588876617661254,1.8386722961257034,-0.9035646376817503,-1.3297177336156984,-0.21718772540816145,0.001437553840777056,0.07167011519778786,0.6591191142272046,1.164570256459907,6.014453561874034,0.8741596858227708,1.0191047884623305,0.9396423921624228,1.0898037876004096,1.6308099433062269,1.4608723978123612,2.254125143784868,0.5933059737105559,Relax
104.28145052088311,575.1941747572815,37.776447235464936,,,,,,,18.642666644228854,18.721295247615704,0.06567599063638938,0.03241108387805843,566.0,32.6172,0.05762756183745583,42.0,2.0263435460376726,545.8,602.0,1.9417475728155338,19.41747572815534,516.0,689.0,7.923076923076923,93.75,,,0.03589067199136887,0.0026895391551880134,0.002708098743160531,0.04128830988971741,13.344543403332574,0.8692695847137887,0.06514045167680321,-5.918385417818929,13.237954822184548,51.75178014526875,0.2557970911343576,2152.266571874957,3.9093485995692943,4.039866170415511,809.2629969444976,0.47572815533980584,0.4851485148514852,0.7551020408163265,0.02857142857142857,47.52407152682254,47.42755965830152,47.625445564659884,46.53465346534654,0.49565585331452755,0.5043441466854726,9.326582895940586,9.407970078082679,0.5317018892880576,0.4682981107119426,37.73630686752198,35.41493882819008,0.5294851852846644,0.47051481471533546,27.48648763042159,25.91069077807985,1.553127605804779,0.620598541369511,1.6432443455391104,1.6075875697097364,-0.5134287125091728,-1.453500429211408,-0.5574554618686147,0.001994722969843598,0.06901898155892365,0.70466391933962,1.2556741787028265,6.023736813527971,0.8651412524463173,0.8719526987765478,0.9181885754606792,1.1738094604284168,1.622271380896338,1.4931625652067524,2.509877170624852,0.7790097701572681,Relax
104.5504585297468,573.9117647058823,37.97526629689812,,,,,,,18.35027719865089,18.440930583679318,0.06616917204399816,0.031974039089536735,564.0,28.1694,0.04994574468085106,39.0,2.0694655391739833,544.2,600.4000000000001,1.9607843137254901,16.666666666666664,516.0,689.0,6.8,70.3125,,,0.037845628152285364,0.004024322552468625,0.0033562755508977104,0.045226226255651696,9.404223359052038,0.8368071202393541,0.0889820550076456,-5.515398692223002,13.039707067110042,52.33888148261754,0.2491399643578686,2144.085723933374,4.013808072010415,4.0382122551089115,840.3128998997067,0.46078431372549017,0.47000000000000003,0.723404255319149,0.030303030303030304,49.36079545454545,49.357909365246414,49.3670210679625,46.0,0.5143487209644223,0.4856512790355776,9.352272451121172,9.087628953693036,0.5299468678115183,0.47005313218848166,38.10137090392361,35.88375746898766,0.5290351825470363,0.47096481745296387,27.741480356664066,26.17469245371498,1.4904382378808654,1.289768809405592,1.4904382378808654,1.7318280168593434,-0.6461445912101933,-0.44530846196408547,-0.31284259844233175,0.005429687539313853,0.17924944697071857,0.7198990923727,1.275362800412609,5.9947840137483235,0.8436374306107348,0.9045306987323836,0.9311587169549448,1.2895265736924941,1.614001245826049,1.4678156999734335,2.3918202944563376,0.7195752819773181,Relax
105.08982047086485,570.9423076923077,38.84193183158197,,,,,,,18.386096477755153,18.473838139447714,0.06803127270175022,0.032203072412114515,562.5,28.1694,0.05007893333333333,39.25,2.1125708699818793,539.0,597.2,1.9230769230769231,17.307692307692307,505.0,689.0,6.5,70.3125,,,0.02819233553859181,0.0027166444717896185,0.0030665403297603496,0.03397552034014178,10.377631608165425,0.8297837753873283,0.07995887758575185,-5.908357810324241,13.06297622294615,53.536402499024895,0.24400175606091717,2197.0563380586887,4.098331160167311,4.04881130342955,877.6396262600514,0.46153846153846156,0.4653465346534653,0.723404255319149,0.029411764705882353,48.99792674498963,48.94770071424489,49.05141148355124,46.53465346534654,0.5115310606278181,0.4884689393721818,9.343919066933948,9.130856970712435,0.5329001225191505,0.46709987748084925,39.08157831691432,36.58929664254958,0.5316990992488718,0.46830090075112807,28.413716645931054,26.665981866566415,1.489484482578988,1.9579342717856365,1.489484482578988,1.8525644685902942,-1.4285574146850841,-0.6710519587016908,-0.3145596656418005,0.005446454337659962,0.26237651404052803,0.7109932946922135,1.3166144404819007,5.994823583667494,0.8350913120880044,0.8559406724531927,0.9484785353246036,1.3339085647693938,1.6339400662909431,1.4719584501809233,2.152412423152181,0.7087003548033847,Relax
105.07478692951055,570.9519230769231,38.99050912839062,,,,,,,18.66386363605464,18.75378761160202,0.06829035432312137,0.03268902841323839,562.5,28.9107,0.0513968,43.0,2.089090977554572,538.6,597.8000000000001,1.9230769230769231,17.307692307692307,507.0,689.0,6.933333333333334,85.9375,,,0.034864333016371214,0.00280674083788207,0.0027434501642179267,0.04041452401847121,12.421643119241242,0.862668406052158,0.0694488158910214,-5.875731312946356,13.260930393096055,53.76577549078281,0.2466425950718298,2239.9059446819283,4.054449717854978,4.057199892330225,871.9625330754338,0.4423076923076923,0.45098039215686275,0.6956521739130435,0.029411764705882353,49.22139471902506,49.19674570261529,49.2496773669488,46.07843137254902,0.496251289054879,0.5037487109451211,9.34234508914683,9.41265314434173,0.5373417405168698,0.46265825948313033,39.41224765384743,36.570935850714285,0.534985124436794,0.46501487556320603,28.640920698302526,26.702353718471574,1.6282988945153138,0.8927107734420394,1.6282988945153138,1.7276774407349387,-0.5676932100009999,-0.4947175889234856,-0.3886777787654008,0.0010333741828553171,0.04804293260270762,0.6908176692626768,1.2578520380028393,5.964829204063997,0.8300504676620232,0.7678006867035019,0.946116582173923,1.2979066282505678,1.5978262158599055,1.461056348816546,2.235587643659644,0.7731276597855106,Relax
105.0493809692656,571.2135922330098,39.15545951101035,,,,,,,18.818795360583774,18.910124206758812,0.0685478427744381,0.032945286345544805,561.0,31.1346,0.05549839572192513,42.5,2.0806570644273013,538.4,599.2,1.9417475728155338,20.388349514563107,507.0,689.0,7.357142857142857,31.25,,,0.042760255162027444,0.003977113282658649,0.004000997915370308,0.0507383663600564,10.751580888699948,0.8427597936162624,0.07838473265843296,-5.5271990287120065,13.371477059679039,53.98631924387738,0.24768269530054146,2267.842943744471,4.037423764250413,4.062583084773967,871.8625930385597,0.4563106796116505,0.4653465346534653,0.7021276595744681,0.029411764705882353,49.15711395819286,49.14614313730521,49.17256396185451,47.524752475247524,0.5045262021426791,0.4954737978573208,9.49856685385894,9.41296767210212,0.5362046575367045,0.46379534246329546,39.53202028404796,36.76604463038504,0.5343733239416083,0.4656266760583921,28.748942589385848,26.836039183898805,1.4495818242137524,1.7636416683641176,1.4495818242137524,1.8646055749123294,-1.114963218210269,-0.7489533306922223,-0.26467796256847564,0.005204578569829826,0.2478857012939834,0.7034502408137651,1.3099213823353162,6.051703653539972,0.8421072471424778,0.8964423508995583,0.9691191410358417,1.176323958783966,1.6581098398034513,1.5184411843687802,2.374065774095011,0.5842573276179511,Relax
105.77821540737614,567.1634615384615,35.1200743571661,,,,,,,18.164833196276362,18.226513302583044,0.06192231470959183,0.032027509577227116,560.0,25.9455,0.04633125,34.5,1.9334102316098019,538.6,584.4,1.9230769230769231,18.269230769230766,507.0,689.0,6.933333333333334,78.125,,,0.02679821634048427,0.004680219655320619,0.004452072063449234,0.03593050805925412,5.725845860678617,0.745834606521302,0.1302575417971358,-5.364410235256421,12.888091153643286,47.1826983602824,0.273152905652642,1910.38652500747,3.660953185215834,3.9880913561072875,690.934599396615,0.46153846153846156,0.47058823529411764,0.7291666666666666,0.027777777777777776,46.468144044321335,46.69421960873179,46.23524066155389,50.98039215686274,0.4918201612428647,0.5081798387571352,9.051865802684214,9.201182788418148,0.4116520877905865,0.5883479122094133,30.272475444091477,36.190941615883304,0.41723375595363726,0.5827662440463628,22.342325796824795,26.404980777782782,1.394012358877167,1.6247959058429027,1.4896111313531133,1.9287079781728411,-1.298100060200774,-1.2603690995810766,-0.2297526137032358,0.007859676000566659,0.31903610366017615,0.7902077201052409,1.291803517698968,5.929872742300539,0.9068982876182222,1.1472207558396412,1.0005492212028846,1.192573576156427,1.6631942371752815,1.553754951075323,1.9035901586096395,0.6442730498212589,Relax
106.29629773902441,564.495238095238,31.411696685226804,,,,,,,17.786392811100548,17.87246067654933,0.05564563625234199,0.03150849043672489,560.0,23.7216,0.042359999999999995,31.0,1.7660521174154356,538.8,581.0,1.9047619047619049,19.047619047619047,507.0,689.0,7.5,31.25,,,0.014327484466930628,0.0051321013917686375,0.005866204455202927,0.025325790313902193,2.791738388082207,0.5657270430398289,0.2026432868691743,-5.272240075649039,12.637738140877941,42.75868806632284,0.29555953918126754,1697.6321706755336,3.3834130435109966,3.9368137066171243,578.6812117080588,0.47619047619047616,0.4854368932038835,0.76,0.05555555555555555,49.8223169864961,49.81076297638721,49.834850519264215,49.51456310679612,0.5279170845870946,0.4720829154129053,9.182349044802345,8.683205528629804,0.4812693600197303,0.5187306399802696,29.66323266703489,30.796071712061803,0.48501694777917603,0.5149830522208237,21.957036528630503,22.62516398997895,1.3190939010523395,2.463458281017382,1.3190939010523395,2.153575090482581,-2.1671080382551864,-1.8561080103407779,-0.16125621210617389,0.010517209351540322,0.5697786346994234,0.7551622584278608,1.3176658547307942,5.836731560643099,0.9545993502782512,1.032146028102216,1.0665594573729653,1.504187054699014,1.6549669154808386,1.609332054462934,2.006080522764857,0.7673423448761283,Relax
105.86735821093139,566.8095238095239,30.216238387182845,,,,,,,15.77668679266487,15.843179858251661,0.053309334296466414,0.027834194963115372,561.0,20.7564,0.03699893048128342,28.0,1.9152461340128413,545.8,581.0,0.9523809523809524,18.095238095238095,507.0,689.0,5.833333333333333,85.9375,,,0.01531786965235496,0.007435347561529407,0.006910276059836231,0.0296634932737206,2.060141711681352,0.5163879220498053,0.2506565053859152,-4.901509953487505,11.202819913327874,40.230170016257304,0.27846812252597325,1415.8886334886442,3.5910753120645906,3.857999205290537,577.8782813821709,0.4857142857142857,0.49514563106796117,0.7843137254901961,0.05405405405405406,47.83258594917789,48.04305886698353,47.60709005041918,47.57281553398058,0.4037703778103994,0.5962296221896005,7.123051598694896,8.65576860233032,0.49505493597508976,0.5049450640249105,28.306004114153872,28.587352284296493,0.4884781002329717,0.5115218997670282,20.639376601391888,21.120594697161813,1.23166418906527,1.3705779089699157,1.3428174940076523,1.9169531435502278,-1.3078587860324813,-2.3424482011062917,-0.08109958887774699,0.0023747445768356984,0.19084527830656406,0.8106356098958409,1.3115342859107817,5.828345041393231,0.9700190834449851,1.1242600918116719,0.9570341240797523,1.3117905437411341,1.6503084408118376,1.7013710174324879,1.8709184499111393,0.6394519540634402,Relax
106.63882699058655,562.6380952380953,21.209179711372716,,,,,,,14.381144171876857,14.446364321897251,0.037695953919361765,0.02556020343021937,561.0,19.273799999999998,0.034356149732620314,26.0,1.4747908412495072,545.8,578.2,0.0,15.238095238095239,507.0,617.0,5.833333333333333,85.9375,,,0.02529341681276815,0.010945869858860566,0.008619053618177375,0.04485834028980609,2.310772660273628,0.5638509282635228,0.244009693362373,-4.5147930757098065,10.215122175504945,28.0856331825034,0.3637134370133657,901.3171968213212,2.7494172561000325,3.6618477672962793,308.8764980818821,0.4857142857142857,0.49514563106796117,0.7647058823529411,0.05405405405405406,48.525896414342625,48.579390506482845,48.47220246763496,46.601941747572816,0.41531451950346354,0.5846854804965362,6.585140671990456,7.813356749139284,0.5719478851830112,0.4280521148169885,21.24038813884612,18.3752198074826,0.5536381918304043,0.4463618081695956,15.724474012804656,14.119087198941392,1.15033258572835,1.5604369858925757,1.2757813922901056,1.9305510786746378,-1.8695753159271131,-2.8932031400170732,-0.08039338191538599,0.0021367517247041063,0.21599522036021065,0.7085821815229392,1.699951919974932,5.722445846357385,1.1944077967135303,1.1039293061802598,1.0453757749206947,1.3463211788056553,1.7967684056665427,1.7282132923933953,2.250868860149238,0.8312875402824722,Relax
107.19169570268784,559.7714285714286,21.30874556051194,,,,,,,13.800431988779303,13.867232265111454,0.038066868855549094,0.024653691282527337,560.0,20.7564,0.037065,27.0,1.544063662488059,543.0,575.2,0.0,13.333333333333334,507.0,617.0,5.833333333333333,85.9375,,,0.042922259318389645,0.01275731327044288,0.010785504039903256,0.06646507662873577,3.364521855697878,0.6457866521112603,0.19194009722885555,-4.361650581978819,9.805613970949196,28.64394016307325,0.3423276935758386,882.3835891917286,2.921177628237845,3.652627532342983,334.69614875581226,0.44761904761904764,0.4563106796116505,0.7021276595744681,0.05714285714285714,49.8742665549036,49.87721620340946,49.8714375379167,46.601941747572816,0.4374716009491594,0.5625283990508406,6.485607665910458,7.354412188664482,0.5959193277865812,0.40408067221341903,22.111921989008827,18.20819084966182,0.5792987766742509,0.4207012233257492,16.29417381833348,13.8857047473019,1.1718439402050904,2.3783295656569825,1.1898938851385892,2.337988397643063,-2.5463447553255385,-3.4136857355758794,-0.017268536252111975,0.007096148736796963,0.5723848505255521,0.7694296384903914,1.7346010553881064,5.689637813613992,1.1634650868347387,0.9573673981925194,1.0675617419409844,1.3814621500527977,1.7495199026180535,1.6752484998784378,2.8658332969005262,0.8952327356888163,Relax
106.91031333272473,561.2857142857143,20.96962743410752,,,,,,,13.844604614183712,13.909380783715994,0.03735998779301416,0.024665877398647486,561.0,17.7912,0.03171336898395722,24.0,1.5146425642682684,545.8,576.2,0.0,12.380952380952381,507.0,617.0,5.833333333333333,85.9375,,,0.046257463742050135,0.011599119959723106,0.007317104479350647,0.06517368818112389,3.988014944467769,0.7097567290268465,0.1779724346347877,-4.456826049288865,9.835417474271434,28.025763645818685,0.350941997462354,865.9645755794401,2.84947372281162,3.6444702364536843,319.43470828195814,0.4380952380952381,0.4519230769230769,0.7021276595744681,0.027777777777777776,51.07794361525705,51.103596445432785,51.051402183890325,46.15384615384615,0.45309521420688287,0.5469047857931172,6.621530049329593,7.274773542666972,0.6009242468140902,0.39907575318590977,21.725376874629557,17.70455951405183,0.5847093277113558,0.4152906722886443,16.059835935321125,13.534654736706262,1.35934532398446,1.5552059712039537,1.369256342213517,2.108113877944742,-1.434429518504837,-2.2939406644541975,-0.024913388058018595,0.0022296098949818404,0.21764798309840425,0.8073647615188491,1.823012012732159,5.730586350855226,1.1774241180567326,1.1693281439370615,1.1291157711720194,1.4323027398262154,1.74336606069237,1.6596364120953457,2.4047341541048413,0.9591779310951603,Relax
106.87542651844193,561.4666666666667,21.092774312667554,,,,,,,14.482416394213523,14.550211150042772,0.037567277925672445,0.025793902388174167,562.0,17.7912,0.031656939501779356,24.0,1.4564402609702074,546.0,576.2,0.0,14.285714285714285,507.0,617.0,5.526315789473684,85.9375,,,0.05081580528113343,0.0209388071085092,0.013550034669345132,0.08530464705898776,2.426872028468264,0.5956979723038364,0.24545916114077718,-3.866151042282339,10.288552971891358,28.089209448706875,0.36628132915876727,907.9118553820416,2.730141889286808,3.6650137970518513,306.7501094114618,0.45714285714285713,0.47115384615384615,0.7346938775510204,0.02702702702702703,51.08433734939759,51.08696976306351,51.08015381417454,47.11538461538461,0.4864071883739054,0.5135928116260944,7.17668825914377,7.3745166042006485,0.580604753548507,0.4193952464514931,21.403254226932408,18.19077777200918,0.5694588004138419,0.43054119958615805,15.962520882862332,13.879623393598516,1.251241117369445,1.823163987692337,1.3641510934149303,2.0405222266970333,-1.849471025490855,-2.4993093808677003,-0.12901245425639565,0.00214178554236857,0.2507163456805334,0.7903575499693041,1.90210752639692,5.642537660399641,1.2164555663852468,1.235964709490034,1.1964709330284278,1.418396136483912,1.7131223431186038,1.6643366378421962,2.6298998724497435,0.8952327356888163,Relax
106.11201251797648,565.4761904761905,21.42118615103319,,,,,,,14.469796128487781,14.53983929797895,0.037881676561827116,0.025588692100904708,563.0,17.7912,0.03160071047957371,24.0,1.4804069083502622,550.8,581.6,0.0,15.238095238095239,507.0,617.0,5.526315789473684,93.75,,,0.0483479977094915,0.014015251724489246,0.009276587794648863,0.0716398372286296,3.449670306314347,0.6748758732546376,0.19563489067906895,-4.267609133450034,10.281218964963566,28.610051627791314,0.35935688263409377,924.0875579164265,2.7827489838791406,3.6726832328251913,318.4583683838641,0.44761904761904764,0.46153846153846156,0.7083333333333334,0.029411764705882353,50.12028869286288,50.1228194563583,50.11744952873096,49.03846153846153,0.48693455797933427,0.5130654420206658,7.174320440739162,7.364306464884378,0.5596228438701649,0.44037715612983497,21.40259131058619,18.98589316668838,0.551309588725467,0.44869041127453313,15.96154423284895,14.39960327657749,1.3411959303286138,1.5951350383346865,1.4449630557964213,2.0545603961740997,-1.3595742229890089,-2.0862984874946457,-0.11783966515205183,0.00215282692639471,0.21437686447059204,0.8015556657216796,1.930758344034711,5.599621113478911,1.197133920932267,1.4840155447771384,1.5877667110613924,1.6427398605519397,1.734031574828568,1.635771244606332,2.7731381693762573,0.9591779310951603,Relax
106.9300158291473,561.4,25.924298076693045,,,,,,,14.538410663321649,14.600172894308113,0.04617794456126299,0.02589670584845324,563.0,20.7564,0.03686749555950266,27.0,1.783159017656337,545.8,581.6,0.0,16.19047619047619,499.0,617.0,6.5625,101.5625,,,0.04974511337790121,0.010833141809085612,0.009438637670894564,0.07001689285788139,4.591937801107767,0.7104730208304537,0.15472183021709437,-4.525145157632161,10.323881260061288,34.981281669120406,0.2951258721081868,1134.5629336445918,3.3883847351526724,3.7617987009509424,474.12016329489427,0.44761904761904764,0.4563106796116505,0.6808510638297872,0.030303030303030304,47.91332263242375,47.805029430566975,48.01826010610844,50.48543689320388,0.46497134018742614,0.5350286598125739,7.043898413121028,7.555940246568174,0.5229960081730367,0.47700399182696324,25.29792521915768,24.15998855174076,0.5183419607835686,0.4816580392164313,18.568811556592188,17.899682676376603,1.38709639475805,1.4146198845052727,1.413673931840317,2.0944063370106862,-1.2474676113350522,-2.249672860321887,-0.018787758728248043,0.0020659247679722203,0.1916825543893728,0.7437915884957795,1.6094379124341003,5.7554998938528055,1.0611189508821761,1.053031899469621,1.5400803307929836,1.6478424785203754,1.7465159523616534,1.5667195478096148,2.8253447262944924,0.9591779310951603,Relax
105.86060735380754,567.0190476190476,29.033462442360214,,,,,,,16.34307663342964,16.413304499717544,0.05120368101261103,0.028822800048879056,564.0,22.238999999999997,0.039430851063829785,33.0,1.7764991925065374,549.8,589.8,0.9523809523809524,20.952380952380953,499.0,660.0,7.0,117.1875,,,0.04724540263781485,0.0065746408497104995,0.004368589524363902,0.05818863301188926,7.186005094087413,0.811935255948727,0.1129884052847083,-5.024535326028408,11.605958913429948,39.355816865301826,0.2948981837463111,1434.9601233542398,3.3910008779852614,3.8638099424270362,533.8224381762626,0.47619047619047616,0.4854368932038835,0.72,0.029411764705882353,52.06489675516224,52.02816503479437,52.098047752384716,49.51456310679612,0.5500755993952048,0.44992440060479527,8.612476837794885,7.789088708740025,0.5275967958413151,0.472403204158685,28.586435499596405,27.049880342851605,0.5293970581528018,0.4706029418471982,21.111123274877382,19.90434537324967,1.4311975661503602,1.4884071735644806,1.4311975661503602,2.0714966694576757,-0.9429846349980995,-1.5785910002392667,-0.06980917945060107,0.0026432322819675592,0.20735429942179948,0.7196404931573763,1.8245492920510458,5.859496889457986,1.0309536270357509,1.5247550592291137,1.6007897854499753,1.709167577561431,1.6599537516994691,1.5253639293367725,2.1967316916336794,0.9591779310951603,Relax
105.22801215067177,570.2692307692307,33.18621504940646,,,,,,,17.424176931711088,17.509248052701352,0.05819394289367829,0.030554299603728897,565.0,26.686799999999998,0.04723327433628318,36.5,1.9046073269038772,549.6,595.8,0.9615384615384616,25.961538461538463,499.0,677.0,8.0,125.0,,,0.044367665997767904,0.004695186046512122,0.0022461114044483293,0.05130896344872836,9.449607653082667,0.8647156951845908,0.09150810561986684,-5.361217540586867,12.380908031542479,45.49666269508823,0.27212782868311586,1769.6277150649223,3.6747436116299155,3.954852021352617,668.7542823570263,0.4519230769230769,0.4607843137254902,0.6808510638297872,0.03125,49.75778546712803,49.754952398965486,49.76108101117415,50.98039215686274,0.5279971858910811,0.4720028141089188,8.996458998395086,8.506053207949654,0.5342344095289842,0.4657655904710159,33.254120768615216,31.050117041598856,0.5338043610227781,0.46619563897722205,24.359524036846963,22.764695357872224,1.3945909232849754,1.7030763705118064,1.381389063446476,2.194742866694902,-1.1813430906668003,-2.078570606974847,-0.022420827784723655,0.0021703304850728146,0.2568086777089175,0.6880869708894135,1.461517782357478,5.8961249057204705,0.9734480886073398,1.1394660316736072,1.5694306070544406,1.850245143496584,1.6220600909185339,1.5085338539372,2.396973538906077,0.9664095747318882,Relax
104.95044260575963,571.7184466019418,33.56860621255362,,,,,,,17.440936744045715,17.527040428583682,0.05871527569570572,0.03050616408777334,571.0,29.651999999999997,0.05192994746059544,40.0,1.9247020217542985,549.4,598.0,0.9708737864077669,24.271844660194176,499.0,677.0,7.357142857142857,78.125,,,0.04011187544084503,0.0071883640496354425,0.0021463818174350417,0.049446621307915516,5.580111853527967,0.8112156984611574,0.14537624330026194,-4.9352916644825315,12.39348914118229,46.06425721804155,0.2690478451116379,1793.5254178652579,3.716811036286364,3.9606776458443655,684.8485584254025,0.47572815533980584,0.48,0.6875,0.06666666666666667,49.894884372810075,49.89193724257642,49.89777024897629,51.0,0.5252844296902697,0.47471557030973016,8.982380993747242,8.539077326278198,0.5294532336344479,0.47054676636555226,33.517982906646836,31.5984274121296,0.529171836142563,0.470828163857437,24.537097897338032,23.14493958194514,1.513139626997529,1.4574965634413366,1.7133674718430012,2.1706116698832787,-0.4453346645568317,-1.2772002903203088,-0.18628111413129855,0.002657388004358654,0.22162241758152065,0.612230316597465,1.2729656758128873,5.982332323173695,0.9644047826613084,1.203418498164339,1.5164571167152212,2.04717228111105,1.6789501112960459,1.4884233830516767,2.363583481850618,0.7790097701572681,Relax
105.17548563785215,570.4757281553398,33.61717717447849,,,,,,,17.16043100148894,17.24312258975478,0.05892832160130848,0.030080913445657026,567.0,28.1694,0.04968148148148148,39.0,1.9589937555508754,548.4,597.6,0.9708737864077669,22.330097087378643,499.0,677.0,7.357142857142857,78.125,,,0.025276209776818215,0.01405656371298692,0.001770014190773484,0.041102787680578616,1.7981784376977863,0.6149512284482208,0.34198565367936723,-4.264665824107342,12.192728912046547,46.099525267168204,0.26448708183834885,1765.8233028680745,3.7809029955239453,3.9539173536944734,697.1913326994722,0.4563106796116505,0.45454545454545453,0.6222222222222222,0.034482758620689655,50.9719222462203,50.952561907339614,50.987422968104504,49.494949494949495,0.5312780903552285,0.46872190964477134,8.888194417315589,8.34853399118553,0.53193850015237,0.4680614998476301,33.622280364146626,31.538999555677087,0.531895313040779,0.46810468695922103,24.59123560219453,23.06953090956749,1.5449011886586093,1.54580884776427,1.6038497027772207,2.306937286375005,-1.0526382836600021,-2.030901631328524,-0.04516524820344231,0.002047205349594947,0.22330349770019445,0.6315185994848962,1.3198492617117377,5.909421886238483,0.9542481115861459,0.7914189880525171,1.6534675216420593,1.9957115728958976,1.7034439426547021,1.4788049322911587,2.2749224663903256,0.7140922893108291,Relax
104.37518386692808,574.8155339805825,36.24528301232372,,,,,,,17.49509735247418,17.570878733298997,0.06305550366971832,0.030436020459156853,571.0,32.6172,0.05712294220665499,47.5,2.0717394297436056,549.4,601.6,0.9708737864077669,24.271844660194176,499.0,677.0,9.363636363636363,156.25,,,0.04457747297374418,0.004490342458009226,0.0017055519763163746,0.050773367408069786,9.927410523941957,0.8779695980270782,0.08843893338647345,-5.405826308864937,12.424487503722213,49.73898089176563,0.24979376901103956,1941.4456583381152,4.0033024200687946,3.9950953489776815,796.4807303030434,0.44660194174757284,0.4444444444444444,0.6136363636363636,0.034482758620689655,52.180028129395225,52.1346426655058,52.218539508113494,48.484848484848484,0.5475336322869956,0.45246636771300436,9.199117478119172,8.362457358295282,0.5388877425823194,0.4611122574176806,36.51287542227146,33.775377844653505,0.5393961124755272,0.46060388752447234,26.625305951092404,24.603931003179326,1.5085771986514243,1.2049713672672049,1.770226344766788,1.991020980634158,-0.008742116942329403,-0.7715662369158363,-0.31676358304835284,0.001072868352590444,0.131087072452041,0.6842739920223093,1.3150668518315227,5.975003318298321,0.9246294231256725,1.2026923764915134,1.467144899698946,1.7812059555167092,1.7067995491685795,1.4658202463657786,2.1828848299051504,0.6491748084643901,Relax
104.28480055734966,575.3689320388349,36.120438592885264,,,,,,,17.2936007659186,17.375178161739907,0.0627778744759324,0.0300565425120162,572.0,32.6172,0.05702307692307692,46.5,2.0886592145731555,550.0,601.0,0.9708737864077669,23.300970873786408,499.0,677.0,9.363636363636363,78.125,,,0.03592693838059158,0.009890158975652314,0.0017970246198904306,0.04761412197613432,3.632594629574393,0.7545437548675008,0.20771482419878642,-4.616215059093259,12.286106302490701,49.77272994019781,0.24684413166110278,1921.1249086286537,4.051139450918444,3.9905257129102076,806.5450793625798,0.4563106796116505,0.44897959183673475,0.5909090909090909,0.03571428571428571,48.658448150833934,48.64799338057832,48.6736774862799,52.04081632653062,0.5158170791673495,0.4841829208326505,8.825873305455975,8.55095385797328,0.510149231376618,0.489850768623382,35.550038873032726,34.83560508769333,0.5104748853468429,0.48952511465315685,25.900784770717838,25.36373586152988,1.517770164518301,1.9030266940938931,1.8228998248165975,2.3205094928864223,-0.9459062045619291,-1.5754064241809296,-0.2385167167574827,0.002769740860292753,0.3183675174067427,0.710397906287247,1.2947271675944,5.931408900864604,0.8996744292949433,0.726041270007125,1.3243064817040746,1.825024348826909,1.6860085649374361,1.4533565521651461,2.347022950284182,0.6491748084643901,Relax
104.63585939601792,573.6310679611651,36.66702057527833,,,,,,,17.730277637364825,17.79995451951811,0.0639209112323754,0.03090885174748793,571.0,32.6172,0.05712294220665499,46.5,2.0680454827174377,548.4,600.6,0.9708737864077669,25.24271844660194,499.0,677.0,7.357142857142857,62.5,,,0.03738450223007916,0.012685230804139075,0.0013593966942779694,0.0514291297284962,2.9470888474398853,0.726912985450829,0.2466545879953002,-4.367316891051952,12.58646854556339,50.219358171508134,0.2506298169438633,1985.7516195369008,3.9899482519431535,4.004895035384732,801.490561400464,0.46601941747572817,0.4536082474226804,0.5909090909090909,0.03571428571428571,52.83018867924527,52.80156173398227,52.85074451686697,49.48453608247423,0.5629190706377671,0.43708092936223286,9.452853306994896,8.329537089107165,0.521450013372969,0.47854998662703074,36.264149744819164,34.740399802586516,0.5239055834369225,0.4760944165630774,26.499481054902116,25.2613990760841,1.5331426885334958,1.365857088446341,1.651986867240681,2.2160712327566663,-0.802868360669116,-1.7746023085672369,-0.08701069805360835,0.0016818479514625645,0.17549759473196375,0.6848349005043071,1.3173014896329391,5.904662420261074,0.9191924929938197,0.6959096396065916,1.3078404551523435,1.755003770786184,1.6825259124197005,1.468368667252993,2.0562808439606846,0.7140922893108291,Relax
103.8877555971886,577.5882352941177,35.705992214519064,,,,,,,17.82894520516323,17.917843310814256,0.061819112704636324,0.030867916130743953,576.0,34.8411,0.06048802083333333,44.0,2.002697961300519,551.0,606.4000000000001,0.9803921568627451,26.47058823529412,499.0,677.0,7.846153846153846,78.125,,,0.02488011327426225,0.013181489251952488,0.0008290255751959582,0.038890628101410696,1.8875039685350365,0.6397457302408486,0.3389374225991056,-4.328941762971428,12.669828509314778,49.1273834228956,0.257897482555728,1955.4388666396915,3.8775097379398193,3.9982143530082856,761.9676304871239,0.49019607843137253,0.47368421052631576,0.6222222222222222,0.03571428571428571,50.1067615658363,50.10304425908969,50.109706890082194,51.578947368421055,0.5311945179878524,0.46880548201214767,9.234175653516669,8.674963976870451,0.49665800924310044,0.5033419907568997,34.62201621743167,34.85420770897103,0.4988118241799209,0.5011881758200792,25.337265114452485,25.397547076638087,1.5118417574104621,1.6307470341213586,1.5799714743586284,2.3163941354314024,-0.9512174722862401,-1.929575194206762,-0.048413919716520454,0.0028082675613832343,0.2685118935051606,0.7073662759183112,1.3596261140377293,5.949146542845835,0.9334417363715448,0.7016362742435136,1.1881959097058785,1.414984000049058,1.7261321067952577,1.4450590118391011,2.4291035795766494,0.6541593472521074,Relax
104.3889541230557,574.6407766990292,37.74913435416583,,,,,,,17.932881399655706,18.016224703108648,0.06569170842872002,0.031207116039814447,573.0,37.065,0.06468586387434555,50.0,2.105023365341087,539.8,605.8000000000001,0.9708737864077669,26.21359223300971,499.0,677.0,8.583333333333334,62.5,,,0.03249039764330476,0.008335819545127368,0.0012548380461950758,0.042081055234627206,3.8976848607881327,0.7720908485338888,0.19808960347239768,-4.787193441862906,12.739394658948719,51.74853328309941,0.24617885475624265,2071.079212835072,4.062087302299638,4.023166819690239,840.8282398476332,0.4854368932038835,0.46875,0.6222222222222222,0.037037037037037035,48.463687150837984,48.339448954027944,48.58432262790617,55.208333333333336,0.5186269129931103,0.48137308700688985,9.17702684872275,8.841284795304535,0.4599038830722636,0.5400961169277364,35.09389588018119,38.03063461083774,0.4632612103618435,0.5367387896381567,25.64955506272162,27.60885261772691,1.5482548378977343,1.6485004595566415,1.5564386111484634,2.2822278713359276,-0.675812900303006,-1.4952585076227516,-0.059727596082889176,0.0021370834402034988,0.24620039923333967,0.7200274551660488,1.5081841787289274,6.067331230961691,0.8833528939171298,1.2243191043158113,0.8033585793070612,1.685849885164188,1.782003405908142,1.4166988338420374,2.172542014748584,0.7140922893108291,Relax
103.6952420843539,578.7352941176471,39.16629346736865,,,,,,,18.813835229415716,18.90561758413683,0.06767566081671667,0.032508532692998644,579.0,40.771499999999996,0.07041709844559585,52.0,2.081781465064154,544.6,609.0,0.9803921568627451,27.450980392156865,499.0,677.0,8.5,109.375,,,0.03484661713310524,0.014308496943260396,0.0014961383131293089,0.050651252389494944,2.4353792904515195,0.6879714812408552,0.2824904867747747,-4.246901726341956,13.368290396262784,53.79272375250087,0.24851484482864247,2259.171906191313,4.02390449025098,4.060919388721802,865.8271306020752,0.47058823529411764,0.45263157894736844,0.6046511627906976,0.03571428571428571,50.95108695652173,50.90328285375863,50.99627818435024,53.68421052631579,0.5532867132867132,0.44671328671328653,9.944847912361455,8.935882720806042,0.4816128733545654,0.5183871266454346,37.33125398727355,38.730280201033196,0.4857827956178427,0.5142172043821575,27.31778289193989,28.10591222901815,1.5070974299988233,1.5941983484799538,1.8559795514885233,2.148902598907745,-0.09968136296084751,-0.7686770159842276,-0.3162568367364578,0.002786236250230625,0.2629813601533792,0.7060307215364112,1.5817863811035904,6.04237963112355,0.8772446927150339,1.063616773980699,0.9351090323171044,1.4519504783067323,1.7894204742463655,1.4082828629880233,2.4088989420381575,0.6541593472521074,Relax
103.86359728276464,577.7087378640776,39.09205602766151,,,,,,,19.075443612655718,19.169216023174187,0.0676674134654668,0.03301913639593202,576.0,40.0302,0.069496875,52.0,2.049339287801708,541.8,609.0,0.9708737864077669,29.126213592233007,499.0,677.0,9.363636363636363,62.5,,,0.03302492406804478,0.014720017219484583,0.0013430173214516391,0.049087958608981005,2.2435384127357114,0.6727703698397967,0.29987022554226667,-4.218546995880149,13.554682640016287,53.5547195748428,0.25309968472663924,2280.5362296944836,3.9510124284826817,4.065007086004397,846.3814505764348,0.47572815533980584,0.4639175257731959,0.6,0.03333333333333333,50.42678923177939,50.46112386642483,50.393537133290614,51.546391752577314,0.5347164219318336,0.46528357806816645,9.911988940292218,9.246085604724897,0.48702532691983547,0.5129746730801646,37.37433920295467,38.35709527431053,0.489896588964099,0.5101034110359011,27.34125779486004,27.899434195807952,1.5084088329699963,1.925194428306531,1.850142246315519,2.2940085214074717,-0.6951611086192155,-1.2321655827977231,-0.26944340344762313,0.0033651514168434858,0.34542642135045587,0.6693888230259062,1.3955110162248148,6.034855716709784,0.8916591209150666,0.88384661188393,1.1023504047178885,1.5309549460503895,1.8082085163656758,1.425422301717824,2.022316323576004,0.7790097701572681,Relax
103.19741096723838,581.4509803921569,34.77469987655626,,,,,,,18.368882426107433,18.45989498269904,0.05980676110151646,0.03159145490427865,577.5,34.8411,0.06033090909090909,47.0,1.893130952111244,550.4,609.0,0.0,27.450980392156865,513.0,677.0,7.846153846153846,46.875,,,0.04251186808071911,0.01251745943358601,0.001331684120305522,0.056361011634610644,3.3962057801165395,0.7542779458311403,0.22209430012961626,-4.380630854541458,13.053116922258017,47.64684129245625,0.27395555651082937,1953.8814763912094,3.6502271125151293,3.997868325582791,695.6871676457168,0.47058823529411764,0.45263157894736844,0.6046511627906976,0.034482758620689655,49.48453608247422,49.484349247311044,49.48663063904939,50.526315789473685,0.5021860970098887,0.49781390299011125,9.250405396521819,9.210048859805251,0.46871243793491374,0.5312875620650864,32.62025516387296,34.729532651510496,0.47104944752769007,0.5289505524723098,23.975519253565505,25.40635194387748,1.3923233964900583,2.2646731736055123,1.4883769760708496,2.5106843516869413,-1.4335590014245874,-2.4056077382128405,-0.04858502872248486,0.006538378694942005,0.5624750734754949,0.7093721850965689,1.5040773967762746,5.935960484336557,0.9602517055560209,1.263567086014087,0.9861183955890249,1.293802169845985,1.7178702568066955,1.4875149886220438,2.63540467205544,0.7195752819773181,Relax
103.92193994434393,577.2352941176471,31.899960107547678,,,,,,,17.251775629663097,17.321319776849602,0.05526335695794461,0.02988690366903828,572.5,30.3933,0.05308873362445415,43.5,1.849082714285836,550.4,603.4000000000001,0.0,24.509803921568626,513.0,675.0,6.375,46.875,,,0.03838474205273075,0.007136909149595409,0.0019065874548574557,0.04742823865718362,5.378342535704938,0.80932252893007,0.15047805593586874,-4.942475488569056,12.24802267331101,42.47638598488145,0.28834898236564727,1634.4190400757677,3.468019868826615,3.920333522905612,589.2358022060689,0.4803921568627451,0.4631578947368421,0.6136363636363636,0.03571428571428571,47.20588235294117,47.451906922732206,46.94190706465375,50.526315789473685,0.4619427811044578,0.5380572188955424,8.332466621595312,8.99277487764483,0.3972462040979978,0.6027537959020022,26.77179165738111,32.97748531635504,0.4022212257278818,0.5977787742721182,19.826230460506366,24.17006969156701,1.40327786726999,2.435980607160828,1.7900521140353562,2.3952334779639863,-1.3063521626767471,-1.7942367098331706,-0.2515656068239484,0.004663001054567376,0.5261424776847481,0.7254395922765222,1.4081134085145302,5.909930856571325,0.9624295685115909,1.1823520987481035,1.0365123605471473,1.3614090202661717,1.7478052990082895,1.4822828867617779,1.8553420802814695,0.8504071514277396,Relax
104.65902798393874,573.5339805825242,30.460136448003507,,,,,,,16.283336845485,16.343303586543268,0.05310955842069881,0.028391232946557793,571.0,31.1346,0.05452644483362522,40.5,1.87063233642123,547.8,601.0,0.0,21.35922330097087,513.0,652.0,6.866666666666666,109.375,,,0.032532994071734385,0.009719350804463208,0.0011251580700612491,0.04337750294625884,3.347239411998069,0.7499969307140637,0.22406432238629975,-4.633636452404597,11.556460793035168,41.28839729411022,0.27989608583532244,1499.0038489132603,3.5727544992835396,3.8827728579265774,590.0532288029544,0.5048543689320388,0.48958333333333337,0.6595744680851063,0.07142857142857142,46.760343481654964,46.69443334532114,46.828345573091624,52.083333333333336,0.48064337215751546,0.5193566278424846,8.021937742747376,8.33874411799202,0.41737267501586367,0.5826273249841362,26.674115751939794,31.515445419165587,0.42197997780292945,0.5780200221970706,19.695937859066238,23.051658871258613,1.483763965517551,2.044592835959349,1.4737318904034007,2.45030720305943,-1.2187419893511198,-2.1072356284755296,-0.022361961031811935,0.004101979462412996,0.4146233081146725,0.7154169338792977,1.3083328196501784,5.946066910615349,0.9605345525591922,0.8529615393838705,1.1359084417871057,1.3628357673875415,1.7860738270396594,1.4496716120666886,2.297699225905469,0.9088447318501461,Relax
104.46882262336263,574.4271844660194,32.841151236582284,,,,,,,17.514979583314435,17.597279333846103,0.05717200042875934,0.03049120942908743,570.0,34.099799999999995,0.05982421052631578,43.0,1.8750322305752647,547.0,601.0,0.0,23.300970873786408,513.0,652.0,6.4375,62.5,,,0.04199573038352894,0.012819468745393242,0.001350495623099076,0.05616569475202125,3.2759337549475576,0.7477114022882736,0.22824374917808532,-4.356790267865161,12.443155547396469,44.89967731623814,0.2771324047555316,1755.187925741247,3.608383512141555,3.9512937326115325,648.0610213135595,0.4854368932038835,0.4742268041237113,0.6521739130434783,0.034482758620689655,51.41406816533721,51.41672380006026,51.4074737051677,49.48453608247423,0.5491355341791571,0.45086446582084294,9.223034014663698,8.357127745727944,0.44120334805481004,0.55879665194519,29.823775364760586,33.56372217282537,0.44890496361175136,0.5510950363882486,22.07398846429145,24.457770035849805,1.544366528331278,1.4832028813382907,1.7744156651910432,2.1286437111593197,-0.8054921019047647,-1.390652284869236,-0.2611735721220705,0.0008095602927809369,0.1498731945433441,0.6672843702433195,1.2311014717141886,5.937768338069007,0.9420893478828765,1.0695930473503807,1.2074658943518526,1.560396578592952,1.7690136037157604,1.4557204044017955,2.359430669176149,0.7140922893108291,Relax
104.8133503703939,572.4077669902913,33.04317938377467,,,,,,,17.393372639160752,17.461486588512443,0.057726643992821854,0.030386332335451634,565.0,32.6172,0.05772955752212389,43.5,1.899756882651888,543.8,601.0,0.0,22.330097087378643,513.0,652.0,6.866666666666666,62.5,,,0.02402821475984959,0.012550246454331723,0.0013668930955876087,0.03794535430976892,1.9145611878845805,0.6332320569125268,0.3307452699446978,-4.378014975801807,12.3471355763351,44.85037356078576,0.27529615911896504,1739.7312086139564,3.632451695658657,3.947452264202365,651.6672619672017,0.46601941747572817,0.4591836734693878,0.6444444444444445,0.034482758620689655,47.118155619596536,47.20029031344774,47.038631883959106,52.04081632653062,0.5050230086201309,0.4949769913798691,8.783422729863634,8.695623116610943,0.43276710299523913,0.5672328970047608,29.50483462636931,33.77899853773983,0.4378670845497476,0.5621329154502521,21.767909651375422,24.66408931623838,1.4831837892091657,2.426575741082565,1.8146396931545223,2.252115731753238,-1.2584540604992753,-1.1242901763133224,-0.31971465749363137,0.002930672793295379,0.4106795984123235,0.665255424937111,1.2631616757162665,5.977572857196288,0.9272226393302796,1.0967972716552796,1.1241354175745144,1.649868574382589,1.7639132558287844,1.447694887963742,2.1165526630139313,0.7140922893108291,Relax
105.28800191510526,569.9029126213592,30.287354043608335,,,,,,,17.619897397934118,17.705196571454877,0.053144760928307645,0.030917366814092236,565.0,31.1346,0.05510548672566371,40.0,1.718929081117092,543.8,595.4000000000001,0.0,24.271844660194176,513.0,652.0,6.866666666666666,62.5,,,0.0495515639824035,0.01820651682167732,0.0009453067108429182,0.06870338751492373,2.721638876218523,0.721239021462223,0.2650017339788741,-4.005975681864994,12.519464557916553,41.131459750034466,0.30437685980512913,1617.7438242009282,3.28540086996176,3.9158798605233653,540.5333345822414,0.4563106796116505,0.45454545454545453,0.6444444444444445,0.034482758620689655,49.12157413914265,49.12459360528224,49.12095091681061,49.494949494949495,0.5162787760128843,0.4837212239871159,8.99642393200523,8.708138903825365,0.4630218616846125,0.5369781383153877,27.988193721873888,30.140636910250652,0.4675383094238595,0.5324616905761403,20.787912730448642,22.184337679136164,1.5617531964391276,2.0828657327420057,1.7707781959402893,2.431375605675208,-1.3510061523493526,-1.8687367566694917,-0.18284205777140053,0.00435672438929424,0.3912789993475269,0.698129283190386,1.3083328196501787,5.943497371717385,1.0203532718721908,1.0172387896960364,1.1717808446301845,1.7584846018231228,1.7564435693976093,1.482071109273616,2.7074242946894707,0.7790097701572681,Relax
105.18320762494461,570.2912621359224,26.446257405242363,,,,,,,15.471986069705999,15.539620643557564,0.04637324672693162,0.027129972168534522,564.0,19.273799999999998,0.034173404255319145,26.5,1.709299458136398,550.4,587.0,0.0,18.446601941747574,530.0,670.0,5.421052631578948,70.3125,,,0.03425076654928513,0.017949458717569984,0.007188155184371443,0.05938838045122656,1.9081782402584915,0.5767250477122203,0.3022385621765052,-4.020195319512549,10.988171134126015,35.690888153491116,0.30787048747205814,1232.0622260945727,3.2481190652961125,3.7976027526660485,463.7130170748227,0.5145631067961165,0.5151515151515151,0.803921568627451,0.058823529411764705,52.088258471237204,52.05651397669997,52.11714768008399,46.464646464646464,0.5064094688127124,0.4935905311872874,7.823865495209431,7.724206518253746,0.5662283951201523,0.4337716048798476,26.856732752360838,23.506497039186442,0.5610440506904769,0.43895594930952314,19.78000209073371,17.495981958580014,1.4595021030241238,1.425872528248575,1.6286393105283254,2.1724383671484113,-1.7640911901459404,-2.812484188455362,-0.11862014601821104,0.0019737713061378837,0.1853721714336647,0.7495410413254704,1.2685113254635072,5.641367124350746,1.0772885186849352,1.213262542369384,1.2009630381278258,1.3006942162443489,1.6568356076751634,1.6187490606215955,2.104664262794866,0.9737622126965852,Stress
104.72521154272258,573.0097087378641,26.42284185100009,,,,,,,15.577132561018072,15.653747094464533,0.04611238072946474,0.027184762009231807,565.0,19.273799999999998,0.0341129203539823,27.0,1.6962583933530562,554.0,588.0,0.0,18.446601941747574,530.0,670.0,5.15,70.3125,,,0.041557920266975454,0.009336711292111635,0.004484879328558428,0.05537951088764552,4.451023381443394,0.7504205003054029,0.16859504792402452,-4.673801198798973,11.068870721475088,35.728861490252285,0.30980194329715627,1242.4312471172982,3.2278687130145554,3.8012424753158798,461.31229662406383,0.5145631067961165,0.5151515151515151,0.7843137254901961,0.058823529411764705,49.60753532182103,49.5891714411613,49.62572069712085,48.484848484848484,0.4835555555555556,0.5164444444444444,7.697241372886474,7.954698468375295,0.5457503144753841,0.45424968552461564,26.394666246212118,24.080555166787654,0.5403035797516007,0.45969642024839935,19.441269647343052,17.932517459401453,1.4323972730655306,1.837381641989293,1.5200373822616022,2.3510880940601773,-1.6965910335181835,-2.7331069638669714,-0.04769836989401159,0.005317150897852512,0.3761414728418356,0.775317522944809,1.3475083360847342,5.683991974113496,1.0835570830199126,1.2236380085440794,1.1795501469391698,1.3237502439379096,1.6929114076904956,1.5727713230718705,2.0833322493007214,0.9737622126965852,Stress
104.65194639194671,573.3786407766991,26.522323747325174,,,,,,,15.766370266251805,15.841285336193478,0.046256211622040924,0.02749731005831447,566.0,19.273799999999998,0.03405265017667844,26.0,1.6822086060034172,554.0,588.0,0.0,18.446601941747574,530.0,670.0,5.421052631578948,62.5,,,0.04615172942932154,0.00892512339259666,0.0028063564700941085,0.0578832092920123,5.170990629396131,0.7973249927538197,0.1541919237333701,-4.71888512591098,11.201480283933426,35.87761031287848,0.31221366713804205,1262.5506212594032,3.2029347375041732,3.808218909895374,459.6545774790259,0.5048543689320388,0.5050505050505051,0.76,0.027777777777777776,51.20999219359875,51.24643395978378,51.17223937541028,47.474747474747474,0.49370932754880686,0.506290672451193,7.872121507554553,7.971794336941655,0.5610868258956642,0.43891317410433595,26.87438560517234,23.769104318574357,0.5551003643570462,0.4448996356429537,19.801551690274138,17.727377485936337,1.441998107528907,1.562612921205318,1.5609847764138658,2.086684128401922,-1.273535732498761,-1.8414610206498123,-0.16357672789332936,0.001506445446972787,0.17897509889970703,0.80738939377615,1.4839328306838067,5.6861552607787775,1.1116547529016303,1.3208362370311213,1.260984789005973,1.4298349703665352,1.7171806874679196,1.564795397970015,2.0127039643957056,0.9737622126965852,Stress
104.49938413051527,574.2352941176471,26.181459871476747,,,,,,,15.888846576909051,15.968080785128688,0.045593609692184456,0.027669575067348275,568.0,19.273799999999998,0.03393274647887323,25.5,1.6477885757626831,557.0,588.0,0.0,18.627450980392158,530.0,670.0,5.368421052631579,62.5,,,0.04680371823597265,0.014418460834129104,0.004286291549736249,0.06550847061983801,3.246096707159358,0.7144681869858678,0.22010070907933457,-4.239245891093482,11.291138205699104,35.453147160221974,0.3184805612509242,1257.5995964571453,3.139909060924195,3.806512499299249,445.27863202663946,0.49019607843137253,0.489795918367347,0.7291666666666666,0.02857142857142857,50.07936507936507,50.08207220655909,50.07638694116838,46.93877551020408,0.4646246764452114,0.5353753235547885,7.696427742790807,8.261658429153313,0.5625315081557786,0.43746849184422154,26.590605068593867,23.449208209456163,0.5535153271896033,0.4464846728103967,19.574157426488757,17.580107588556253,1.3821311904634919,1.9105996211882803,1.6016859919212099,2.337431001057632,-1.5444336253147561,-2.5675379882018268,-0.1149140819577719,0.005769557615827532,0.41561944128583295,0.8206002950442759,1.5260563034950498,5.57261348444812,1.121863594551284,1.4779971152801135,1.0643953809843698,1.1729215403875994,1.7214584552144803,1.5739650293884462,2.2172902664877783,1.1120708903285825,Stress
104.59711944209792,573.6019417475728,26.67941109891312,,,,,,,16.231173105852726,16.305030172627855,0.046512065523400946,0.02829692845251148,565.0,19.273799999999998,0.0341129203539823,25.5,1.6437142851549598,554.0,589.2,0.0,19.41747572815534,530.0,670.0,5.722222222222222,70.3125,,,0.04184898593633994,0.008921958203047368,0.0024774721264320117,0.05324841626581932,4.690560635225356,0.7859198239329274,0.16755349414541104,-4.719239826993676,11.52939740251642,35.916940247984996,0.32100165890838206,1300.9356465992885,3.115248698092905,3.821225923803877,447.56080538806367,0.4854368932038835,0.48484848484848486,0.7083333333333334,0.02857142857142857,51.76651305683562,51.73610738475427,51.79446550051742,45.45454545454545,0.4820631140220302,0.5179368859779696,8.00804051383902,8.300662027754768,0.5673348941052854,0.43266510589471424,27.05322721369237,23.625187705109546,0.5593635442871261,0.4406364557128739,19.950010219884007,17.706644010097865,1.370558108261826,1.8779890368418262,1.6996613980498383,2.309552626682739,-1.765586273101599,-2.8282163124024855,-0.17524239137277303,0.006199221411469506,0.41494292539718214,0.7812406393726774,1.6222586008631614,5.556368216562752,1.1273852301354497,1.4888730439091424,1.3034154319681093,1.610848120336647,1.7188998369677937,1.5840494547745667,2.1947633179455623,0.9737622126965852,Stress
104.03780980387354,576.7647058823529,28.07175264295573,,,,,,,16.223378803503916,16.302396106458744,0.048671065265706005,0.028128244738354572,570.5,21.4977,0.03768220858895705,32.25,1.730327139799806,554.4,601.8,0.0,18.627450980392158,530.0,670.0,6.8,85.9375,,,0.04483202864322505,0.01014425495788489,0.0020296816527118227,0.05700596525382176,4.419450105439057,0.786444514071612,0.177950762042483,-4.590847747742225,11.527534836466145,38.136431738464644,0.30227093388077525,1381.1039634183096,3.308290304864146,3.8471964815451107,504.6655495299035,0.4803921568627451,0.47959183673469385,0.6808510638297872,0.030303030303030304,50.9819324430479,51.00627313416929,50.9557793698172,45.91836734693878,0.45905277809126144,0.5409472219087387,7.811209893480011,8.47938677028003,0.5620935287921888,0.43790647120781134,28.591987695272792,25.23659377522932,0.5534652666807599,0.44653473331924015,20.958491839426696,18.825324238588074,1.4259292629527232,1.5374661133037022,1.4405358626670615,2.194662319604574,-1.45730423366137,-2.45071680420908,-0.009500436847321268,0.0018142907503786486,0.20668418180302722,0.7653038589069365,1.6763773951092102,5.756484930547763,1.0802931172413288,1.4859067349919148,1.1900790465364648,1.5862640056006185,1.6962244812045337,1.5371542035305852,2.095698389098671,0.7849912167025288,Stress
104.1480925723913,576.2156862745098,28.612684112096535,,,,,,,16.160702856982525,16.241000554457873,0.049656204774795765,0.028046273716476968,571.0,25.2042,0.04414045534150613,33.0,1.7705098822316323,552.0,601.8,0.0,18.627450980392158,530.0,670.0,6.375,62.5,,,0.04318259920350356,0.009010614214608121,0.0020842552175289212,0.054277468635640605,4.792414609594026,0.7955897776549635,0.16601021457163934,-4.709352039362615,11.48412162531164,38.95219334436295,0.294826058285973,1405.3340639286062,3.3918304433932636,3.854749683224664,528.4769408894027,0.45098039215686275,0.44897959183673475,0.6363636363636364,0.0,50.394944707740905,50.41008559517408,50.37910601286627,46.93877551020408,0.45841231329137927,0.5415876867086207,7.775602870517501,8.451627062288065,0.5592120982329499,0.4407879017670499,29.12863921953925,25.861085506114264,0.551150747909922,0.4488492520900781,21.31827411848905,19.23831780009044,1.4808956266571145,1.9898807991269707,1.7002740116447055,2.431851506906738,-1.5773645644745393,-2.4926285945383198,-0.13235109581287458,0.003750783489741114,0.3751164653613347,0.755428487660958,1.6582280766035324,5.722485606779524,1.0544955384680643,1.2523308456195934,1.3529890394789958,1.6425885953528365,1.7046962993380568,1.4994935650337102,2.0988403142982275,0.7849912167025288,Stress
103.33506711856553,580.7156862745098,29.68227041934523,,,,,,,17.14267444504249,17.22637857507727,0.051113257521537205,0.029519909398381543,574.0,25.9455,0.04520121951219512,39.75,1.7314842275342328,558.2,608.0,0.0,21.568627450980394,530.0,670.0,6.8,62.5,,,0.0408178459007277,0.006771923309576863,0.0025153355295553874,0.05010510473985995,6.0275115406287965,0.814644458137536,0.1351543589168394,-4.994970139409622,12.180889105723791,40.34694339828182,0.3019036407660689,1543.972288079101,3.312315139567507,3.8956096111154364,534.5671658136087,0.47058823529411764,0.4693877551020408,0.6739130434782609,0.0,50.91979396615158,50.92291510054828,50.91435105191486,46.93877551020408,0.4753209123681818,0.5246790876318184,8.398809439438425,8.824114686471384,0.5500690140406961,0.44993098595930403,29.923971313327815,27.063476909356858,0.5438239475123556,0.4561760524876444,21.977079641763893,20.128298269144512,1.4906845775799544,2.096542285578461,1.8102490003953173,2.4316766136585852,-1.5146594891667569,-2.307388491422434,-0.20359404742852172,0.002727613454074526,0.36787506523958574,0.7268177130643183,1.768769951003356,5.773908278326941,1.080342382667589,1.1267312755488457,1.333214295789587,1.683870903294941,1.676789694964969,1.4852328916152093,2.324314403163323,0.8504071514277396,Stress
103.24131827175452,581.3960396039604,30.000693061301362,,,,,,,17.461385970191483,17.54930716063121,0.051601130757164174,0.030033548185305764,577.0,31.1346,0.053959445407279025,42.0,1.718116369027972,556.0,608.0,0.0,22.772277227722775,530.0,670.0,8.416666666666666,109.375,,,0.040660057457862255,0.007475456380182518,0.0018426776250503145,0.04997819146309508,5.439140487215245,0.8135559984775854,0.14957436756595222,-4.8961301073641,12.409234098407962,40.56283316465251,0.3059262169394441,1581.3322623105873,3.268762023746212,3.9059932414545155,530.360994496678,0.48514851485148514,0.4791666666666667,0.6739130434782609,0.0,50.14492753623189,50.15632584727123,50.133607322564465,47.91666666666667,0.46139717940308295,0.5386028205969169,8.429146163788182,9.10710678203533,0.5453023838319346,0.4546976161680653,29.953458848181405,27.35203351441602,0.538121638766322,0.461878361233678,22.00295664246287,20.384714019494254,1.5017635036202046,2.190128185266391,1.7011006792047896,2.5968275962534,-1.6816242063586664,-2.668381402258234,-0.09101621399404028,0.007082099544704438,0.5417637252792921,0.8821595325170075,1.9390841839849136,5.758272344241089,1.086778903510114,1.1768029275689562,1.1118775546118629,1.4992853811564804,1.793231357162768,1.4833374609066947,2.1211015708745036,0.7910746316140745,Stress
103.74780535859422,578.3009708737864,30.425361889499136,,,,,,,16.775039814686394,16.854352846139264,0.052611638959429385,0.02900745573596405,573.0,29.651999999999997,0.051748691099476433,43.5,1.8137281476293134,551.2,606.6,0.0,18.446601941747574,530.0,670.0,7.923076923076923,109.375,,,0.04161229718830669,0.007732082129286811,0.0021036600212959045,0.051448039338889404,5.381771234774107,0.8088218272849145,0.150289150541878,-4.862377095694689,11.91782719001586,41.490007755421566,0.2872457209521379,1553.425652183567,3.481339936710926,3.8982605824745176,577.7632838935806,0.47572815533980584,0.4747474747474748,0.6808510638297872,0.03125,48.71606749816582,48.70276170093773,48.73219784068316,47.474747474747474,0.43793331707487015,0.5620666829251297,7.888455030757114,8.93679677701487,0.5596656957160923,0.44033430428390796,31.03900994001247,27.531810792041078,0.5503835328833195,0.4496164671166805,22.645616141192427,20.467864350273736,1.5171047147416497,1.6168927244784816,1.659278597729199,2.2313288575789643,-1.0565483942452474,-1.8230768034382416,-0.14620394959456798,0.0025103732000969253,0.2357113642783839,0.9268095772027358,1.9810014688665831,5.750542973844304,1.0493973796987783,1.068478770109766,1.2498278852526283,1.5210256057168816,1.8362790674520568,1.4857414025912752,2.6408273302146847,0.7140922893108291,Stress
103.3223854163687,581.0392156862745,32.44459758187869,,,,,,,16.854355725766947,16.896979635191585,0.055838911911578755,0.02900726021712666,574.5,33.3585,0.05806527415143603,48.5,1.9249977934355196,553.2,609.8,0.0,19.607843137254903,531.0,670.0,8.5,109.375,,,0.04115372972999107,0.009852907930571983,0.0024483749256122905,0.05345501258617534,4.176810543646479,0.7698759711944084,0.18432149678550755,-4.61998864598953,11.947968881614965,43.70685312283406,0.27336602907640833,1640.5651966568723,3.6580990087853626,3.9219636040472805,639.5359843430668,0.49019607843137253,0.4845360824742268,0.7021276595744681,0.03225806451612903,54.358974358974365,54.333841234721866,54.38635618753701,44.329896907216494,0.5104736677006727,0.4895263322993273,8.557452892070163,8.380035799446205,0.5801174216888985,0.41988257831110115,33.289516895028704,28.32131838026946,0.5752527722095984,0.4247472277904016,24.30454623218053,20.884468808142916,1.514156791454039,1.4615174035093794,1.6920071667669605,2.086155190470187,-0.8980788857840292,-1.5233879116571156,-0.23031588761324184,0.0007624226348507197,0.142870780859207,0.907570719443271,2.3025850929940455,5.778714405735501,1.012780352185605,1.2049402508377078,1.3261337641161086,1.7858943752133805,1.8485062629654607,1.4623499678493306,1.9801564891964611,0.7195752819773181,Stress
103.03367230128313,582.5445544554456,32.215376686444394,,,,,,,16.675730868540665,16.736387503480753,0.055301137810066514,0.02862567462179593,577.0,34.099799999999995,0.05909844020797226,50.0,1.9318719485464833,554.0,610.0,0.0,18.81188118811881,536.0,670.0,7.769230769230769,54.6875,,,0.033278749559731896,0.010906971767814692,0.001493140420223557,0.04567886174777014,3.051144741928638,0.7285371895536874,0.23877503401991243,-4.51835308248532,11.834413096277032,43.78430833718464,0.27028891275704897,1627.852650790197,3.699744801958846,3.9185852010279434,647.963068711449,0.48514851485148514,0.4791666666666667,0.6739130434782609,0.06666666666666667,46.74074074074074,46.71533263846737,46.76859021750725,47.91666666666667,0.4138017836593786,0.5861982163406214,7.623395674905089,9.073493419200943,0.5448866243917603,0.45511337560823956,32.320016001596194,29.53781004445357,0.5359388493005423,0.4640611506994578,23.480838953917253,21.84960531737936,1.4760983787744038,1.7107642721428116,1.6817547816363465,2.2468959648956415,-0.8874894240747455,-1.6897731926399704,-0.1696557249518489,0.0030799790414427733,0.28432533090841866,0.8669980400079456,2.0541237336955462,5.795255883780789,1.0166644650486816,1.1244753343699967,1.3092362621515656,1.4409387902270283,1.7952072287103251,1.4831775298368535,2.427453309583426,0.5933059737105559,Stress
104.08918354195391,576.5098039215686,28.202501503417768,,,,,,,16.380681691348116,16.453932088960343,0.04891937884070152,0.02841353534653268,571.0,27.428099999999997,0.04803520140105078,39.75,1.7216927863456168,551.4,603.6,0.0,18.627450980392158,536.0,649.0,7.285714285714286,85.9375,,,0.03610387452161181,0.0070903500460724736,0.0016084069501817125,0.044802631517865996,5.091973497360779,0.8058427216984928,0.15825744617802298,-4.949020567855371,11.634686957286792,38.165649892058276,0.30484708082248074,1395.009731991531,3.2803331995241325,3.8515473473459427,500.7841936893335,0.49019607843137253,0.4845360824742268,0.7021276595744681,0.06666666666666667,48.04138950480414,48.04683814006455,48.038679845604,47.42268041237113,0.44308328105973954,0.5569167189402605,7.748548251124206,8.687059341342154,0.538300897446423,0.46169910255357716,28.001752583197618,25.932965197843334,0.5301969553662886,0.46980304463371125,20.54431974695943,19.338868683981406,1.472017282835735,1.0678128359797685,1.5098702557979786,2.005923700825619,-0.8717642117995599,-1.864284897736361,-0.035449070929655734,0.0006508464263244091,0.09057477966758735,0.7636168598177813,1.9459101490553135,5.688076047913574,1.0895164023968267,1.1843736287715745,1.4751407691147178,1.6141560867636853,1.9539731348564664,1.5087606500554527,2.7443071211257783,0.7849912167025288,Stress
104.20145596102047,575.9509803921569,28.21114780393476,,,,,,,16.655210584197377,16.736123260246927,0.04898185568627071,0.02891775715505698,569.5,27.428099999999997,0.04816172080772607,39.0,1.6938331497712655,551.4,601.8,0.0,19.607843137254903,536.0,649.0,6.8,85.9375,,,0.03640078707344593,0.0068832139902139464,0.00248534591208387,0.04576934697574374,5.288341627210475,0.7953092949466192,0.1503891675330615,-4.978669586376956,11.834226248094511,38.24661765929424,0.30941889694705327,1421.944923014784,3.2318646658840513,3.8598528849110947,494.4315688106001,0.5,0.49484536082474223,0.7291666666666666,0.06451612903225806,49.03225806451613,49.016423982657216,49.049582901063424,47.42268041237113,0.45286790163115254,0.5471320983688476,7.964923100695951,8.754713016427209,0.5382869489749672,0.4617130510250326,28.060794254593148,25.988374096461467,0.5308217227359243,0.4691782772640757,20.625811186455284,19.39124271646391,1.4398831142399238,1.0511225525920658,1.485948069578634,1.767584399642459,-0.8797419635676604,-1.3292820512929993,-0.232061376316862,0.00024619799170204744,0.05046286281456623,0.7477255570030628,1.8015156441734197,5.752684777970269,1.1083619090765118,1.2337852550090866,1.3878809668044336,1.6077442688471846,2.0059927982397396,1.5229306787556323,2.9225097251897885,0.7195752819773181,Stress
104.02148583475523,577.0097087378641,28.60875196736168,,,,,,,16.701238653136468,16.775589521834586,0.04958105822853434,0.028944467311769015,572.0,28.1694,0.049247202797202794,41.5,1.712971867627854,551.8,603.2,0.0,21.35922330097087,536.0,649.0,7.357142857142857,85.9375,,,0.03543335602175706,0.006624066931666412,0.0024109125729584163,0.044468335526381894,5.3491844794574135,0.7968221792501179,0.14896143184258667,-5.01704575753199,11.862133109291229,38.58939214573665,0.30739362425022687,1438.071910763907,3.253157909306448,3.8647507134405754,502.14954509692535,0.5048543689320388,0.5,0.7346938775510204,0.06666666666666667,51.84155663655316,51.78599274448013,51.89609873443168,44.89795918367347,0.4927770552880391,0.507222944711961,8.331022781991381,8.452253785790269,0.5476552302107025,0.45234476978929733,28.557590219278747,25.953905814832492,0.5429132308280178,0.45708676917198227,21.034993460021617,19.300852586150203,1.5022405973915913,0.9392771660784023,1.5022405973915913,1.9334876479219854,-0.9851416420930352,-1.8648060953448349,-0.04087348643755121,0.00043004713534426224,0.05971880696011427,0.7388766802111797,1.7147984280919266,5.763601012368056,1.1064925410519204,1.4354172285367603,1.384993404129722,1.603447076193975,1.9790416787554688,1.5118313679332696,2.725262053194493,0.7790097701572681,Stress
104.0388568195506,576.9803921568628,29.275401221441417,,,,,,,17.31278929772227,17.3990667782061,0.0507389880477643,0.030005853809006854,572.5,31.875899999999998,0.05567842794759825,44.75,1.6909696478136536,550.2,605.6,0.0,22.54901960784314,536.0,649.0,7.285714285714286,85.9375,,,0.037920816724027834,0.006446746182779307,0.003707116308653195,0.04807467921546034,5.882163753448642,0.788789802508612,0.13409857929340271,-5.044179743247294,12.30299810518711,39.477091991168855,0.3116490471977857,1525.8294166999713,3.208737549469733,3.8904760934319587,506.6865096637375,0.5098039215686274,0.5051546391752577,0.7346938775510204,0.06896551724137931,50.17111567419577,50.1848751442031,50.15765018785814,43.29896907216495,0.4507977405608957,0.5492022594391041,8.260447929743277,9.11756546453054,0.57566679905433,0.42433320094566995,29.952339178967843,25.71571834087618,0.5646124412281852,0.43538755877181484,21.970180043549167,19.292850616060804,1.4640201464623226,1.2301848404220783,1.6560180901697663,2.079112566673362,-1.151499685877381,-2.172596674484505,-0.15607243513224317,0.001471926916859909,0.14075894607238001,0.7412866496461157,2.0149030205422647,5.718658552607336,1.111310975601728,1.1992395585723197,1.0698669411784318,1.3422884549739882,1.9219578366643677,1.5152596107692529,2.3063229858444925,0.6541593472521074,Stress
104.2944890672534,575.1666666666666,29.549784584272313,,,,,,,17.269557717624856,17.351993636706904,0.05137603810652967,0.030025310433424848,569.5,29.651999999999997,0.0520667251975417,41.0,1.7110909883994643,549.0,601.8,0.0,23.52941176470588,528.0,649.0,6.8,93.75,,,0.037863216411908054,0.005932540452590316,0.003597984369070943,0.04739374123356931,6.382293844347222,0.7989075229429087,0.125175609651771,-5.127302750867605,12.26971236762127,39.57467311899426,0.31003951266327195,1525.4626930824481,3.2253953420642905,3.8903717009067527,510.57586536688393,0.5098039215686274,0.5,0.7083333333333334,0.06896551724137931,48.753462603878106,48.840162077189696,48.66321749309535,43.75,0.43556204767279727,0.5644379523272027,8.099382692526634,9.220086767487603,0.5548954166495094,0.44510458335049097,29.479689515196075,26.402701728476313,0.5444264233435425,0.4555735766564572,21.61772529560362,19.775144229093325,1.4263302265362023,1.0688617656196322,1.5450514329763467,1.8978241904770676,-0.6110851990316934,-1.4858584519703308,-0.16995474171890299,0.00040520606463520433,0.07877546874026481,0.7044942683208273,1.945910149055313,5.695476905777921,1.0918775781222498,1.4435350887694791,1.2927807282942032,1.6953670868875546,1.8864304141359933,1.512128605699662,2.261838811767351,0.6541593472521074,Stress
