PPG_Rate_Mean,HRV_MeanNN,HRV_SDNN,HRV_SDANN1,HRV_SDNNI1,HRV_SDANN2,HRV_SDNNI2,HRV_SDANN5,HRV_SDNNI5,HRV_RMSSD,HRV_SDSD,HRV_CVNN,HRV_CVSD,HRV_MedianNN,HRV_MadNN,HRV_MCVNN,HRV_IQRNN,HRV_SDRMSSD,HRV_Prc20NN,HRV_Prc80NN,HRV_pNN50,HRV_pNN20,HRV_MinNN,HRV_MaxNN,HRV_HTI,HRV_TINN,HRV_ULF,HRV_VLF,HRV_LF,HRV_HF,HRV_VHF,HRV_TP,HRV_LFHF,HRV_LFn,HRV_HFn,HRV_LnHF,HRV_SD1,HRV_SD2,HRV_SD1SD2,HRV_S,HRV_CSI,HRV_CVI,HRV_CSI_Modified,HRV_PIP,HRV_IALS,HRV_PSS,HRV_PAS,HRV_GI,HRV_SI,HRV_AI,HRV_PI,HRV_C1d,HRV_C1a,HRV_SD1d,HRV_SD1a,HRV_C2d,HRV_C2a,HRV_SD2d,HRV_SD2a,HRV_Cd,HRV_Ca,HRV_SDNNd,HRV_SDNNa,HRV_DFA_alpha1,HRV_MFDFA_alpha1_Width,HRV_MFDFA_alpha1_Peak,HRV_MFDFA_alpha1_Mean,HRV_MFDFA_alpha1_Max,HRV_MFDFA_alpha1_Delta,HRV_MFDFA_alpha1_Asymmetry,HRV_MFDFA_alpha1_Fluctuation,HRV_MFDFA_alpha1_Increment,HRV_ApEn,HRV_SampEn,HRV_ShanEn,HRV_FuzzyEn,HRV_MSEn,HRV_CMSEn,HRV_RCMSEn,HRV_CD,HRV_HFD,HRV_KFD,HRV_LZC,Labels
75.17350222520658,798.0958904109589,52.38483781474093,,,,,,,33.57743951590776,33.794555589331814,0.06563727296950084,0.042071936366716446,803.0,63.751799999999996,0.0793920298879203,83.0,1.5601200856879784,757.4,850.6,12.32876712328767,53.42465753424658,676.0,895.0,10.428571428571429,85.9375,,,0.056132376206077306,0.05555628595171361,0.0004880414676706003,0.11217670362546152,1.0103694882495278,0.5003924557588493,0.49525689520353866,-2.8903586108517425,23.896359424402267,70.3234979661648,0.3398061830755302,5279.369747285815,2.942854043882203,4.429552189386999,827.8071614786797,0.3698630136986301,0.38028169014084506,0.7037037037037037,0.0,52.07684319833853,52.11836460258839,52.03048221849681,40.845070422535215,0.4778382773233467,0.5221617226766532,16.5276124056376,17.277152543170995,0.5960028608208517,0.4039971391791481,54.290599463819184,44.69815629370341,0.583758976643495,0.41624102335650526,40.12873759521865,33.88528571560477,1.1511182989765656,1.6264700738342963,1.4447094385807016,1.577205772872234,-0.4174580404266557,-0.4886760738804057,-0.418537490223118,0.000521914494645206,0.15604715121562338,0.5182936791732691,1.882731247433782,5.905511031453121,1.1369191843575592,0.0,1.1224602518922333,1.3089988478707075,1.8693592581650094,1.7428527070576967,2.4999834088925534,0.9327132896942493,Relax
74.25191004085133,808.4657534246576,44.24021617882837,,,,,,,34.444399641547925,34.657907885931806,0.054721199990756565,0.04260464898561453,810.0,57.8214,0.07138444444444444,79.0,1.2843950435839335,764.2,851.0,13.698630136986301,53.42465753424658,709.0,895.0,10.428571428571429,70.3125,,,0.05130595614898899,0.046261918447037156,0.0007266804585918526,0.098294555054618,1.1090321774642027,0.5219613245156917,0.4706457892945487,-3.0734361520694984,24.5068416878811,57.40192356899697,0.42693415419126046,4419.403589221274,2.3422815677379942,4.3523337740197166,537.8058701134669,0.410958904109589,0.4225352112676056,0.7333333333333333,0.0,52.53549695740365,52.57549304175816,52.493365678555435,40.845070422535215,0.48711104867598504,0.5128889513240149,17.118065574535123,17.565170402464236,0.6335518637633769,0.36644813623662326,45.68961857516708,34.748231377679026,0.6109437713116554,0.3890562286883446,34.50050300037912,27.5315709245252,1.2394333517591092,2.23072558458429,1.5462880857092347,1.964244952258018,-1.340433193263884,-1.3659951801949317,-0.31263635947104973,0.0017290941804635586,0.31921360895396456,0.49276011499149064,2.5123056239761143,5.878113771179148,1.291987709010205,1.0760162733010423,1.287275764482395,1.3955153079069966,1.8905507162203312,1.823958181913607,2.555569056665317,1.017505406939181,Relax
73.95569904931756,811.2916666666666,46.02584622933902,,,,,,,35.335614241198876,35.57035140951489,0.05673156537949445,0.04355476050479036,811.5,58.5627,0.07216598890942699,77.0,1.3025342057214353,766.2,855.2,15.277777777777779,56.94444444444444,709.0,907.0,10.285714285714286,62.5,,,0.0376774499197625,0.047611427873058755,0.00011530316846174629,0.085404180961283,0.7913530764130376,0.44116633981705344,0.5574835720822948,-3.0446824651929014,25.15203669085645,59.84645006609061,0.42027616781079147,4728.914096657019,2.379387832550621,4.381731534849139,569.5916604344171,0.4305555555555556,0.44285714285714284,0.7419354838709677,0.0,48.07788317523715,48.160841475734344,47.99528255840839,45.714285714285715,0.4452854451726432,0.5547145548273568,16.791792212693846,18.741855373925574,0.5753537115751688,0.4246462884248313,45.39477353389498,38.9988733339755,0.5558126557936535,0.4441873442063464,34.224623810261946,30.595500193464794,1.3273467927949254,1.5545681322659823,1.5591777104613425,1.8422683759153526,-0.39870789598377776,-0.7641641963286139,-0.31789755007947496,0.0012265695138073526,0.17616602002638138,0.5353159547254323,2.302585092994046,5.853884897245597,1.2660540279842711,1.2155029466287972,1.3100846076987125,1.5240334282452732,1.8281902196938047,1.8238328417958414,2.3140804516434055,1.1140142363715286,Relax
73.95434914477306,811.8493150684932,47.6916226142486,,,,,,,36.583428245890545,36.79731047105173,0.0587444267415869,0.045061845304142575,813.0,50.4084,0.062002952029520296,68.0,1.3036400605677476,767.0,854.4,16.43835616438356,56.16438356164384,709.0,929.0,12.166666666666666,117.1875,,,0.04926806444062232,0.03990604482443789,0.0005231797743234642,0.08969728903938366,1.234601541129209,0.5492703845150776,0.4448968887667967,-3.221227467201843,26.019627763507426,61.14459167865377,0.4255425876462457,4998.146725206052,2.3499410612018505,4.405779111054349,574.7447466243578,0.4246575342465753,0.43661971830985913,0.7419354838709677,0.0,53.03682448589191,52.851771878509,53.229464368452696,47.88732394366197,0.5718392295638276,0.42816077043617246,19.698966870743444,17.045506615370748,0.5358602747336881,0.464139725266312,44.75935611303804,41.656465667355164,0.5413875178266325,0.45861248217336753,34.579251404768755,31.826171837578798,1.3175056056806542,1.2345365567513058,1.5135439657438297,1.7766720395620275,-0.11562573108828467,-0.7627942418994307,-0.28686084881064866,0.000992988694054667,0.1250191071921939,0.4956463584991009,2.028148247292285,5.90551103145312,1.2407193795843932,1.2142739365533444,1.2720362016000064,1.4771325090756307,1.8420804304700211,1.791301166282503,2.8985395367677627,1.1022975241841126,Relax
73.98092152452264,811.4722222222222,50.82473951831776,,,,,,,37.69671409448212,37.924254700223244,0.06263275331733953,0.04645471904293829,814.0,55.5975,0.06830159705159705,74.0,1.348253839603417,767.0,856.8,19.444444444444446,59.72222222222222,692.0,931.0,12.0,132.8125,,,0.0514498528076634,0.031535220241672525,0.0006141296451775923,0.08359920269451351,1.6315044706640256,0.6154347308271634,0.37721915072453355,-3.4566502548518265,26.81649766997365,65.68036588491769,0.4082878849511947,5533.341737613941,2.449252198897688,4.449957602908073,643.4711222721575,0.4027777777777778,0.4142857142857143,0.7241379310344828,0.0,47.10280373831775,46.86330103368459,47.32882703476608,52.85714285714286,0.5169385691914287,0.4830614308085714,19.301369307457364,18.658203863946053,0.45004770094911867,0.5499522990508813,44.0620640219337,48.70775068614517,0.45962274384541385,0.5403772561545862,34.01476402252294,36.88206575242395,1.1603362331682114,2.0873663461623777,1.4748010680417392,1.72960298536471,-1.0669165647955587,-0.8678565284582507,-0.37793138574288887,0.000820162192918369,0.24365109477717478,0.4802170391560212,2.224623551524334,5.94770277922009,1.2001925687694253,1.0040957551880973,0.9174523576181041,0.9585153659896086,1.9095289164529443,1.8088823339625062,3.013771824477855,1.0283208335737186,Relax
74.31056528336663,807.972602739726,58.952422578329056,,,,,,,39.89360851063739,40.1555562916947,0.07296339303885968,0.049374952040902816,814.0,65.2344,0.08014054054054054,89.0,1.477741041214904,759.4,860.2,21.91780821917808,61.64383561643836,665.0,931.0,12.166666666666666,101.5625,,,0.05308688873088682,0.019879430353516823,0.00036382385469307867,0.07333014293909673,2.6704431559073996,0.7239436144966654,0.27109493527139844,-3.918069732413907,28.394266156175455,78.56935773544848,0.3613910941181678,7008.639543077102,2.767085344037337,4.552603834593919,869.6324731207442,0.3835616438356164,0.3943661971830986,0.6785714285714286,0.0,51.88101487314086,51.81601619861683,51.940241244933205,50.70422535211267,0.5826788145355536,0.41732118546444646,21.684030600849823,18.351037120018084,0.4350378643999842,0.5649621356000158,51.82230573315518,59.055843093298286,0.4521063847688858,0.5478936152311144,39.722465649800746,43.72844135594447,1.2059539720682098,2.3938381822175048,1.5318700332520052,1.9441602227910635,-1.6298863638097636,-1.4396614205092142,-0.3277702341780103,0.0013612339604857796,0.3323647914408858,0.40843598878299314,1.9169226121820613,5.943249216414263,1.1113751706001813,1.0086815281540693,0.7626637681840283,0.7802238541269993,2.0059480178974853,1.7808073502583739,2.855042458741399,0.9327132896942493,Relax
74.59359347185924,804.5753424657535,58.19147460663785,,,,,,,40.253364248635584,40.53550000386551,0.07232569970178368,0.05003057156247485,808.0,63.751799999999996,0.07890074257425742,88.0,1.4456300906230537,759.4,858.6,24.65753424657534,63.013698630136986,665.0,931.0,10.428571428571429,101.5625,,,0.0496124001222982,0.014397111376885124,0.00017439283625317613,0.0641839043354365,3.4459968269712764,0.7729726110617231,0.22431030841693986,-4.24072769135024,28.66292693152062,77.37157060188316,0.370458124457706,6967.096439657167,2.699360424241868,4.550021932111268,835.415022576636,0.3835616438356164,0.38571428571428573,0.6296296296296297,0.0,49.739130434782595,49.74332951357333,49.73531372712603,51.42857142857142,0.5548926832613317,0.44510731673866827,21.351518071173814,19.123026456214255,0.43414605149433194,0.5658539485056678,50.97994242490881,58.201421011476796,0.4487176766060708,0.5512823233939294,39.08223287883306,43.31913866064423,1.370605031929468,2.0272371460525758,1.641891679465257,1.9421419324314906,-1.0269424909951201,-0.8521891189939463,-0.35189189456651426,0.0010817294651547062,0.23831666066077017,0.4457766127886922,1.897119984885881,5.888454695866318,1.1334642225235907,1.1154850884137704,0.7053290564081187,0.7194873094744019,1.851635666726926,1.751403639161164,2.3915034163650613,0.8479211724493175,Relax
73.96759698571279,810.5972222222222,63.62957495596432,,,,,,,38.606902980509574,38.87951258688776,0.07849715396448831,0.047627726720639606,814.0,69.6822,0.0856046683046683,91.75,1.6481398414187036,761.0,862.0,22.22222222222222,59.72222222222222,665.0,938.0,10.285714285714286,101.5625,,,0.04436073788889104,0.011296520463504918,0.0002861878727302495,0.05594344622512621,3.92693821360347,0.7929568319830651,0.20192750403766233,-4.4832605242656784,27.491966999416064,84.66290952652749,0.3247226814335029,7312.213713129616,3.079550820366027,4.571018985942017,1042.8949299479698,0.3611111111111111,0.3623188405797102,0.64,0.0,50.668510834485936,50.58264097625451,50.75995989814503,50.72463768115942,0.5695157098984172,0.43048429010158273,20.748321790999317,18.038846969803807,0.46272486384623707,0.537275136153763,57.59099839666287,62.05711202732976,0.4729123301139187,0.5270876698860812,43.285193504634364,45.69729288028206,1.5007700658106353,1.8135910751126598,1.6947203015750474,2.066247415004635,-1.0949566206732495,-1.1513314968056836,-0.2951428419956752,0.001113638866006245,0.1952513963672799,0.4444386811690655,1.9218125974762528,5.8921472236645345,1.0470455997908275,1.277978800903432,0.7486928014414133,0.7551062215360906,1.8426825204123483,1.6931613621191446,2.111557103005316,0.9426274307759088,Relax
73.9905395940635,810.7916666666666,64.23503004208095,,,,,,,40.075105545800405,40.34777388088291,0.07922507431059884,0.04942713053595815,814.0,69.6822,0.0856046683046683,91.0,1.6028661476304544,761.0,867.8000000000001,23.61111111111111,62.5,665.0,938.0,10.285714285714286,101.5625,,,0.05216095849942324,0.015982053214158506,0.00031262089309988577,0.06845563260668164,3.2637207372838573,0.761967372343471,0.2334658611072213,-4.136288860404668,28.530184516953767,86.46542440597997,0.32996061388649833,7749.914846235608,3.030664745774735,4.596267040595436,1048.1908539026156,0.3333333333333333,0.34285714285714286,0.5833333333333334,0.0,51.549541684853786,51.4689249543414,51.62567395614314,52.85714285714286,0.5884308102466961,0.4115691897533041,21.892105556896205,18.308858121529198,0.4374405697457999,0.5625594302542002,57.18761790057905,64.85249398877122,0.45227376846048195,0.5477262315395182,43.29946839660341,47.650080074842954,1.5094559462330897,1.3789700093135746,1.6417512935431455,1.930917041791269,-0.6688187374734618,-0.8960054465728184,-0.29030309122381504,0.000612547928629919,0.10813591061532256,0.5212225257371141,2.128231705849268,5.853884897245596,1.086829657210736,1.0813640707963716,0.8786315167422896,1.0813640707963716,1.7975906403139739,1.7545473360328383,2.7862792571033728,0.9426274307759088,Relax
73.34445794092167,818.4722222222222,67.40584925139683,,,,,,,40.22437072223753,40.47607535392158,0.0823556956745388,0.049145676090295305,823.0,77.09519999999999,0.09367582017010935,103.75,1.6757465198612136,761.0,879.2,23.61111111111111,62.5,665.0,938.0,14.4,117.1875,,,0.04665715059818901,0.011675231283566045,0.00012606403152993305,0.05845844591328499,3.9962506493437275,0.7981250590786904,0.1997184684123255,-4.450285665467844,28.620907358575636,91.08053459821244,0.31423736679667397,8189.527426112749,3.182307725506897,4.620228951630273,1159.3851555807585,0.3333333333333333,0.34285714285714286,0.5833333333333334,0.0,52.55411255411255,52.52220476925387,52.57582561258689,51.42857142857142,0.5893730740437682,0.4106269259562318,21.991232019018074,18.356003299816035,0.45626878168536117,0.5437312183146388,61.52277958124258,67.16108527483766,0.46824958806681766,0.5317504119331822,46.198845727552786,49.23187093965084,1.432648961852784,1.7635305726016295,1.6245604984656574,2.0763975692339,-1.315740257390532,-1.6678161602846986,-0.24378835400529808,0.0010303721942637924,0.19336102669248154,0.5608019451102386,2.0368819272610397,5.8921472236645345,1.077828098591364,1.2610518357954106,0.6825072769552463,0.9571603491222737,1.9233108845461424,1.7552174553811841,2.5599043390896803,0.9426274307759088,Relax
73.24367905493874,819.3888888888889,66.81518667622676,,,,,,,40.16567801171599,40.45099874908891,0.08154270527982112,0.049019065984872726,823.0,74.87129999999999,0.09097363304981773,98.5,1.6634895757700725,765.0,879.2,23.61111111111111,62.5,665.0,938.0,14.4,179.6875,,,0.042576751288041545,0.01168387761639695,0.00016227219558955704,0.05442290110002805,3.6440600189349874,0.7823315263878794,0.214686784060303,-4.449545368972562,28.603175521249316,90.69099369853748,0.31539157698864845,8149.449714100273,3.1706617201003815,4.618098394260268,1150.2018483112709,0.3611111111111111,0.3714285714285714,0.6538461538461539,0.0,49.67602591792657,49.659000435337106,49.694393592042424,50.0,0.5460307482779393,0.45396925172206065,21.136292417140172,19.272296919968532,0.45574817058445,0.5442518294155498,61.22469460418939,66.90585257398573,0.46391645679814086,0.536083543201859,45.79959654035783,49.233192752569586,1.3528919052860127,1.7404847579079412,1.5897209863053297,1.8391982796566841,-0.7321564915411845,-0.71759525793078,-0.3566621786155567,0.000743244290901815,0.1739973332257541,0.5804311851986923,2.2192034840549946,5.919925001442312,1.074366770422784,1.0027407383207625,0.728087666153735,1.0027407383207625,1.8983284654893589,1.7278787034618344,2.8971374224317405,1.0283208335737186,Relax
72.73666007721673,825.2676056338029,62.99726927108572,,,,,,,40.117327926969416,40.40648534543699,0.07633556538633796,0.04861129608517644,824.0,66.717,0.08096723300970873,81.5,1.5703256554316758,778.0,880.0,22.535211267605636,63.38028169014085,665.0,938.0,11.833333333333334,156.25,,,0.04677689316450211,0.01547851427793925,0.00023201469248699166,0.062487422134928354,3.0220531715483103,0.7485809394328561,0.24770607826510552,-4.168302392303941,28.571699791673353,84.78932850154712,0.3369728277910824,7610.744575130769,2.9675983270080857,4.5883972567523905,1006.4826776373209,0.36619718309859156,0.37681159420289856,0.6538461538461539,0.0,50.30514385353095,50.31096871485803,50.29824611467845,50.72463768115942,0.5458999804718706,0.45410001952812934,21.110475454452548,19.253834551266305,0.43071119962155113,0.5692888003784491,55.64604186954199,63.974590674708104,0.4424574607124322,0.5575425392875678,42.08404774769095,47.24118117132544,1.5551403142127063,1.1414110285199408,1.738662805949367,1.7619031098508393,0.2123286873576813,0.15887451911035555,-0.4796389702563082,0.00023836580432797885,0.0717183861114869,0.6160737677557027,2.614959778036198,5.868056978659612,1.1187783214522138,0.0,0.8270267396490358,1.1402174817728778,1.9623509171355937,1.7455583411641011,2.6900325563309706,1.126010035965646,Relax
73.51993706098679,816.5,68.15082693018189,,,,,,,39.210339251597304,39.487562670210515,0.08346702624639546,0.04802246081028451,819.5,76.3539,0.09317132397803539,100.0,1.7380830727549914,764.2,879.2,19.444444444444446,62.5,665.0,938.0,14.4,101.5625,,,0.05000683106618228,0.012077117138916151,0.00021397266909971822,0.06229792087419816,4.140626483206414,0.802704654737419,0.19386067736199705,-4.416442762397016,27.921923336634624,92.29398832908966,0.3025324167059975,8095.9649021681,3.305430905183972,4.615238726697169,1220.285605542647,0.3472222222222222,0.35714285714285715,0.6,0.0,49.40186087727072,49.34183601582166,49.46085485197564,51.42857142857142,0.538563013585687,0.46143698641431297,20.491984495685834,18.9680181960508,0.4634368462548965,0.5365631537451035,62.83023639599906,67.60578138083322,0.46973681598013234,0.5302631840198676,46.73093212289133,49.650414854252375,1.552093359592765,1.7201129285754924,1.7562804999525854,2.088146795737835,-0.6855524497087728,-0.8179966402513141,-0.30706714642271554,0.0014837107870808589,0.199916145814327,0.6087351245289394,2.70805020110221,5.947702779220088,1.0572438509670314,0.0,0.0,0.0,1.9761722101442218,1.7042370170555625,2.5247120735641855,0.9426274307759088,Relax
73.54864279358553,815.8611111111111,67.5874614497905,,,,,,,39.985208532761845,40.21504568437513,0.08284187164864859,0.0490098228585825,819.5,74.13,0.09045759609517998,94.25,1.6903115909577604,762.4,879.2,22.22222222222222,63.888888888888886,665.0,938.0,12.0,101.5625,,,0.04355887222228448,0.01257172808766346,0.0001743332696021332,0.056304933579550076,3.4648277403508643,0.7736244313429941,0.22327933430383276,-4.37630478868801,28.436331509148456,91.054102032703,0.3123014875149201,8134.351910058968,3.2020340599633723,4.61729306697685,1166.2333440323807,0.3472222222222222,0.35714285714285715,0.6,0.0,46.7965367965368,46.85262974969454,46.74928153479549,54.285714285714285,0.5173808097536912,0.48261919024630895,20.48187351921554,19.781845934377017,0.45017536470879305,0.549824635291207,61.092848976369865,67.51676311059613,0.4561624029877126,0.5438375970122872,45.56228340912404,49.74854133290635,1.5261658523694508,1.8927110052083416,1.800012323760449,2.1511358381854593,-0.718404490705236,-0.9093100256308837,-0.314486462297312,0.0018762280583247417,0.2605186260371796,0.6434377845349482,3.0910424533583156,5.919925001442312,1.0648676522545955,0.0,0.0,0.0,1.9747497702564119,1.7343852152555712,2.124313982791566,0.9426274307759088,Relax
74.23335547666633,808.6164383561644,68.17311097024053,,,,,,,38.858361033659435,39.11584456169454,0.08430834167659215,0.04805536864011145,808.0,68.19959999999999,0.08440544554455444,96.0,1.7544000610624935,750.2,874.4,19.17808219178082,64.38356164383562,665.0,938.0,12.166666666666666,109.375,,,0.025546222755373743,0.01194703994732119,0.00024089018130309028,0.03773415288399802,2.138288887290597,0.6770053334417683,0.316610789807543,-4.427271734441149,27.65907894141314,92.56421870944254,0.29880961917082133,8043.234418916008,3.346612477787495,4.612400836299306,1239.1062773186843,0.3835616438356164,0.3943661971830986,0.6071428571428571,0.0,51.724137931034484,51.813793219345605,51.63153272276686,47.88732394366197,0.5599808679335527,0.44001913206644716,20.70585410858961,18.354490566171048,0.4964521745480732,0.5035478254519268,65.22015828474761,65.68459133314282,0.5016632416870086,0.49833675831299123,48.38595581908933,48.22526756040676,1.389270876697419,1.788434605262644,1.6733827612708279,1.869477346146418,-0.3849721524397012,-0.3308143034602722,-0.39035406477901813,0.0012958066303426186,0.21289918949871026,0.5967081675650086,2.219203484054994,5.970646476688235,1.0299981985973914,0.0,0.0,0.0,1.9137382226722708,1.730667966146312,2.2511506054919113,0.8479211724493175,Relax
74.01726624167284,810.7397260273973,64.79476732071903,,,,,,,35.761167641886516,36.01029021772729,0.07992055309564222,0.044109307209004384,814.0,65.2344,0.08014054054054054,84.0,1.8118750475257386,762.8,868.0,15.068493150684931,61.64383561643836,665.0,938.0,10.428571428571429,132.8125,,,0.024357358529116083,0.009670452670081837,0.00026929375832969384,0.034297104957527615,2.518740265848378,0.7101870131394302,0.2819611941607725,-4.638680158815071,25.463120405450557,88.51913977449327,0.2876566635229293,7081.066633800357,3.4763665397248458,4.557068791137878,1230.8999025491005,0.3972602739726027,0.4084507042253521,0.6206896551724138,0.0,49.37799043062202,49.398718207586356,49.35966889207915,47.88732394366197,0.4950368166120028,0.5049631833879971,17.916472867168917,18.095209855602942,0.5105193812385604,0.4894806187614395,63.24749099922401,61.93054972079089,0.5093360510351984,0.4906639489648014,46.482497338766784,45.622525184593094,1.32340058996597,1.6752658285071211,1.6268510022184035,1.7633870808555092,-0.0988693479916467,-0.11258701891441358,-0.4184988577252978,0.001231906827800299,0.19835198304909823,0.6134300120695357,2.3025850929940455,5.840375586218004,1.02937639369647,0.7489330683884977,0.0,0.0,1.8751030543763771,1.7055886821685085,2.282722336129047,0.8479211724493175,Relax
73.63185248102033,815.3888888888889,59.15307322521359,,,,,,,35.87085599562903,36.10410277827919,0.07254584166068301,0.04399232867216206,815.0,65.9757,0.0809517791411043,84.0,1.6490566389723615,765.0,870.0,15.277777777777779,56.94444444444444,692.0,938.0,12.0,85.9375,,,0.017993873716830523,0.009043483179024335,0.00023179877741490233,0.02726915567326976,1.9897061077711662,0.6598617842234399,0.3316378140702425,-4.705710871375695,25.529455903177286,78.82412355826335,0.3238787156866645,6321.943093295468,3.087575538515619,4.507820692199456,973.5017429737065,0.4305555555555556,0.44285714285714284,0.6774193548387096,0.0,52.186732186732186,52.421594444799844,51.96806177690365,42.857142857142854,0.503431592543538,0.4965684074564619,18.124963054149536,18.00099203615496,0.6074369905015646,0.3925630094984354,61.434137887307855,49.38713553924357,0.5975519374818261,0.402448062518174,45.291652562426115,37.16937496822707,1.3508842613089396,1.5076909788167976,1.5700103314026252,1.9485222231921497,-0.3575535116700985,-1.0232081875061958,-0.24894597294296195,0.0022944719130944193,0.20534299916683374,0.539954572607066,2.151762203259462,5.826107119467819,1.060048383342591,0.0,0.0,0.0,1.9121132055023031,1.7170564069342082,1.9866270791056686,1.0283208335737186,Relax
73.60697450528741,815.3055555555555,57.41193841812387,,,,,,,33.53262023341316,33.75791434144154,0.07041769558285779,0.041128899472006875,815.0,63.751799999999996,0.07822306748466257,82.25,1.7121220476804988,764.2,861.6,12.5,56.94444444444444,692.0,938.0,10.285714285714286,85.9375,,,0.016215336194574163,0.010289171511892703,0.0001896945421929056,0.026694202248659774,1.5759613080442603,0.607447866151845,0.3854459262744699,-4.576663246285012,23.870450149547917,77.94831130571382,0.30623434619292583,5845.439805756289,3.265473035379271,4.473787302624295,1018.1524348886306,0.4444444444444444,0.45714285714285713,0.71875,0.0,51.736651114567145,51.78530484676682,51.683370329802806,42.857142857142854,0.48477484812425636,0.5152251518757437,16.626570817304966,17.14080344841346,0.5972019202968158,0.4027980797031842,60.23755123670862,49.47096781363163,0.5875555597079838,0.41244444029201616,44.18713294692219,37.021505907205615,1.4121082176892412,1.7197600776966757,1.6433276647658406,2.0968383910083674,-0.7260665090132079,-1.3278961511758425,-0.23629418886736406,0.0022808125610571943,0.25113295490990245,0.5594337616190623,2.0583881324820035,5.770551563912264,1.0819481337719599,0.0,0.0,0.0,1.9272942587198911,1.679114559171827,2.3026396845388635,0.9426274307759088,Relax
73.80698052962502,812.7534246575342,58.099957167204956,,,,,,,33.50186561969348,33.68717998677923,0.07148534279223276,0.04122020849535023,814.0,63.751799999999996,0.07831916461916462,82.0,1.7342305000785365,759.4,858.4,13.698630136986301,54.794520547945204,692.0,938.0,12.166666666666666,85.9375,,,0.031948322452107186,0.017137778158110174,0.00033601274815575854,0.04942211335837311,1.86420445855685,0.6464378044791662,0.3467633614499548,-4.066470003263489,23.82043340770334,78.3763186174963,0.3039238615423537,5865.221155245668,3.290297757225106,4.475254502319911,1031.5257014668337,0.4794520547945205,0.49295774647887325,0.7428571428571429,0.0,46.5974025974026,46.672187128295974,46.52932475118246,45.07042253521127,0.42827090371360327,0.5717290962863967,15.611705611901474,18.037910000415753,0.5902210669355762,0.40977893306442414,60.21327012587189,50.17179905863534,0.5764896443033052,0.42351035569669476,43.98501592226546,37.699970941389196,1.336334048458863,2.4116060656996656,1.759555993412329,2.238461918396781,-0.45551593376308297,-0.7247263698391828,-0.30141618824237376,0.010916682353101219,0.6642280941475674,0.5471620633603722,2.3272777055844167,5.703389284848141,1.054171834640168,0.0,0.0,0.0,1.9476231630663943,1.6842660851736417,2.084629915963748,0.7631290552043858,Relax
74.6448497679859,804.0,52.42004493617982,,,,,,,33.581782429036004,33.816958154777026,0.0651990608658953,0.04176838610576617,803.0,60.7866,0.07569937733499377,80.0,1.5609667249483334,758.4,849.0,12.32876712328767,56.16438356164384,692.0,924.0,10.428571428571429,85.9375,,,0.048649842589791215,0.022989708838693276,0.00028422653869368433,0.07192377796717818,2.1161574046518656,0.6764083306635,0.31963989501753426,-3.772708604980882,23.91220043034455,70.65657246423976,0.33842853674294543,5307.890819044572,2.954833565821766,4.431892091001563,835.1136478530143,0.5068493150684932,0.5211267605633803,0.7567567567567568,0.0,50.334878928387425,50.33168212356244,50.33723540342928,42.25352112676056,0.479759104400409,0.5202408955995913,16.562940134996953,17.247575865594463,0.6029379114850555,0.3970620885149444,54.864176157668695,44.52272910474675,0.5902792455745881,0.40972075442541184,40.52412128211539,33.76205177543347,1.297085865246596,2.4189223760396033,1.6705418775440144,2.241016459752812,-0.6793271594269701,-1.0121597210869986,-0.2641616829628031,0.011414471337233245,0.6819739396380176,0.5231044277843546,1.8382794848629476,5.785581065670058,1.1307989461903527,0.7342229433827643,0.0,0.0,1.8945129034322914,1.6443717890843335,2.8327383968396576,0.8479211724493175,Relax
74.90040704377039,801.068493150685,49.1045734369019,,,,,,,33.8203998267975,34.03794888071636,0.06129884505102498,0.04221911124450592,802.0,59.303999999999995,0.07394513715710722,71.0,1.4519217303278016,758.4,847.8,13.698630136986301,56.16438356164384,692.0,917.0,9.125,109.375,,,0.047449153195770304,0.019141797062222164,0.0001795901930705193,0.066770540451063,2.4788243779584795,0.7106300604313127,0.2866802774533694,-3.9558810069665244,24.06846447123559,64.72498625610433,0.37185739022023584,4894.070525999228,2.6892029748494206,4.396640333422924,696.2345023480144,0.5068493150684932,0.5142857142857143,0.7222222222222222,0.0,47.87506400409626,47.99141242211821,47.75832863929043,42.857142857142854,0.4290814158217473,0.5709185841782528,15.775047152894864,18.196501753258456,0.6078941482087868,0.39210585179121316,50.46449693443406,40.52972236528879,0.5861497966907269,0.4138502033092734,37.38661233330429,31.414734369907766,1.3170869047167912,2.55011059710863,1.7463469324400887,2.223456182244433,-0.5229171078602288,-0.6077433873262166,-0.3129064479221799,0.011834865638323817,0.7185672903206177,0.504845357127564,1.8718021769015911,5.7581838053960865,1.1684287044255013,0.0,0.8703100223339229,1.0891772066723977,1.8623450663137662,1.6421749916527697,2.135291234438714,0.9327132896942493,Relax
75.60471647675841,793.9054054054054,45.56650082877333,,,,,,,33.667390018903035,33.89364689507155,0.05739537798650575,0.042407306701370655,795.0,51.149699999999996,0.06433924528301886,66.5,1.3534313412233432,755.6,833.0,12.162162162162163,56.75675675675676,692.0,917.0,9.25,109.375,,,0.04815225162658891,0.018281498106549422,0.0002425758636927952,0.06667632559683113,2.633933572945981,0.7221791422303181,0.2741827469181696,-4.001865763001791,23.96642755864746,60.09506674581675,0.3988085687635213,4524.7230020499555,2.507468691308293,4.362562107345356,602.7459934688706,0.4864864864864865,0.5,0.6944444444444444,0.0,48.76822523881348,48.7365638099019,48.802149266581466,44.44444444444444,0.44991238141277423,0.5500876185872259,16.078799015404655,17.778927914184752,0.6163400982894053,0.3836599017105947,47.179032819945824,37.223056152855655,0.5934945251599277,0.40650547484007227,35.244779156658815,29.168871996843,1.3872075306309735,1.8097147166944465,1.7373180145338738,1.8753961459999604,-0.1724465287621335,-0.18018904797229052,-0.4237017137605563,0.0013545139118040191,0.2345697373202583,0.5509834347489173,2.03688192726104,5.793846777761875,1.2458593660057298,1.2157295498814702,0.9571603491222738,1.1504578211806442,1.8830037978945848,1.6317748981716438,2.979476845300844,1.0069383836155055,Relax
75.51746030325573,794.2297297297297,46.062360141918056,,,,,,,33.263785894795475,33.49375779549554,0.05799626785261831,0.0418818191382925,795.0,52.632299999999994,0.06620415094339621,70.5,1.384759999586369,755.6,833.8,12.162162162162163,55.4054054054054,692.0,917.0,10.571428571428571,85.9375,,,0.05014713857732675,0.018135100682080407,0.0002820444782803025,0.06856428373768746,2.765197693491604,0.731388644985765,0.26449777775644084,-4.009905954452349,23.68366326461468,60.50642757408322,0.3914239232785101,4501.945802531461,2.5547748630797646,4.360370372327047,618.3212008840966,0.4864864864864865,0.5,0.6944444444444444,0.0,49.77005620848237,49.78702544862422,49.75295386291344,44.44444444444444,0.46054993624107055,0.5394500637589292,16.072751268321593,17.395122240955303,0.6175794972571454,0.3824205027428546,47.54971813212403,37.41726985408387,0.5967167301849954,0.40328326981500456,35.49161188068089,29.177408736136176,1.388641707252876,1.5938897141629602,1.7095061100571267,1.8284292726935811,0.0040801043599199005,-0.15904179017342113,-0.4253880857754907,0.0012218430964976484,0.18934913650772717,0.554924285056476,2.0583881324820035,5.793846777761875,1.1869855755331558,1.0558423752496766,1.1748034532101232,1.5700664472902897,1.8901037134637615,1.6253078647287322,2.40164724587698,0.8391153196795879,Relax
75.63732538391841,793.4324324324324,45.54662854794429,,,,,,,33.16253043206345,33.3918493231156,0.05740454597792481,0.0417962879717392,793.5,48.925799999999995,0.06165822306238185,65.5,1.3734364644233295,755.6,833.0,10.81081081081081,55.4054054054054,692.0,917.0,8.222222222222221,78.125,,,0.04150260826212147,0.018208405694178496,0.00010245077097167138,0.059813464727271635,2.2793103887942525,0.693867316520766,0.30441984555153967,-4.005871940191396,23.61160309273447,60.22845743696182,0.39203400016425094,4467.6288535634285,2.550799164309802,4.357047197067748,614.5227955914827,0.4864864864864865,0.5,0.7222222222222222,0.0,50.20242914979758,50.21418733585873,50.19034510405438,43.05555555555556,0.4669788993796866,0.5330211006203133,16.135278808320056,17.238522751867883,0.6221709525310237,0.3778290474689761,47.506890570696896,37.0211079458699,0.6014966112109545,0.39850338878904557,35.477118498536434,28.87671293799225,1.4095631332701006,2.734963200632743,1.820889993855231,2.4861945564599788,-1.1190715677147605,-1.4188601777990515,-0.25674094538060793,0.011479737144005202,0.807458281209864,0.6096909184175794,2.3978952727983707,5.800471439865564,1.2122840943224742,0.8741268903666202,1.1617993663696127,1.5228719833592574,2.0377432582759947,1.6659968189409702,2.458638970406873,0.8391153196795879,Relax
75.4337764815344,795.418918918919,43.0533300246626,,,,,,,32.07226429465655,32.288516932850655,0.05412661052012423,0.040321223863077155,793.5,48.1845,0.06072400756143667,64.0,1.34238510973594,759.2,833.0,9.45945945945946,52.702702702702695,718.0,917.0,7.4,54.6875,,,0.04002870239474257,0.014890385803062666,9.146732774130356e-05,0.05501055552554654,2.6882246655093005,0.7276549384445592,0.2706823383404603,-4.207039522409481,22.83142927767536,56.49788017466987,0.4041112552734598,4052.426303849556,2.474566068008439,4.314685235611277,559.230948778579,0.5,0.5070422535211268,0.75,0.0,48.840885142255004,48.88533092458669,48.79808100076054,43.66197183098591,0.4365028632307898,0.5634971367692104,15.087016124984938,17.1417699721405,0.6029722116195528,0.3970277883804473,43.871330150000404,35.599394027160336,0.5795960009405189,0.42040399905948106,32.80481416412757,27.938836168305194,1.3812122483598577,2.3033575871784593,1.7188201850654445,2.2261177314243774,-0.6682905016787526,-0.895752868222659,-0.2797573641267066,0.008312560816681993,0.5569486350857807,0.4997671125222376,3.4657359027997265,5.827498466892592,1.229580960602731,1.0397207708399179,0.0,0.0,2.129865647812753,1.6339997641306532,2.628551161080998,0.7552037877116291,Relax
75.27458070752883,797.3972602739726,41.10411567863957,,,,,,,31.801249101952653,32.01708451897927,0.05154785164990017,0.039881312221998685,794.0,44.477999999999994,0.056017632241813595,61.0,1.2925314834918138,762.0,833.0,9.58904109589041,49.31506849315068,726.0,917.0,7.3,46.875,,,0.031242839269154256,0.022067184030365845,0.00014540441209583358,0.05345542771161593,1.4158054433298841,0.5844652377996996,0.4128146565287068,-3.8136636594972684,22.639497577193065,53.53588207001062,0.42288455334660696,3807.690320108629,2.364711579286214,4.287631729890361,506.3876809530212,0.5068493150684932,0.5142857142857143,0.7777777777777778,0.0,51.32504056246617,51.39819106241652,51.2523769126361,42.857142857142854,0.46060564444139257,0.5393943555586075,15.368478807125655,16.6310417381406,0.6087850836730864,0.39121491632691374,41.771201176772394,33.48518211483541,0.5862971956392351,0.41370280436076495,31.4723957508438,26.437179979712926,1.3339051687915935,1.0848596409418767,1.5624519835096762,1.5360504941199504,0.41959523948691846,0.25321927059082583,-0.5243363181681309,0.0003248664562880426,0.07624007993114866,0.5008251693277246,2.197224577336219,5.720445620434943,1.2727493353641903,0.8624968864578968,0.0,0.0,2.0322548138891148,1.6508836670846712,2.2154120979226533,0.8479211724493175,Relax
75.22190413206275,797.7702702702703,40.97962985361937,,,,,,,32.0290963609439,32.24809883131715,0.05136770744757912,0.04014827019073175,796.5,45.2193,0.05677250470809792,60.75,1.2794500785101668,761.6,833.0,9.45945945945946,48.64864864864865,726.0,917.0,7.4,46.875,,,0.04323366742850198,0.022185625628783776,0.00011447263691713006,0.06553376569420288,1.9487242844488613,0.6597159032527018,0.33853732337475484,-3.8083106940177323,22.802849363998337,53.63128460120684,0.4251781312634308,3841.99849593399,2.351955395797209,4.291527300469846,504.5535568053768,0.4864864864864865,0.49295774647887325,0.7714285714285715,0.0,49.21301154249737,49.20204507680388,49.2253945388279,43.66197183098591,0.43908236299540643,0.5609176370045936,15.111162173116341,17.07947110812666,0.5990790420829261,0.4009209579170738,41.51071967578376,33.95842811400648,0.5745801930577404,0.4254198069422595,31.236893813435767,26.87827350582138,1.2889109965990928,1.1272578752313818,1.4977080597660093,1.4893553556305492,0.18693041311225045,0.11293486235736516,-0.5074097545193424,0.00019085509456801607,0.06893666188803739,0.5097124425681296,2.862200880929468,5.793846777761875,1.268148985536649,0.9902032923993944,1.264856364566422,1.3753145526361816,2.033410233218733,1.669202853224076,2.9109652294528665,0.9230268516475466,Relax
75.79921420431602,791.8243243243244,39.89759429287844,,,,,,,32.054747687590186,32.24709584224217,0.05038692683118021,0.04048214572713838,789.0,40.0302,0.050735361216730036,52.25,1.244670358404492,756.6,825.2,9.45945945945946,48.64864864864865,726.0,917.0,7.4,46.875,,,0.03812121467333343,0.02209901796827555,0.00014110534246360396,0.06036133798407258,1.7250184930415775,0.6315501933272651,0.3661121291596745,-3.812222107270366,22.802140143621955,51.32253933838456,0.444290957492979,3676.491951131831,2.250777296127623,4.2724037294786195,462.0624252898111,0.4864864864864865,0.49295774647887325,0.7428571428571429,0.0,47.37670514165793,47.39452474840966,47.36150710322086,45.07042253521127,0.4278077005119453,0.5721922994880546,14.927835669573058,17.264084427246964,0.5761062105525381,0.42389378944746214,38.95465970000717,33.414630505164475,0.5516213636041485,0.4483786363958516,29.498354107654382,26.594982072825122,1.2526309523123245,1.0147728410207764,1.4210249877380354,1.5306465283947435,-0.018535791855700978,-0.4373703211160578,-0.3919743057505974,0.0001730249427057056,0.056761028184351844,0.5010394780482641,2.0281482472922856,5.766819750734848,1.2988450054937017,0.9866614242338189,0.8202278039469134,0.9093965399315965,1.8993043181462037,1.6870460351550036,2.7122458021941154,1.0069383836155055,Relax
75.52593315767301,794.5540540540541,39.09739923799434,,,,,,,31.43137774341613,31.648823379534665,0.0492067204723299,0.03955851409107257,792.0,38.547599999999996,0.048671212121212115,51.25,1.2438970877178297,762.0,825.2,6.756756756756757,52.702702702702695,726.0,917.0,7.4,46.875,,,0.03521841284804361,0.02593721936610724,0.0001788620099882218,0.06133449422413907,1.3578330179087863,0.5742023847028463,0.4228814420694982,-3.6520763006697146,22.37909762824431,50.85588054489821,0.4400493588639544,3575.473980181278,2.2724723485147944,4.260303731856283,462.2743291906108,0.5,0.5070422535211268,0.75,0.0,49.869723814486704,49.87516048788045,49.864534668826465,43.66197183098591,0.46039185235513524,0.5396081476448646,15.184741976368544,16.439282222773596,0.5775932271966986,0.42240677280330163,38.650242610250686,33.05267511360794,0.558579703768037,0.44142029623196294,29.36339253833016,26.102962783616324,1.3469856263820454,2.2135895872101705,1.3884389845285487,2.4537804199871305,-1.3050390756989714,-2.308124781676127,-0.018726758738844523,0.012295445845638442,0.684404325345777,0.4723449568744398,1.8191584434161696,5.7193903587844845,1.3261213930642122,0.0,0.8992081185402192,0.888439874701069,1.9206642197880146,1.6906278645657757,3.235592301438979,1.0069383836155055,Relax
75.7328617789493,792.4054054054054,37.520010704396825,,,,,,,30.714995668306866,30.92686664810567,0.04734951383275973,0.03876171901249545,790.0,35.5824,0.045041012658227846,45.0,1.2215535079209432,762.0,823.0,5.405405405405405,51.35135135135135,726.0,917.0,6.166666666666667,85.9375,,,0.033048744289160804,0.036845157786702484,0.00012872424071966264,0.07002262631658296,0.8969630278279928,0.4719723613299278,0.5261893151525039,-3.3010310723268974,21.86859712772759,48.67589203859982,0.44926957086653624,3344.1420421679272,2.2258351440789395,4.2312548257442035,433.37804467563086,0.4864864864864865,0.5,0.75,0.0,50.398300584174194,50.41263571429925,50.38317148996002,43.05555555555556,0.44224542246874493,0.557754577531255,14.5432783252073,16.332482971061076,0.6028543972350354,0.3971456027649645,37.79376303089113,30.675298559562073,0.5758799719535163,0.42412002804648397,28.634554898580117,24.573603131391526,1.2772426257983385,0.47348562633013747,1.3794336523413229,1.5139854389634073,-0.033025860851786604,-1.040161897337695,-0.21582709349603738,0.0001049450361938288,0.016232579521711265,0.5135525567861183,1.9218125974762528,5.6449339398070935,1.3340256681554432,0.7551062215360906,1.06652490199241,1.2038173151511693,1.9922121202236227,1.7144636332506862,2.4751062733769715,1.0069383836155055,Relax
75.96760170092784,790.8918918918919,41.49354383435281,,,,,,,31.84702304317201,32.06243314975481,0.05246424228107351,0.040267226620557164,791.0,34.8411,0.04404690265486726,45.0,1.3029018058643638,762.0,823.0,6.756756756756757,52.702702702702695,682.0,917.0,6.166666666666667,125.0,,,0.03450142331486234,0.048172238588691664,0.0001833044710647991,0.0828569663746188,0.7162096744028309,0.4163973751931981,0.5813903247542508,-3.0329723867461387,22.67156390153198,53.33866090685421,0.4250493641211492,3799.0364473746295,2.3526679120380387,4.286643570091334,501.9526239465346,0.5,0.5138888888888888,0.7837837837837838,0.037037037037037035,48.94493051981472,48.84968167290166,49.03342485593102,45.83333333333333,0.41420062399546187,0.5857993760045382,14.593329907110911,17.35495446391158,0.5180807864181768,0.48191921358182316,38.39201012593334,37.02791252321158,0.5021807408147785,0.49781925918522174,29.042311540987452,28.915919060882825,1.1451526358179134,0.923789664225497,1.2596254626926326,1.4716892818389855,-0.29788089922986316,-0.9282205456592658,-0.27044144640420215,0.00013955804768448347,0.045736851594897716,0.5899029255395605,2.0794415416798357,5.617906912780065,1.258820849091448,0.0,1.1494794607216627,1.3114092771797807,1.9209750636091125,1.7443033964381496,2.3065317748817487,1.174761447551423,Relax
75.22385729461296,797.4459459459459,50.815039811169456,,,,,,,36.18086226889221,36.428742394578116,0.0637222373121374,0.04537092758804331,792.0,37.065,0.046799242424242424,49.25,1.404472879433266,763.8,827.6,10.81081081081081,51.35135135135135,682.0,948.0,6.7272727272727275,125.0,,,0.030128794580415764,0.0381895825563679,0.00027976217750049436,0.06859813931428416,0.7889270466872897,0.43920716919711056,0.5567145543321713,-3.2651925085096662,25.759010777304052,63.65670270353906,0.40465512166516837,5151.375317451899,2.4712401906220016,4.418893302700132,629.2440084938478,0.4864864864864865,0.5,0.75,0.038461538461538464,50.74770863482874,50.63408715419844,50.87569353516501,45.83333333333333,0.517910026056655,0.4820899739433451,18.53899793528346,17.886408558207293,0.58976657866864,0.4102334213313599,48.885967896639414,40.77177874333542,0.579654748679221,0.42034525132077916,36.96980052445309,31.482229535141002,1.092507062768685,1.3177491092490885,1.2601372435984928,1.2803496988228125,-0.3082539089915226,-0.09975487612590905,-0.4846613781922132,5.289165635995964e-05,0.07120798562297835,0.653089763737905,1.9136492868370918,5.68216214929579,1.1264087767423254,1.0385229000622338,1.180180409319817,1.439184726549787,1.823967053181095,1.7235813813121472,2.030224753588104,1.0069383836155055,Relax
75.13454346706942,798.7837837837837,50.807256053428404,,,,,,,36.0133156500424,36.255986751741645,0.06360576802493152,0.0450851862308093,792.5,40.0302,0.050511293375394326,55.25,1.4107908460066654,763.8,836.8,9.45945945945946,50.0,682.0,948.0,7.4,125.0,,,0.022703832930710224,0.03595401502781654,0.00016915105740842817,0.058826999015935195,0.6314686388472873,0.38594239567719846,0.6111822059472596,-3.325514517384575,25.636854090766143,67.31393968865524,0.3808550533417501,5421.501891638593,2.6256708194512957,4.441089723602778,706.976988731226,0.4864864864864865,0.5,0.7777777777777778,0.037037037037037035,51.223091976516635,51.27276581985636,51.171583172626676,44.44444444444444,0.5221170704915609,0.47788292950843914,18.527944360403886,17.72572675206545,0.5447503574324855,0.45524964256751443,49.68253775331235,45.418189294583364,0.5418823543119364,0.45811764568806373,37.49426142646051,34.47472485522905,1.2064905049797232,2.484107877659233,1.4454581125794919,1.9985935665304866,-1.6890613596107702,-1.5103835591546497,-0.27733034103486176,0.0034318478111599513,0.41570524276476567,0.6222134130946779,2.3608540011180215,5.709189176322816,1.1601071826411642,0.0,1.1322360310980635,1.3849134516330368,1.789185600611143,1.6682941394917064,2.1498824331289637,1.174761447551423,Relax
75.06176919374577,799.6849315068494,50.884093976280155,,,,,,,36.246455765433886,36.49412026301659,0.0636301773004514,0.045325920668699546,797.0,40.0302,0.05022609786700125,54.0,1.4038364000489483,763.2,838.0,10.95890410958904,47.94520547945205,682.0,948.0,8.11111111111111,101.5625,,,0.03950797418220953,0.024210788264822918,0.0004753583432166754,0.06419412079024912,1.6318334516853659,0.6154453662711534,0.37714962003966657,-3.7209569490899788,25.805239911416418,67.58360034796709,0.38182694882417045,5478.972211530976,2.6189874839360683,4.445669207730072,708.0024137226524,0.4931506849315068,0.5070422535211268,0.7777777777777778,0.03571428571428571,48.747494989979955,48.733262685275946,48.7663494255893,46.478873239436616,0.49365710298750437,0.5063428970124955,18.13428004294784,18.365805642590484,0.532155407409184,0.467844592590816,49.30154891256693,46.226619071867134,0.527255270748723,0.47274472925127703,37.14495145948024,35.17245461804534,1.3615153910667133,1.5546541125306372,1.5387357140997515,2.1388424473320318,-1.1963940238641886,-2.284650816916523,-0.113993409598076,0.006762504143498475,0.34431487587823584,0.6201511600407748,2.197224577336219,5.655310175199828,1.1337824541933086,1.2904003369692967,0.9554780778246572,1.502560608014024,1.737751298767829,1.6099770857469886,2.617951260018629,1.1022975241841126,Relax
75.47522660416158,795.2027027027027,51.61660021013462,,,,,,,37.09945906632196,37.3548586429042,0.0649099909176644,0.046654090762304784,788.5,39.2889,0.04982739378566899,57.5,1.391303310322144,760.0,835.0,13.513513513513514,51.35135135135135,682.0,948.0,8.222222222222221,101.5625,,,0.02954779070107729,0.01925937359387109,0.00047839744578393286,0.04928556174073232,1.5342031015214472,0.5995222466269946,0.39077110848782465,-3.9497573968237694,26.413873856662473,68.48508458973616,0.38568797884818723,5683.004091087723,2.592769427210008,4.46154807864706,710.2641341766367,0.5,0.5138888888888888,0.7837837837837838,0.037037037037037035,49.45159752026706,49.428793030673276,49.47611499703547,45.83333333333333,0.4942025379447624,0.5057974620552375,18.569501578903214,18.786076404259262,0.53926844876901,0.46073155123098997,50.29195314874751,46.48576405468133,0.5334323836427267,0.4665676163572733,37.90848810230173,35.4530882040914,1.3430103639019475,1.75006568236929,1.5277181279022993,2.2180432050865924,-1.5127198599940197,-2.592705745620057,-0.10554333237955336,0.007259059625960725,0.40204780912463045,0.5863274040657105,2.005333569526114,5.682162149295789,1.1399906100494999,1.2139080381261051,1.0763739835564499,1.4312452751371638,1.7929333282691131,1.6297690003559635,2.4892420001224123,1.2586729795193818,Relax
75.46639360706705,795.1486486486486,51.9896413371742,,,,,,,37.416207754657954,37.66932851143332,0.06538354988784845,0.047055613838049806,790.0,42.2541,0.05348620253164557,60.5,1.389495206945498,755.4,835.0,13.513513513513514,52.702702702702695,682.0,948.0,9.25,125.0,,,0.03661805011065258,0.027840488300561184,0.000823838031093988,0.06528237644230775,1.3152804546863663,0.5609178480659813,0.42646254345787743,-3.581263904138082,26.636237633178254,68.95739232207065,0.3862709527757622,5770.368964897419,2.5888563269227225,4.468173693359446,714.0831256043399,0.4864864864864865,0.5,0.7222222222222222,0.038461538461538464,51.12149532710282,51.11907764701989,51.11964122051157,44.44444444444444,0.5051175169768489,0.494882483023151,18.933729455950065,18.740923729160794,0.5362207913477711,0.4637792086522288,50.49549740448542,46.960906057417326,0.5321814613325923,0.46781853866740747,38.13319662208707,35.75296435231488,1.320485064018227,1.9114477255142859,1.320485064018227,2.0768186336481183,-1.2690136864996724,-1.644089693482992,-0.1043137567749098,0.0052674979903551515,0.34918573325785146,0.4725972220045409,1.493925025312256,5.702564514219126,1.1148199332629034,0.8214211236350777,0.9964857508841467,1.382129452579861,1.7937468376924925,1.6463019695830232,2.4013528434790783,1.174761447551423,Relax
75.0143980934964,799.7534246575342,51.88710523335944,,,,,,,37.2838213349079,37.54495479652262,0.064878878456292,0.04661914558336948,792.0,45.9606,0.05803106060606061,60.0,1.3916788401938527,761.4,838.6,13.698630136986301,53.42465753424658,682.0,948.0,9.125,101.5625,,,0.03649936747567051,0.02504905029712522,0.0009899844067228194,0.06253840217951855,1.4571158204692254,0.5836312762020666,0.4005386998091364,-3.686919364460363,26.548292135963536,68.70716477480933,0.38639772464744687,5730.446842679019,2.5880069581476186,4.465158598202031,711.2584820472059,0.4794520547945205,0.5,0.7222222222222222,0.037037037037037035,49.66666666666667,49.673338446181866,49.660885912706135,45.83333333333333,0.4959035229702455,0.5040964770297544,18.695672467554743,18.84947789466351,0.5348124593832634,0.46518754061673684,50.246149451372084,46.86148692373281,0.5297577738562447,0.4702422261437554,37.909126234349586,35.716255218069755,1.2680782321952293,2.8234637957424225,1.4570674680292566,2.4658515526977287,-2.3630640846864637,-2.7021397095796384,-0.14271400037441778,0.011400819869251186,0.7975656233058749,0.47479232504281565,1.466337068793427,5.79592199035723,1.1359830910526527,0.7426036163924252,1.146485518577362,1.5232116931538686,1.7392659732136753,1.6314474328094228,2.5218010268417865,1.017505406939181,Relax
74.94606552387643,800.6301369863014,52.26495183446314,,,,,,,37.370145541297774,37.631355753377335,0.0652797707955345,0.04667591664980901,797.0,47.4432,0.059527227101631115,62.0,1.3985750142906215,761.4,838.6,13.698630136986301,54.794520547945204,682.0,948.0,10.428571428571429,101.5625,,,0.026179754141665436,0.018204832253362644,0.000651737535253142,0.04503632393028122,1.4380662110649074,0.5813030873077735,0.40422553762480157,-4.006068211713993,26.609386838456516,69.44447574334193,0.38317499777522224,5805.270269806954,2.609773617292794,4.470792553494342,724.9374426468127,0.4794520547945205,0.5,0.7222222222222222,0.038461538461538464,50.476644423260254,50.46387389901894,50.48743517120977,44.44444444444444,0.4987071108901046,0.5012928891098956,18.791854693374507,18.840509248223473,0.5400795041536863,0.4599204958463135,51.034815818861354,47.095464596949284,0.5347825102749659,0.4652174897250341,38.455729277196156,35.86744745820992,1.3033997433598346,2.736406183135572,1.3033997433598346,2.4304712825597865,-2.1606630040670147,-2.4121995786354553,-0.08811979517292573,0.011059527754992785,0.7481315534333381,0.4746645787252919,1.452252328911688,5.850716510905175,1.0890360440850362,1.026728137214468,0.962073874603837,1.4120548416368635,1.7229910407064961,1.6377706836840602,2.7003358934132686,0.9327132896942493,Relax
74.49879310601436,805.3698630136986,51.98009951716433,,,,,,,38.22193959843831,38.462672187455816,0.06454189795810648,0.04745886499329836,802.0,45.9606,0.057307481296758105,62.0,1.3599545199241576,764.0,844.4,16.43835616438356,58.9041095890411,682.0,948.0,10.428571428571429,101.5625,,,0.03227565053689516,0.023362501935677384,0.0008106252285757516,0.0564487777011483,1.3815151573131095,0.5717688115014509,0.4138708203632572,-3.7566230233464246,27.197216326305224,68.25953876373521,0.39843832552754527,5832.270760887415,2.50979872148586,4.4728077876910755,685.2708124737484,0.4794520547945205,0.5,0.75,0.037037037037037035,52.37659963436928,52.41447578622625,52.33341945344521,44.44444444444444,0.5178065522027646,0.4821934477972352,19.58477419532046,18.899288309128185,0.5248660565309622,0.47513394346903776,49.45242502104956,47.05127300908386,0.5238976870166863,0.47610231298331374,37.610541878203634,35.853907669645245,1.2897511211014343,2.543477776640086,1.3287846212904513,2.4644317056180918,-2.0075871569975536,-2.591099204954862,-0.05350618953399255,0.012478142397957396,0.7611983205256777,0.44837196588209016,1.493925025312256,5.79592199035723,1.109947420086331,0.6481343284950913,1.0370660098223967,1.1860485860574599,1.7321978928390616,1.6564884090323049,2.2346473382682115,1.1022975241841126,Relax
74.04602592711198,810.5694444444445,52.44657278478842,,,,,,,37.67055113129102,37.93442928993819,0.0647033676685589,0.04647418107045721,809.0,45.9606,0.05681161928306551,61.0,1.392243309687702,773.6,847.0,18.055555555555554,54.166666666666664,682.0,948.0,12.0,125.0,,,0.0367731394100449,0.02376923021253164,0.0009972626579768612,0.0615396322805534,1.5470900437767363,0.5975521472471531,0.3862426428576946,-3.7393633829669275,26.823692191356876,69.56890104027595,0.3855701583646933,5862.509675611692,2.5935617119365997,4.4750536824544485,721.724952318264,0.4722222222222222,0.49295774647887325,0.7428571428571429,0.037037037037037035,50.96339113680156,50.98146182279515,50.941964954235175,45.07042253521127,0.5072751454036564,0.4927248545963435,19.106842454247342,18.83082579177026,0.5295068260875839,0.4704931739124161,50.62335505332987,47.71905190902488,0.5266289601727464,0.47337103982725354,38.260916778266875,36.274701343334385,1.2910121676028945,1.8608139174179001,1.3320209960472917,2.09483269858819,-1.4083573049354055,-1.9005964520810847,-0.09006556464313739,0.0062399752682896535,0.37239119662531056,0.4488071989740079,1.5869650565820417,5.836591668108978,1.1173690464965933,0.7991007422540355,0.8581349644765697,1.3080433764046009,1.740404518853938,1.6494308720005455,2.382360168556907,0.9426274307759088,Relax
74.40897055681872,806.6301369863014,54.03124272362012,,,,,,,37.39225261408512,37.629190609359284,0.06698391275769765,0.04635613139100968,805.0,50.4084,0.06261913043478261,66.0,1.4449849620257254,762.0,845.8,19.17808219178082,49.31506849315068,682.0,948.0,12.166666666666666,164.0625,,,0.024359669537922256,0.018791614747357573,0.0007790163661276787,0.0439303006514075,1.2963052864495133,0.5545072347949384,0.4277597573590815,-3.974344532721284,26.6078558504391,71.60830069539426,0.371575021220277,5985.812647671935,2.6912465663486573,4.4840932295231655,770.862373474168,0.4794520547945205,0.5,0.7777777777777778,0.03571428571428571,47.61445783132531,47.5276914826041,47.705356170119344,47.22222222222222,0.47917432377395214,0.5208256762260477,18.43106685333523,19.215420743928487,0.513578853288239,0.4864211467117608,51.317670562136904,49.94242101218151,0.5094000035812941,0.49059999641870605,38.55650099059901,37.838325880806266,1.3701555133869967,1.9778228384582395,1.4283161410863685,2.3512034614796073,-1.8392877630409412,-2.676673675104543,-0.03338221075824378,0.006173318070799597,0.43343338230721934,0.45920700023149363,1.7047480922384248,5.833660175318374,1.100704803356082,1.3222098493049346,0.9235409824471383,1.3060748317835835,1.6956863798323454,1.6117173646064857,2.5821699584490183,0.9327132896942493,Relax
74.90707610046438,801.1756756756756,55.46450379336371,,,,,,,37.11422575542507,37.370339006261666,0.06922889133720571,0.04632470366018613,799.0,57.080099999999995,0.07143942428035042,76.5,1.4944270738358685,753.0,842.2,17.56756756756757,54.054054054054056,682.0,948.0,12.333333333333334,78.125,,,0.012923417643960848,0.01633284105414527,0.0005847692780764966,0.029841027976182613,0.7912534996892588,0.4330754843390641,0.5473283650677584,-4.1145774095359515,26.424820126567774,74.4019522235321,0.35516299420716063,6176.554012014355,2.8156086538022507,4.497716353502197,837.9471221614344,0.44594594594594594,0.4657534246575343,0.7352941176470589,0.0,49.600376116596145,49.58792683125757,49.61447072119062,45.20547945205479,0.5036547163243996,0.4963452836756006,18.753703337978045,18.61712174913787,0.5538921515798939,0.446107848420106,55.37285763701018,49.69403517308851,0.5482647826890976,0.45173521731090255,41.339174833186284,37.52395470900142,1.3765966359281472,1.4272591579247778,1.6661636876279462,2.058358897543664,-0.9375885520520164,-1.9375885520520164,-0.22521093472192813,0.006566978581422154,0.31103069224739566,0.527395423908426,1.270462545594769,5.793846777761875,1.0527491122204857,0.5922687085657197,0.8995127280642757,1.1948315161739134,1.7174061109914198,1.6751138397264682,2.651010413344828,0.7552037877116291,Relax
74.88676977586275,801.4657534246576,49.5252691371286,,,,,,,30.154002866765282,30.316842109509984,0.06179336911840272,0.03762356998775985,791.0,50.4084,0.06372743362831858,75.0,1.6424111039570695,759.4,840.2,12.32876712328767,46.57534246575342,723.0,948.0,10.428571428571429,39.0625,,,0.007960352544782397,0.025412479066176257,0.0013806574144276168,0.03475348902538627,0.31324580825243226,0.22905189573822715,0.7312209443953465,-3.6725149237889063,21.437244639796383,66.38339981302195,0.3229308034866752,4470.728819875506,3.0966386272322954,4.357348437713196,822.2616002720356,0.4520547945205479,0.4722222222222222,0.7941176470588235,0.0,46.54688377316115,46.54684902850533,46.552138031944246,45.83333333333333,0.38289519910794734,0.6171048008920524,13.286390368120474,16.867336548890023,0.6012700778941803,0.3987299221058198,51.47475483701478,41.9178408938813,0.5805874913268911,0.4194125086731088,37.591079756671405,31.950058117773967,1.1477798907554522,2.5698631506452774,1.1748668739577166,2.416963058046055,-2.113374708377812,-3.08187789231374,-0.016668354975845515,0.009619991479293901,0.737551401577531,0.5095028597938027,1.4307461236907244,5.850716510905175,1.0878923613850084,0.6323396030897085,0.8867133254783338,1.5439002469818064,1.6592257919082216,1.7015188209022754,2.437429460729814,0.7631290552043858,Relax
75.86276745221315,791.0533333333333,40.674014991091,,,,,,,28.871804257459925,29.067963487245137,0.05141753820782122,0.03649792376931171,785.0,47.4432,0.060437197452229294,62.0,1.4087798125945525,753.0,826.6,10.666666666666668,49.333333333333336,723.0,881.0,10.714285714285714,23.4375,,,0.008440496900690174,0.017022465201817442,0.00042398917662996515,0.02588695127913758,0.4958445677885131,0.326052180099416,0.6575693297470656,-4.073221324855537,20.554154097113997,53.74525542373721,0.38243662505762355,3470.4805283063206,2.614812323085754,4.247359722027401,562.135024757518,0.4533333333333333,0.47297297297297297,0.8,0.0,49.52112676056337,49.548650580114106,49.49347393553843,44.5945945945946,0.42585717759584996,0.5741428224041502,13.413599723200576,15.574830415312825,0.6147050247708378,0.38529497522916206,42.13796060698943,33.36082667510746,0.5906074860275463,0.40939251397245363,31.269253122280038,26.03382510228102,1.019932257365376,1.6061442381311397,1.166434128972701,1.6987872586136359,-0.7326997030402076,-1.4090825281096988,-0.16855210322806077,0.0035129870236676173,0.25737941341769754,0.4824300899429619,1.209837923778334,5.7920868571337,1.1957925409093797,0.8061852360801497,0.6351298668357781,1.1305782538958162,1.618459612086245,1.7564847778873158,2.745917496267126,0.9135600746060626,Relax
76.21795995534085,787.4266666666666,39.472595123272114,,,,,,,29.661149400921463,29.859141113469114,0.0501285983752207,0.03766845937093164,780.0,42.9954,0.055122307692307686,53.0,1.3307844072302148,753.0,822.0,12.0,52.0,723.0,881.0,8.333333333333334,70.3125,,,0.009655938638924088,0.014163276920879762,8.486153746092867e-05,0.02390407709726478,0.6817587972659863,0.4039452600338613,0.5925046536308399,-4.25710279652418,21.113601161740046,51.97190452236284,0.40625028764637894,3447.313801204461,2.461536718640926,4.2444509280168505,511.72300527798615,0.4666666666666667,0.4864864864864865,0.8333333333333334,0.0,48.97959183673469,48.97024955985281,48.990515277426034,45.94594594594595,0.4205271565495208,0.5794728434504793,13.693814221947276,16.074739819790945,0.61670941813326,0.38329058186674003,40.81397765332716,32.17604835580825,0.5889111160285242,0.41108888397147564,30.440937237801123,25.433200231874903,0.9894471822240185,0.3213177191255825,1.1093597402786264,1.1501060417868096,0.5819730771017788,-0.4052041728498681,-0.3731899951889729,0.00010058996793497621,0.009975951460270064,0.5075499330153024,1.4733057381095203,5.691956523742676,1.2302702638457812,0.7706859126359051,0.7425740270917782,1.118927362694873,1.6271342724061828,1.8052361797565044,3.606257077964168,0.8305091587327841,Relax
75.63328466717293,793.2702702702703,43.5535561661786,,,,,,,29.598685642792013,29.798913845344305,0.05490380491801329,0.03731223361327738,784.0,43.7367,0.055786607142857145,62.0,1.4714692635949844,755.2,832.2,10.81081081081081,51.35135135135135,723.0,900.0,9.25,39.0625,,,0.012614544592511698,0.01768164486498399,5.07878380814625e-05,0.03034697729557715,0.7134259673710011,0.4156771354737256,0.5826492929680005,-4.035228190750386,21.07101405203666,57.80096438657633,0.36454433374350725,3826.2240215423158,2.743150578507135,4.289740503899656,634.2269955812287,0.44594594594594594,0.4657534246575343,0.7941176470588235,0.0,51.04395604395605,50.99739911989357,51.09035479045059,45.20547945205479,0.4654126403352411,0.534587359664759,14.377113371219165,15.408556425282386,0.5824067395985806,0.4175932604014195,44.11113987377924,37.35182489590231,0.5686791426650125,0.4313208573349878,32.80620406152627,28.570810577976772,0.9183887043964506,0.7267315522406097,0.9798666784546637,1.1396856235075816,-0.033348398962885106,-0.6279548600008642,-0.28008530858447667,9.568352928263902e-05,0.02589294931491589,0.46842536915565036,1.2431935174792175,5.756618568273179,1.151529596280535,1.2990456420871037,0.9149509478731123,1.2600367410802464,1.6638417293546401,1.7573822733659834,3.2328065510401247,0.7552037877116291,Relax
75.58336924185367,793.4666666666667,44.89306613929803,,,,,,,29.832414802911497,30.020072268160195,0.05657838952188459,0.03759756528681503,785.0,41.5128,0.05288254777070064,62.5,1.5048418452171926,756.8,838.2,12.0,49.333333333333336,690.0,900.0,9.375,101.5625,,,0.008628379742888773,0.017011108667975068,8.640049777837303e-05,0.025725888908642216,0.5072203059364655,0.33539675824341303,0.6612447378741673,-4.073888697274744,21.227396672526293,58.93225862799939,0.36019995104075164,3930.064647700398,2.7762358021166524,4.301369804334325,654.4393852105995,0.4533333333333333,0.47297297297297297,0.7714285714285715,0.0,48.03063457330415,47.84292765470591,48.2050977999198,48.64864864864865,0.43660603115794594,0.5633939688420542,14.033716737894208,15.941674513719375,0.5026542104590285,0.49734578954097136,41.78185797571978,41.560647866632074,0.4950618432001916,0.5049381567998084,31.166238635602717,31.47558130833773,1.0029420738752748,0.8094480812313121,1.1207942556401655,1.1545211756558778,0.44536677199509445,0.16293518496431325,-0.4583334363281118,0.00020688470117137571,0.037341198218755,0.42691530223293883,1.3217558399823195,5.835355023771521,1.1640748460198167,1.0546561306215325,0.8979734222584835,1.2284417660729072,1.8144451739036305,1.7285959430563445,2.501867378203956,0.7474582428595056,Relax
75.38308856246977,796.1891891891892,48.70055994605819,,,,,,,33.105270035291795,33.3331164376505,0.061167070097564516,0.04157965278202914,787.0,51.891,0.06593519695044472,75.0,1.471081791332349,756.6,845.2,16.216216216216218,52.702702702702695,687.0,900.0,9.25,109.375,,,0.02122115448497981,0.017729305745318738,0.00010618435182427948,0.03905664458212283,1.1969534955187437,0.5433430012237468,0.4539382718359239,-4.032536316723099,23.570072671143446,65.05904121047887,0.3622874274290271,4817.463722633164,2.7602393135652,4.389788562896016,718.314093008089,0.44594594594594594,0.4657534246575343,0.7941176470588235,0.0,50.53763440860215,50.521108712262375,50.55257583044527,47.94520547945205,0.5066308355727768,0.49336916442722323,16.77734086995513,16.556301250916857,0.5498474930926073,0.45015250690739295,48.24238645645928,43.650326370056185,0.5448329974263668,0.45516700257363313,36.11652681031935,33.011074682017956,1.175063081043383,1.1113425894623061,1.2077827027899968,1.3641464372240475,-0.5525306012050493,-0.4868265631181865,-0.35930195070657445,0.0003517050789795912,0.04990687153915971,0.4029115727402335,1.1962507582320256,5.864726676381287,1.1287462507358754,0.9267965844942518,0.5348211005999334,0.7638790144761362,1.9414158251144702,1.7454500552814494,2.797604378189932,0.6712922557436702,Relax
75.6419359211674,793.2432432432432,48.6977850501369,,,,,,,33.80889078172206,34.007794119625,0.06139073413475521,0.042621088890075515,782.0,45.9606,0.05877314578005115,75.5,1.4403839914341157,754.8,844.4,17.56756756756757,51.35135135135135,687.0,900.0,9.25,78.125,,,0.02388562996200447,0.025633428140321487,9.933839828325003e-05,0.04961839650060921,0.9318156678556887,0.4813865752737738,0.5166113769921357,-3.6638579925633756,24.04714183518283,64.26602193494213,0.37418127201845897,4855.0617235941245,2.6725014712940216,4.393164865533504,687.0041527013868,0.44594594594594594,0.4657534246575343,0.7941176470588235,0.0,47.15157680569685,47.2121509747192,47.09498843194732,50.68493150684932,0.4592291651686201,0.5407708348313799,16.312699551780714,17.701812524898877,0.5246907534855059,0.4753092465144943,46.55144037893116,44.30671477315016,0.5166364761191576,0.48336352388084247,34.87936903113249,33.73750984183591,1.224061715239336,1.2497110563735108,1.261215845648767,1.570389922975512,-1.0540983943471325,-1.2580382563208037,-0.252603551236935,0.0005059055969008254,0.07413689821404273,0.44804690058730756,1.1394342831883646,5.864726676381287,1.118077664287665,0.8966501512483795,0.5767352480350759,0.7675283643313483,1.8047957921142894,1.6992298210823042,2.2390582476318057,0.6712922557436702,Relax
75.5337569436185,794.6486486486486,50.217181045150646,,,,,,,33.05081185664827,33.243663636758086,0.06319419422728297,0.04159172976994714,782.0,51.891,0.06635677749360613,80.0,1.5193932682488498,754.8,846.6,14.864864864864865,50.0,687.0,900.0,9.25,109.375,,,0.051155148152914415,0.03675075954191205,0.00031790880442320913,0.08822381649924968,1.391948051973593,0.5798337703215263,0.4165627944946658,-3.303596385729737,23.506819989036284,66.55148869018448,0.353212534410267,4914.751104335055,2.8311566056669717,4.39847163889477,753.6707472887462,0.43243243243243246,0.452054794520548,0.7272727272727273,0.0,52.89855072463767,52.76792164888441,53.02916448334736,46.57534246575342,0.5220586391111335,0.4779413608888667,17.002859236676112,16.268579122549905,0.570725285344556,0.42927471465544415,50.27722874731866,43.60390941612403,0.5653167836516151,0.43468321634838497,37.52930157045577,32.90871908048243,1.2613554019262594,1.0226594346461662,1.2901579091777384,1.4587590967975692,-0.5908508080994714,-0.7150210240515191,-0.3351345698207285,0.00029711501121161175,0.04198610780165695,0.505733841213067,1.1786549963416462,5.783645595300207,1.122886862040393,0.9257107018452992,0.7288637891179475,0.7347121529569582,1.886227633913021,1.689182284032791,2.8075809144611865,0.6712922557436702,Relax
75.90117600447648,790.7432432432432,49.133327363719566,,,,,,,32.8981408476661,33.0602685204206,0.06213562718816112,0.04160407455741761,780.5,49.6671,0.06363497757847533,67.5,1.4934986019796692,749.4,841.8,14.864864864864865,47.2972972972973,687.0,900.0,10.571428571428571,78.125,,,0.05275397390636086,0.0320539212110931,0.00035985909699074586,0.0851677542144447,1.645788468716394,0.6194125275809331,0.3763621749422232,-3.4403357564192305,23.377140058637554,64.67531746731294,0.36145381227471235,4749.849189092557,2.7666052094091054,4.383649930663568,715.7242809010227,0.40540540540540543,0.4246575342465753,0.6774193548387096,0.0,46.086054950751674,46.13323245592703,46.04050764970874,52.054794520547944,0.4494918171807562,0.5505081828192441,15.704077672870685,17.379345979255568,0.5091914959772338,0.4908085040227665,46.1507900565479,45.31005701446596,0.5022688670714262,0.4977311329285738,34.471100057868156,34.31503266296582,1.2983403732561933,0.6194382921704396,1.3096693026233284,1.4028146376435897,-0.05018788331337909,-0.4833997913979511,-0.34962935582511223,0.00014300701139369044,0.014922022275249289,0.45518567607042737,1.0986122886681096,5.847900831815929,1.1124516007691283,0.8234437518530995,0.5699315822817,0.8509909123167633,1.925501314661807,1.7021142680586188,2.157752651135507,0.6712922557436702,Relax
75.84302231635444,791.0945945945946,49.0898446432016,,,,,,,33.37499679339167,33.57414725312817,0.06205306543442918,0.04218837673956686,780.5,51.891,0.06648430493273542,70.75,1.4708569096528428,749.4,843.8,13.513513513513514,52.702702702702695,687.0,900.0,10.571428571428571,125.0,,,0.04958227530290394,0.022338919477215634,0.0001779935592607017,0.07209918833938028,2.2195467132362827,0.6876953325675971,0.3098359356288926,-3.8014248536900586,23.740507195242625,65.1345828948715,0.36448390609271686,4857.932791261096,2.743605364417988,4.393421612076364,714.8143641579902,0.40540540540540543,0.4246575342465753,0.6451612903225806,0.0,52.652652652652655,52.63849533179405,52.66158223259902,47.94520547945205,0.5189020340900705,0.4810979659099295,17.11764846259231,16.482313753434823,0.5439941596472218,0.4560058403527783,48.04063673368389,43.98421434004603,0.5410466950577548,0.4589533049422451,36.06186813426799,33.21353472439946,1.3588044446288092,0.39251209572136947,1.3588044446288092,1.3863741124570246,0.32586597165366804,-0.1910510258523992,-0.4297609726458313,0.00021951514926855402,0.00920817031726519,0.4627167660354057,1.1786549963416462,5.804047960223544,1.1706295669164057,0.8962649429312033,0.6277824977687971,0.8413337397667023,1.8914411100685475,1.733536228070613,2.474338233827299,0.5873807237757115,Relax
75.72558739054175,792.4054054054054,49.767106625643706,,,,,,,33.773419069090984,34.001482866759034,0.06280510744393795,0.04262138904998009,781.5,53.373599999999996,0.06829635316698655,77.0,1.4735584372975121,754.0,846.6,14.864864864864865,51.35135135135135,687.0,900.0,10.571428571428571,125.0,,,0.05413680020928478,0.025011302547845206,0.00023742071147706968,0.07938552346860707,2.164493436746213,0.6819480157574715,0.315061253677264,-3.6884274543674063,24.042679105483526,65.91765451349221,0.364738085463317,4978.912323002571,2.7416933954942677,4.404104588522561,722.903992104458,0.40540540540540543,0.4246575342465753,0.5806451612903226,0.0,48.86649874055416,48.7785017043149,48.951280821408396,50.68493150684932,0.4823519521539146,0.5176480478460854,16.700798384109266,17.301051670025405,0.5264260817447591,0.47357391825524064,47.8267031949729,45.362359264704146,0.5212496464169907,0.47875035358300944,35.82115440048448,34.329797748814215,1.3498854681094024,2.358074498296175,1.648815590168211,1.9008933179956,-0.8998872256537389,-0.1898035400381728,-0.39310018491378135,0.0024198623582497953,0.3409187896858039,0.5143917538725828,1.8607523407150064,5.783645595300207,1.1615127490173145,0.8117616754587242,0.7752541475067041,0.9448158692759602,1.8010211132082141,1.6896265046505403,2.6181650057096912,0.6712922557436702,Relax
75.66717542886394,793.2567567567568,49.07306847560335,,,,,,,33.99053051047544,34.2227349286546,0.06186278031370245,0.04284934256273628,784.0,55.5975,0.07091517857142857,76.25,1.4437276423349636,754.6,846.6,14.864864864864865,54.054054054054056,687.0,900.0,10.571428571428571,125.0,,,0.050051301257344354,0.02268478194182023,0.00027270888940887503,0.07300879208857346,2.2063822956601995,0.685551696248072,0.3107130154173665,-3.7860609783514563,24.199127938801386,65.41384180853625,0.36993894976588115,4973.008994069669,2.7031487239525824,4.4035893546497356,707.2933720543233,0.40540540540540543,0.4246575342465753,0.5806451612903226,0.0,50.822942643391535,50.84594441283626,50.79774666293117,47.94520547945205,0.49595096097983177,0.5040490390201681,17.043449377008947,17.18203195847983,0.5389791525127783,0.4610208474872218,48.02370249777755,44.41502784595728,0.5337986036328246,0.4662013963671754,36.03300687051882,33.674299701548236,1.3900747738136274,2.3296824260182785,1.7445777352651408,2.036349955117114,-0.5770346470653802,-0.20287801261142757,-0.3747588012025104,0.004184027193109184,0.4196873273474777,0.4967511317655635,1.7047480922384253,5.800471439865564,1.1890085907957477,0.8617473325063587,0.7658533083557649,1.1320574045784682,1.7823735547032524,1.6714717140935575,2.600428593723615,0.6712922557436702,Relax
75.4860405484765,794.9864864864865,49.114764469108266,,,,,,,35.290768710307,35.53133331131491,0.061780628103724554,0.04439165861331517,789.0,54.856199999999994,0.06952623574144486,74.0,1.3917170485086046,750.2,846.6,14.864864864864865,59.45945945945946,687.0,900.0,10.571428571428571,140.625,,,0.04926566776606464,0.017651205748323205,0.00020577267202297504,0.06712264618641083,2.79106529426437,0.7339649219020006,0.2629694559315026,-4.036951183583561,25.124446729030236,65.05660513849548,0.3861936336140529,5134.968410091809,2.5893746373855597,4.417507886158961,673.8236933601092,0.40540540540540543,0.4246575342465753,0.5161290322580645,0.0,50.87470449172577,50.90516101771021,50.842520244938605,47.94520547945205,0.4964088124333184,0.5035911875666816,17.7035777928267,17.831191460160166,0.5466491437608431,0.45335085623915694,48.10007269739532,43.80348021163849,0.5401273712174989,0.4598726287825011,36.24247273684138,33.44171248261887,1.37506650861004,1.064546176943992,1.4797126117673995,1.8082328433724761,-0.5226282235253024,-1.2725218718288431,-0.19139879629443188,0.000463872254489189,0.07659625025720015,0.48425393796371896,1.6341305250244718,5.901954885869983,1.2238084698445777,0.9578387755901728,0.0,0.0,1.7970807462601703,1.6953382509131438,2.619974855478662,0.7552037877116291,Relax
75.60691419099953,794.1756756756756,49.062263518839025,,,,,,,34.43894736908216,34.67392135190089,0.06177759533757743,0.0433643945840848,789.0,54.1149,0.06858669201520913,76.25,1.4246156536969266,752.0,846.6,13.513513513513514,56.75675675675676,687.0,900.0,10.571428571428571,171.875,,,0.0525699388610763,0.019242573432403626,0.00024836324575847334,0.0720608755392384,2.731959893293217,0.7295212342021996,0.2670321903308781,-3.9506300884059504,24.518164918258137,64.86376954583801,0.3779947587062699,4996.202342350405,2.6455393281711466,4.405610128612398,686.3986132277774,0.3918918918918919,0.4109589041095891,0.5,0.0,49.14509037616023,49.088724750375356,49.200338068391055,47.94520547945205,0.4854182788371582,0.5145817211628417,17.083943078549257,17.58965131358019,0.5428895824641271,0.457110417535873,47.79230072916,43.85435657616148,0.5357034434597205,0.46429655654027935,35.88847391640928,33.41107918073323,1.3555029840158803,1.2811185351171037,1.5170388251938702,1.8408375900970535,-0.6301927311900677,-1.2815967535307191,-0.24725307922144327,0.0005149465414233687,0.10633227967648747,0.49331517867895913,1.6314168191528755,5.864726676381287,1.212834156751434,0.0,0.4078542047882189,0.8102136828967439,1.8308752456980046,1.7040748047961043,2.71722838502745,0.9230268516475466,Relax
75.9763195233938,789.8108108108108,50.83216425277652,,,,,,,33.318512686961775,33.489423351379386,0.0643599246262441,0.042185435082557766,782.0,60.0453,0.07678427109974424,78.0,1.5256432581598458,744.4,846.6,12.162162162162163,54.054054054054056,687.0,900.0,10.571428571428571,171.875,,,0.04727330557683425,0.02791412683492223,0.00031826751501467154,0.07550569992677114,1.6935262154678088,0.6260892306498986,0.36969562380051596,-3.5786223801314776,23.680598349787477,67.01355953342143,0.3533702509561119,4985.45994384932,2.829893001163243,4.404675341187447,758.5648124266626,0.4189189189189189,0.4383561643835616,0.53125,0.045454545454545456,46.264811952601754,46.42411565155937,46.101727486804236,47.94520547945205,0.44052863436123335,0.5594713656387664,15.745369689742652,17.744130484942527,0.5399498531302499,0.4600501468697501,49.24242141385846,45.45328475082295,0.5288782417925951,0.4711217582074049,36.55634509470752,34.502574261249414,1.3600906151518157,2.4266601217335353,1.6669754371164835,2.0188507455470495,-0.8404405709914915,-0.3143944968022119,-0.35499604774516325,0.004469950984982109,0.43424466292221475,0.5875457764635104,1.55814461804655,5.810672622327234,1.1420756773222027,1.1427436640990978,0.6641892266786649,0.9651824277601488,1.8356847200446442,1.7055943389449209,2.0619347490613524,0.7552037877116291,Relax
76.66019365366466,782.8421052631579,47.35709806187564,,,,,,,33.88608367260322,34.11389508452293,0.06049380551133771,0.04328597484062533,775.5,51.891,0.06691295938104448,73.75,1.3975382496078674,740.0,827.0,11.842105263157894,56.57894736842105,687.0,899.0,10.857142857142858,70.3125,,,0.04760914628529421,0.025341779777412258,0.0002746312879986252,0.07322555735070509,1.8786820303651046,0.6501711698454663,0.3460783460621654,-3.6753008706671606,24.122166546952595,62.94767167552243,0.38320982976615225,4770.301790196694,2.6095364010109923,4.385515965243232,657.0569623846575,0.4342105263157895,0.4533333333333333,0.5882352941176471,0.041666666666666664,49.707602339181285,49.70680656846856,49.70913788219869,46.666666666666664,0.49837436135624713,0.501625638643753,17.0293863659264,17.08484392354498,0.5787668121237123,0.42123318787628783,47.88852721726821,40.85459986746083,0.5684726629066065,0.4315273370933937,35.93960934010718,31.31285855860354,1.2513685066708116,0.8023675754741983,1.339858540587075,1.464330443106629,0.15911519010244568,-0.3445031678413377,-0.34486922661849684,0.0001797611817868568,0.03545325775428839,0.5673170601811135,1.589235205116581,5.777211230406514,1.2262000540309708,0.0,0.5705955964191316,0.9171691866991042,1.826762077394463,1.7820426893019163,3.165901689437112,0.8220957254531033,Relax
76.501749490502,784.7866666666666,46.93045266548563,,,,,,,33.61225645183292,33.828289973298766,0.05980026758713914,0.04282980060632136,775.0,51.891,0.06695612903225806,74.5,1.396230352244812,741.6,827.2,10.666666666666668,60.0,699.0,899.0,9.375,125.0,,,0.052235479273735896,0.019092578755096522,0.00018617102400685076,0.07151422905283927,2.7359048740229652,0.7304207843049108,0.26697594322088974,-3.958455566287025,23.920213236064452,61.54237785860787,0.38867872949304244,4624.759912679445,2.57281894819485,4.372059301889833,633.3495834863742,0.41333333333333333,0.43243243243243246,0.5625,0.043478260869565216,48.2707509881423,48.13868163870229,48.396776719413324,47.2972972972973,0.46800392325726037,0.5319960767427397,16.370496348154244,17.45385305029723,0.5419614940211395,0.45803850597886064,45.306288698935305,41.65098410386478,0.5322483250159838,0.46775167498401643,34.063565185959355,31.93306642903063,1.177022599690508,1.9701998545845916,1.366201826821388,2.0538651303575866,-1.0958871468772795,-1.7936564740550223,-0.15096774221354844,0.00634108255415938,0.4292218039600521,0.5719719704094546,1.504077396776274,5.7352246903804955,1.2033392568537107,0.9516656224425799,0.5493061443340548,0.9253254935281234,1.7737911510541142,1.8037958837375327,2.7611958136257626,0.9135600746060626,Relax
77.33897433204291,776.8421052631579,51.20730485170488,,,,,,,45.95026296624065,46.243565902592195,0.06591726234298054,0.05915006750396831,768.5,47.4432,0.06173480806766428,70.25,1.1144072208972242,737.0,823.0,11.842105263157894,60.526315789473685,672.0,944.0,10.857142857142858,78.125,,,0.034286239605629744,0.04100318638228095,0.0004482298397366094,0.0757376558276473,0.8361847610078944,0.45269739643980217,0.5413844135285889,-3.1941054986566124,32.69913903596995,61.513922836238486,0.5315729761377948,6319.163817327011,1.881209250450646,4.507629724075419,462.8822426841563,0.40789473684210525,0.4266666666666667,0.53125,0.045454545454545456,51.97568389057751,51.62621212397468,52.36407246295652,46.666666666666664,0.6707313222655138,0.329268677734486,26.789343383497084,18.76994434756829,0.5458169477986113,0.45418305220138877,45.44613265144761,41.45614224369809,0.5733524718580666,0.4266475281419333,37.302948220562214,32.178584031468354,1.1829194919640729,1.8898981559944628,1.3513331230584578,2.072955555266737,-0.9583801896730577,-1.8092177768243785,-0.11816861404970139,0.007805704620646004,0.4512431012766222,0.6094094888452193,1.6259672143853108,5.823392480463448,1.1796851343915757,0.9821380768448391,0.7702832479898837,1.4168665502769813,1.8008079395833025,1.8013809825273923,2.4337351430771768,0.986514870543724,Relax
76.98612689308207,779.4736842105264,47.79999265947239,,,,,,,32.48281596988373,32.70155518796793,0.06132342069750002,0.04167275512679209,775.5,53.373599999999996,0.0688247582205029,75.25,1.4715470698042281,738.0,824.0,9.210526315789473,61.8421052631579,672.0,893.0,9.5,148.4375,,,0.047297288073781335,0.03452138500944081,0.0005076534903785151,0.08232632657360066,1.3700866306739028,0.5745098808884304,0.4193237624732145,-3.3661762916296873,23.12349142875824,63.570464556773246,0.36374583055165827,4618.050384561323,2.7491724055871547,4.371428776875037,699.064667879349,0.3815789473684211,0.4,0.5666666666666667,0.045454545454545456,49.97528423133961,49.97770467563776,49.972412461967316,44.0,0.47287546597586405,0.527124534024136,15.901087843119242,16.788429091232786,0.5880371205048963,0.4119628794951037,48.74810706419626,40.8022796130513,0.5745804297954368,0.4254195702045631,36.25756843017011,31.198376343753633,1.2770799192955644,1.453551133049776,1.3369172115475745,2.0038554858204525,-0.6232495491861556,-1.656020333969163,-0.04116627952844159,0.007212985848115568,0.3263682842335747,0.5756365445887286,1.6486586255873819,5.744445112042396,1.184341787271006,0.9614708007309003,0.7227779876203455,0.8145241345053705,1.7882445221761962,1.724595779576407,2.4876209872163835,0.986514870543724,Relax
77.34307313535415,775.7236842105264,43.875155820186144,,,,,,,32.62575669620553,32.8449976994043,0.056560289073601,0.042058476955501994,774.5,45.9606,0.05934228534538412,61.5,1.3448011713177814,738.0,818.0,9.210526315789473,65.78947368421053,672.0,893.0,9.5,101.5625,,,0.04935849412547824,0.024596674252432688,0.0006330463413672426,0.07458821471927816,2.006714144315528,0.6617465548846416,0.3297662284183268,-3.7051440381737573,23.22492060130533,57.29163107288002,0.4053806841659156,4180.183024597098,2.466817090847665,4.328165407246977,565.3118987724783,0.3815789473684211,0.4,0.5333333333333333,0.045454545454545456,50.317537860283345,50.300254168017744,50.33463146572531,42.66666666666667,0.47211053073290493,0.5278894692670951,15.958137803708869,16.874537030686206,0.5885190955354715,0.41148090446452845,43.95127377068912,36.75073502564166,0.5720888454851667,0.4279111545148334,33.06339840539859,28.59516152188098,1.2125788894535983,1.6876026907587118,1.3744580757095157,2.0563802348329543,-0.8919147983365043,-1.9229936194299064,-0.09592256941895481,0.008322753302895438,0.41693626648389776,0.542306507764768,1.5533484457830569,5.6918135330950275,1.2499477426369152,0.0,0.48970338847280537,0.7643564606398328,1.783318320313429,1.7399380643209932,2.52390611982152,1.0687244430890344,Relax
76.85075969758581,780.5733333333334,48.38085765452476,,,,,,,33.8188736686516,34.048022905216754,0.06198118176535806,0.04332568411507558,777.0,45.9606,0.05915135135135135,64.0,1.4305874917227475,739.8,824.6,9.333333333333334,66.66666666666666,672.0,906.0,9.375,101.5625,,,0.0434026387587621,0.03651996991286817,0.0009219342315960306,0.0808445429032263,1.188463157618012,0.5368654110731574,0.4517307984112648,-3.3098960471092638,24.075587882273663,63.75854945539503,0.37760564015209835,4822.421882848271,2.648265528018075,4.3902353113118835,675.3982745566329,0.4,0.4189189189189189,0.5806451612903226,0.043478260869565216,49.39467312348669,49.434669037424186,49.353835935789235,41.891891891891895,0.4534058013824068,0.5465941986175932,16.212205785714545,17.800454049926973,0.5220518284156122,0.47794817158438796,46.06756301974768,44.07870535845658,0.5134845796233752,0.4865154203766249,34.53299855947048,33.613899137568005,1.2178557700060253,0.8984049382046899,1.4376792943938668,1.632097905903719,-0.6719571362697874,-1.6719571362697874,-0.28359578933485713,0.0012851669092659426,0.08883489841112899,0.5974479975606881,1.5755363607584192,5.665289857076006,1.1837673489188394,0.6229567731581436,0.7096001707281367,0.7604683573879616,1.7758569004464553,1.736923441460756,2.308878794412415,0.9135600746060626,Relax
77.31465510070451,776.2,46.32143861837277,,,,,,,33.389592163799556,33.61680526828451,0.05967719481882603,0.04301673816516304,775.0,44.477999999999994,0.05739096774193548,60.0,1.387301719384093,738.8,813.2,8.0,64.0,672.0,906.0,8.333333333333334,101.5625,,,0.04583846860872133,0.041190931292309545,0.0008176963283965265,0.0878470962294274,1.1128291390993506,0.5217983357014613,0.4688934872102378,-3.189537161119688,23.770670967031627,61.50851402283506,0.3864614735808242,4593.318372975868,2.58758005224772,4.36909665832652,636.6328157155486,0.41333333333333333,0.43243243243243246,0.625,0.043478260869565216,50.39331366764994,50.39815705465824,50.386785724727325,41.891891891891895,0.4745090909090909,0.5254909090909091,16.37467975217535,17.23189937773499,0.5020554885326638,0.49794451146733626,43.582395217093115,43.40359575471134,0.4984758445590415,0.5015241554409582,32.920778467748924,33.02128465552771,1.1794725840456177,0.9821313648359928,1.3275535765113373,1.6452843351373618,-0.8324045387558385,-1.8324045387558385,-0.17648853299875755,0.0014163311848911294,0.10109861033595323,0.6191697667242302,1.4718165345580525,5.702021690438189,1.2133774029242244,0.5970268166080519,0.6785674648630132,0.6927748796720784,1.7844234869863829,1.76198430528491,2.679512806389373,0.9135600746060626,Relax
76.85360944235444,780.8684210526316,46.72139898169807,,,,,,,35.20056817723259,35.43754816320988,0.05983261420498523,0.04507874467478308,777.5,42.2541,0.05434610932475884,57.75,1.3272910467370538,743.0,818.0,10.526315789473683,67.10526315789474,672.0,906.0,7.6,101.5625,,,0.04574324342511887,0.02420810190780962,0.0006898069098132038,0.07064115224274169,1.8895840574085627,0.6475438462262476,0.3426912095746142,-3.7210679122701125,25.058130614830585,61.58859143213614,0.4068631873557604,4848.404135329972,2.45782865365404,4.392568922941108,605.4968190403837,0.40789473684210525,0.4266666666666667,0.59375,0.043478260869565216,50.114521300962004,50.120298455004054,50.10787162033441,41.333333333333336,0.4649040686100441,0.5350959313899559,17.085634870232916,18.330118473246245,0.5197837013932352,0.4802162986067647,44.40292710098215,42.67944071165248,0.5119892954782163,0.4880107045217837,33.64178097287697,32.844542185138636,1.2394624636574616,0.5460471591935594,1.4222155138017003,1.4489579553801226,0.06895284889151654,-0.9310471511084835,-0.45102539931181507,0.0009089889752370003,0.0432241624112049,0.5872288097338161,1.4508328822574617,5.75437784233402,1.2230331232698768,0.6373612927313929,1.1051267888104865,1.1905641122410004,1.7403114625117326,1.7650194524834533,2.761413264699919,1.0687244430890344,Relax
77.17367087599226,777.76,48.2271763691442,,,,,,,34.58557737210935,34.81893717193337,0.06200778693831542,0.04446818732270797,775.0,47.4432,0.06121703225806451,62.5,1.3944302808729678,738.8,818.0,10.666666666666668,65.33333333333333,672.0,906.0,8.333333333333334,101.5625,,,0.05240284681108258,0.02908622317211872,0.0008143466331905615,0.08230341661639186,1.8016380642129761,0.6367031766776718,0.3534023782716913,-3.5374906474196823,24.620706587982433,63.93568304230927,0.38508553309252586,4945.311977454694,2.5968256765432067,4.401163804441649,664.1192934863873,0.37333333333333335,0.3918918918918919,0.5172413793103449,0.047619047619047616,50.76117982873454,50.796502323553206,50.72409009977831,41.891891891891895,0.4733946405169687,0.5266053594830313,16.941276496033836,17.868047551080426,0.5241903640531816,0.4758096359468184,46.29006875554622,44.102166621306,0.5176296852430374,0.48237031475696246,34.8552529377443,33.64720065608065,1.2663908331215241,0.2964667521116253,1.4210825212089828,1.2728491451531703,1.3465581935287938,0.3537610373604678,-1.0,0.0002356971658108475,0.015328583137613058,0.5312318913247664,1.3682758556172123,5.845420190467033,1.1674687215112094,0.0,1.0933209005327802,1.2889169490236616,1.7415519404413324,1.737021140313797,2.429733666230092,0.9135600746060626,Relax
76.64666701888895,782.5066666666667,50.75920189065798,,,,,,,34.947450898804114,35.150588405247184,0.06486743698540329,0.04466089860636431,778.0,50.4084,0.06479228791773779,68.5,1.4524436142034878,740.4,827.2,12.0,65.33333333333333,672.0,906.0,9.375,101.5625,,,0.049152292199455105,0.031040808122739932,0.000667182514306516,0.08086028283650155,1.5834733427396508,0.6078669338671546,0.3838820126996593,-3.4724525491239353,24.855219424047515,66.99430258644982,0.37100497302698543,5231.248425585467,2.6953816598228295,4.4255754545923836,722.3008580165518,0.4,0.4189189189189189,0.6129032258064516,0.047619047619047616,52.71535580524345,52.64742695266315,52.77897914408547,41.891891891891895,0.4995906083338867,0.5004093916661134,17.58579750743772,17.600202364963625,0.543615903351547,0.45638409664845286,49.39510889119382,45.258809050525215,0.5382798048230911,0.46172019517690915,37.07517401405891,34.33749350170724,1.2322744018039153,0.10882257429777198,1.2594066708618499,1.2538328798567253,0.8853066832168146,-0.04908966456261199,-0.5512190695826856,8.639545366670282e-06,0.0007211801735222308,0.48206830322142125,1.4271163556401458,5.898753523800367,1.1560314122999702,0.0,1.127403355668788,1.2907518628904815,1.7799180388410076,1.6880795992262623,2.5908509052906905,0.8305091587327841,Relax
76.48133829838109,784.64,50.97260525504348,,,,,,,36.39349511226541,36.64142265425976,0.06496304707259824,0.046382411185085404,780.0,54.856199999999994,0.07032846153846153,74.5,1.4005965928198139,741.8,828.4,14.666666666666666,66.66666666666666,672.0,906.0,9.375,101.5625,,,0.053502036447413165,0.020168579156888553,0.0006437483714522811,0.074314363975754,2.6527419721155523,0.7199420621411613,0.27139543525486953,-3.9036293728840534,25.90939843114946,67.73586186503451,0.38250636690464823,5513.48075983149,2.6143355680384834,4.448395973335068,708.3370916220049,0.4,0.4189189189189189,0.5806451612903226,0.045454545454545456,49.685534591194966,49.6803053852543,49.69092603255295,44.5945945945946,0.45790311390442,0.5420968860955803,17.532748223652007,19.076629896791992,0.5151150498899576,0.4848849501100424,48.61505488883007,47.16697383503711,0.5078125473998444,0.4921874526001558,36.54326765710706,35.97666764011262,1.363898718974238,1.616771475900733,1.513575416312746,2.0171900751578407,-1.159013105934731,-1.7727053378885111,-0.18850597233321317,0.0014748796673864325,0.19140944466944326,0.45079966674016747,1.3862943611198904,5.952086857133701,1.1678346643011448,0.833051127543801,1.0864216133840852,1.2035563710850712,1.804131174780609,1.6789654549247146,2.9406622801765248,0.9135600746060626,Relax
75.8741287881271,791.1081081081081,50.09021110383254,,,,,,,37.95310733213268,38.206799302448715,0.06331651842580724,0.04797461553376752,789.0,53.373599999999996,0.06764714828897338,63.25,1.319792096744186,749.6,831.6,17.56756756756757,67.56756756756756,672.0,906.0,9.25,109.375,,,0.05155554281085363,0.018426497722507654,0.0006186356087803774,0.07060067614214166,2.7979024330749196,0.7302414881559476,0.260996051729154,-3.993965556693012,27.016286874194936,65.79060228143554,0.41064051608200974,5583.922655280186,2.4352200059097147,4.453909504065138,640.8583635064045,0.3783783783783784,0.3972602739726028,0.5172413793103449,0.0,51.31118881118881,51.34525563277164,51.27352340563133,42.465753424657535,0.4693396226415095,0.5306603773584906,18.512758363415816,19.685019685029527,0.5408467990968916,0.45915320090310846,48.383913610473016,44.580267521497866,0.5305246021749176,0.46947539782508246,36.63144358667795,34.459398226669,1.3637696646468402,0.6691436987462946,1.438083314608615,1.6315498827028314,-0.07459273944950162,-0.9190628079002492,-0.21087440790865283,7.336464543006929e-05,0.02498219357964408,0.4698500901282987,1.4816045409242156,5.912156068331651,1.2012082105026758,0.5994738181995927,1.0345485001202424,1.0979626985352178,1.8220543830025386,1.7132534176050382,2.6627780557291536,1.174761447551423,Relax
75.52350557177735,794.5,50.63385894076094,,,,,,,36.501829565705826,36.75444039689475,0.06373047066175071,0.04594314608647681,794.5,49.6671,0.06251365638766519,60.5,1.3871594805848424,750.0,834.4,16.216216216216218,62.16216216216216,672.0,906.0,10.571428571428571,117.1875,,,0.047016291862534566,0.03584920137197982,0.0005783781170657904,0.08344387135158018,1.3115017925973405,0.5634481130967351,0.4296205436218767,-3.328433989116865,25.989314043361063,67.02049369664822,0.3877815964918925,5472.078416746296,2.5787711666737323,4.445122422306195,691.3220668846201,0.36486486486486486,0.3835616438356164,0.4642857142857143,0.0,50.0,50.00691509763059,49.99246265152886,43.83561643835616,0.43855897351538076,0.5614410264846191,17.21110752456745,19.473628891971373,0.5391366420226612,0.46086335797733874,49.210417245202514,45.49814732377067,0.5259893387454507,0.47401066125454927,36.86385348596337,34.99502559020183,1.3100247939296412,0.9487453948493201,1.438016901245967,1.6483078710561658,-0.3207532329991256,-1.0012559080650094,-0.2783483630573012,0.00012280707934057567,0.048664330642581195,0.5028650795679952,1.5639755383573433,5.912156068331652,1.1897047238643645,0.8099687340602787,0.9246984246927357,1.0970977503670925,1.9231416803742345,1.714199479528805,2.5894314505507174,1.0069383836155055,Relax
75.35157443814104,796.3783783783783,45.630350000519805,,,,,,,36.12857556841592,36.37847516181697,0.05729732403513313,0.04536609298959442,790.5,52.632299999999994,0.06658102466793168,65.0,1.262998866758823,752.4,834.4,14.864864864864865,63.51351351351351,710.0,906.0,10.571428571428571,85.9375,,,0.05583120818800893,0.03402730354878432,0.0005621350635688501,0.09042064680036209,1.6407767400071755,0.6174608362543293,0.3763222754191585,-3.380592031082056,25.723466476147166,58.95125427433671,0.43635147025778176,4764.007273645116,2.2917305616255486,4.384942525850097,540.4015642666247,0.3918918918918919,0.4109589041095891,0.5,0.0,50.162112088930066,50.18403808695642,50.14041068669863,42.465753424657535,0.42263735110458095,0.577362648895419,16.723029696266828,19.545886182689866,0.583062045687447,0.416937954312553,45.01429324270919,38.06525691988548,0.5574022727109809,0.4425977272890191,33.95545845930251,30.257275579962215,1.279917026361101,1.8592049927105991,1.4449780743022012,1.9638124510732644,-1.7060854288206304,-2.067993109141706,-0.22093750887865427,0.0010446148371923512,0.20453771143361812,0.488372112739591,2.028148247292285,5.8851290413046256,1.2364010715661564,1.1427436640990978,1.0855403289654342,1.2925332595368586,2.0682771498008146,1.749056431653038,2.4700072858893996,1.0069383836155055,Relax
75.10001224929128,798.8513513513514,49.451424188927234,,,,,,,41.040574644165105,41.292530309497025,0.061903161464613304,0.05137448234235334,793.5,47.4432,0.05978979206049149,58.25,1.2049398581205766,757.6,834.4,16.216216216216218,63.51351351351351,710.0,990.0,12.333333333333334,179.6875,,,0.051896822625146,0.016776996955947764,0.00048652121653614184,0.06916034079762991,3.09333206421949,0.7503841367265859,0.24258117820788275,-4.087746559635878,29.198228194196393,59.30028965460659,0.4923791833777022,5439.552663838432,2.0309550723489944,4.442533295760211,481.7448962631514,0.4189189189189189,0.4383561643835616,0.53125,0.0,47.41000877963127,47.77692156954265,46.99286932196187,45.20547945205479,0.35280913497511307,0.6471908650248868,17.356554957709783,23.50768195954486,0.5239585245293151,0.476041475470685,42.924502461091926,40.91468491370741,0.4905203280299952,0.5094796719700049,32.73960072704222,33.3663194906111,1.2688414798108043,1.579644144379297,1.3559180637474961,1.8619155251112347,-1.6806170544730286,-2.1301802675694885,-0.17967629724442497,0.0008561600355360585,0.14330270210616458,0.4808477498874759,2.456735772821304,5.874927858842956,1.2014786835111166,1.1898111666575872,0.9716079964565436,1.3148335186465132,2.1598792126439976,1.7460537944311036,1.9553675405834199,1.0908499155834641,Relax
75.20488251144795,798.0540540540541,48.643205298331935,,,,,,,37.59626912414043,37.8541923468775,0.06095226889861425,0.047109928122229604,790.5,43.7367,0.05532789373814041,60.0,1.293830649464585,757.6,834.4,17.56756756756757,60.810810810810814,710.0,929.0,10.571428571428571,132.8125,,,0.05287390297350513,0.027804724383207535,0.00047453158555192437,0.08115315894226459,1.9016157917910508,0.6515322836800674,0.3426203581673125,-3.582549330882027,26.766956104816988,63.780770471101754,0.4196712568241042,5363.380647705201,2.3828174642399382,4.436408730592864,607.9117350448809,0.40540540540540543,0.4246575342465753,0.5161290322580645,0.0,49.31192660550459,49.29993473214907,49.32482366254744,47.94520547945205,0.4387405024034734,0.5612594975965266,17.73081905734883,20.05426665602886,0.5169059082437294,0.4830940917562707,45.85593037464603,44.33080567013172,0.505199489316383,0.4948005106836171,34.764553031563835,34.404897489122774,1.3007681929801027,1.7714710083073184,1.4347767995070089,1.93573020896411,-1.6989662370243188,-2.0264181790649447,-0.21721049505869494,0.0009398685537642162,0.17827584067979466,0.477286091689614,2.772588722239781,5.783645595300207,1.2418270430641931,1.1796247178237738,1.1072982888579452,1.5137511667443828,2.2178713117188393,1.7241248784561587,2.8869019593255674,1.0069383836155055,Relax
74.73803516750641,803.1232876712329,58.58278691197977,,,,,,,35.11172643623969,35.35529479596438,0.07294370342796143,0.04371897437820661,797.0,54.856199999999994,0.06882835633626097,78.0,1.6684678555570827,761.2,865.6,16.43835616438356,50.68493150684932,655.0,923.0,10.428571428571429,179.6875,,,0.030030214604808887,0.008607173937670711,0.00039985707652087535,0.039037245619000474,3.4889749901970397,0.7692708368285178,0.22048619981224724,-4.755159244657522,24.99996870107587,79.51937982899581,0.3143883762026011,6245.429668200777,3.180779175358476,4.502532431952911,1011.7343495899629,0.4246575342465753,0.4444444444444444,0.65625,0.05263157894736842,49.18450560652396,49.17042711826149,49.202876042527606,50.0,0.5035487359740436,0.4964512640259565,17.741691171751434,17.616213722462977,0.5797261006942271,0.42027389930577286,60.545854271647435,51.55124924678875,0.5728729898579904,0.4271270101420097,44.61259953823231,38.521826831161775,1.5751550008043005,1.887292022012823,1.9339954941677595,2.1621060914833445,-0.693272077986073,-0.9295993406715395,-0.379133385477727,0.0009701187490847779,0.235290232545388,0.5699092766494656,1.62924053973028,5.915851956140291,1.0202499622208674,0.5142683986897851,0.946073635712406,1.3260821466341612,1.8044306106167858,1.4696542230347571,2.4977224563059495,0.5935448207145222,Stress
75.07387643110638,799.3783783783783,56.25521655024664,,,,,,,34.633699639006686,34.87259372341665,0.07037370295699785,0.043325789858445665,795.5,43.7367,0.054980138277812694,63.25,1.6242912867122177,761.8,848.2,14.864864864864865,52.702702702702695,655.0,923.0,9.25,117.1875,,,0.0362080906701398,0.008062563003732941,0.00015044647782875447,0.0444211001517015,4.490890880899234,0.815110173914792,0.18150300141596368,-4.8205237824742895,24.65864749939134,76.08779000885929,0.3240815313011484,5894.325229197718,3.085643282371322,4.477404205057158,939.1191124452658,0.4189189189189189,0.4383561643835616,0.65625,0.05555555555555555,49.57178841309824,49.58488856774145,49.560916297537545,47.94520547945205,0.4929936160250334,0.5070063839749666,17.31409188429407,17.55843418733889,0.5944901175424412,0.40550988245755876,58.66610968182261,48.45244434734564,0.5848428617363738,0.4151571382636261,43.25211094835383,36.44130880157666,1.6086373244270111,1.3667691812568297,1.7975042438757916,2.0991004581773316,-0.6601737873526403,-1.2048435688638763,-0.2793363953200909,0.0005061062909637964,0.11647003041482722,0.5831230453133167,1.8632184332102,5.93918309535868,1.0368394383494963,0.8598425498690881,1.1642268331737924,1.489996319851401,1.8491271886461336,1.5032080758953899,2.2835332860850035,0.7552037877116291,Stress
75.05485591661822,799.6216216216217,55.88091611968631,,,,,,,34.24048713006445,34.468794481363545,0.06988419848672998,0.04282086202299684,796.0,42.9954,0.0540143216080402,58.5,1.6320128830941993,760.0,848.2,13.513513513513514,54.054054054054056,655.0,923.0,10.571428571428571,179.6875,,,0.04606758578951367,0.008741047492674068,0.0006160940996612482,0.05542472738184899,5.270259179820637,0.8311738815083521,0.1577102478547629,-4.739725246075807,24.373118317097607,75.31111903247684,0.3236324015659235,5766.60322045961,3.0899254684061708,4.467890180135802,930.8229790104755,0.43243243243243246,0.452054794520548,0.6666666666666666,0.05263157894736842,51.407035175879386,51.48125743481858,51.33190519650979,46.57534246575342,0.519208749094478,0.48079125090552194,17.566737824017803,16.90434690972841,0.6143737650409422,0.3856262349590575,59.0303600056773,46.76730960322637,0.6053472643919614,0.3946527356080387,43.549820207307654,35.16346251415291,1.6107524475149335,0.5379249928477536,1.6582482795733187,1.7070580823854384,0.29129770352422923,-0.2621908977743761,-0.40926280901409207,2.0365267922033516e-05,0.010824714864810191,0.6540932905122872,2.2155737160044158,5.804047960223544,1.061138568965072,0.8285465011681313,1.2275214525016076,1.2171950085394665,1.850283001072361,1.5539684013121644,2.203803567151892,0.8391153196795879,Stress
74.92179726881176,800.917808219178,51.338407061125494,,,,,,,32.607940409933555,32.80200955712798,0.06409947005083486,0.04071321685609232,797.0,37.065,0.046505646173149305,53.0,1.5744142811756967,768.0,837.8,12.32876712328767,52.054794520547944,655.0,915.0,8.11111111111111,156.25,,,0.04850251414286257,0.012085610694342261,0.0006622041132179256,0.06125032895042276,4.013244789158107,0.7918735290731496,0.19731503326495758,-4.415739732852128,23.194523394391137,68.32818027060527,0.33945764840410075,4978.920368397385,2.9458755891974175,4.404105290295865,805.1452732538265,0.4383561643835616,0.45833333333333337,0.6666666666666666,0.05,47.148891235480455,47.30819561220267,46.98845950592278,47.22222222222222,0.4420946757928836,0.5579053242071164,15.438428366337526,17.343058846144906,0.6277736623100437,0.37222633768995633,54.13789934707283,41.687265122319346,0.6085518751759363,0.39144812482406355,39.80739388691706,31.92655449245493,1.534107217383397,0.8897680292333199,1.6822312623510305,1.7478674654943411,0.2737327440198669,-0.11174365835370015,-0.42623223021413015,0.0001989494722899233,0.04623384029707388,0.6459747573284789,1.9136492868370918,5.775240140982889,1.1099957838032208,0.9232451008306484,1.1600084913161377,1.183336257161665,1.8166453101607276,1.593070517996203,1.9200363760297174,0.9327132896942493,Stress
75.78538356666532,791.7972972972973,48.59956021271497,,,,,,,32.49657516201167,32.721281574601,0.061378790226493056,0.04104153332290314,794.5,37.8063,0.047585022026431716,46.75,1.495528681727901,760.0,825.0,12.162162162162163,55.4054054054054,655.0,892.0,8.222222222222221,156.25,,,0.03611684131774151,0.011290130225214271,0.0006797963019065144,0.0480867678448623,3.1989747325572644,0.7510765005928822,0.23478663115055953,-4.483826366324266,23.137440090514794,65.16613092306842,0.35505315050589076,4736.822560680868,2.8164797258527883,4.382457226511473,734.1563462283626,0.43243243243243246,0.452054794520548,0.6666666666666666,0.05,50.2070393374741,50.20873206212596,50.205389012894344,47.94520547945205,0.5157348553638604,0.4842651446361397,16.61617351324372,16.101242188104617,0.6341308154666077,0.3658691845333923,51.89330913454072,39.41711666965873,0.6208762521898937,0.3791237478101062,38.52929246141972,30.107798711874374,1.4802827286856812,1.0666987428205612,1.631067572770755,1.5272874488789236,0.3529722843505638,0.6644707336019975,-0.5972909404743615,5.920465344294025e-05,0.050280656909019956,0.5612912556911924,1.8718021769015916,5.773444412838539,1.1556304672194488,1.098383508032781,0.9271224526726443,1.3167451423210021,1.861830069338919,1.610154416419126,2.8382809141267384,1.0908499155834641,Stress
75.70867621749765,792.7297297297297,48.537034948272115,,,,,,,32.53575483165795,32.75924585115906,0.061227721287582026,0.04104268278515373,795.5,39.2889,0.049388937774984286,50.25,1.4918060207733248,763.0,825.4,12.162162162162163,55.4054054054054,655.0,892.0,8.222222222222221,156.25,,,0.04774507413962697,0.009184031614273908,0.0006880239305345057,0.057617129684435386,5.198705333877676,0.8286611013273846,0.15939758999752587,-4.690288997090086,23.16428488791184,65.06783429130502,0.356002088285383,4735.165057653752,2.808972286697282,4.382305232135051,731.0949731187476,0.43243243243243246,0.452054794520548,0.696969696969697,0.047619047619047616,49.37952430196484,49.37213360534239,49.389745643854226,49.31506849315068,0.5074926238418137,0.4925073761581862,16.502735463485372,16.257263334002776,0.631204883889363,0.3687951161106371,51.69535561916464,39.51472215224135,0.6172882421691183,0.3827117578308817,38.37153939034551,30.213505902823858,1.5529653721516863,0.7751387181156195,1.6526991486255742,1.693103731196786,0.217749891410012,-0.12802138198073187,-0.4478743847689142,3.017554663346805e-05,0.02598921873956026,0.5619270494743223,1.7917594692280547,5.746417385811512,1.149811813576965,0.6770125502755524,1.125893584800796,1.3755379409302952,1.796223427634382,1.617132144492664,2.5772299107423335,1.0908499155834641,Stress
76.17863056355392,787.8,49.35858861708133,,,,,,,31.671881979258956,31.88797031593651,0.06265370476908014,0.04020294742226321,787.0,35.5824,0.045212706480304954,49.5,1.5584356069969227,754.8,821.6,10.666666666666668,53.333333333333336,655.0,892.0,8.333333333333334,117.1875,,,0.04686131945811263,0.01770968263039892,0.001518311898014383,0.06608931398652593,2.6460846552763466,0.7090604612368433,0.2679659019309765,-4.033643747709405,22.548200048674037,66.54672135919171,0.3388326214745903,4713.987378086137,2.951309692815371,4.380358525308585,785.5999350898647,0.44,0.4594594594594595,0.7058823529411765,0.047619047619047616,49.84076433121019,49.83667089627191,49.84625970017456,50.0,0.522335982756298,0.47766401724370194,16.296272369799325,15.583843055663825,0.6173404667909066,0.3826595332090936,52.286435563601835,41.16545614603606,0.6075564500078069,0.3924435499921932,38.726217457281905,31.124354965964994,1.5534425110910353,1.227946303237621,1.6797681130447049,2.0869732401199306,-0.6793152904556319,-1.4150425050144868,-0.16838523313146284,0.0009361808583546147,0.1172104190014115,0.49705141410860154,1.7346010553881066,5.798623190409341,1.084402718064729,0.708303336014054,1.183667547431367,1.396398464755963,1.8375302392288326,1.6349734138016216,2.6781568234493998,0.9966109904793409,Stress
75.03829676462126,799.3918918918919,47.39857739254911,,,,,,,30.911052241632465,31.043661254909818,0.05929329265571184,0.03866820836583218,796.0,41.5128,0.05215175879396985,55.5,1.5333860854050922,763.0,830.4,9.45945945945946,54.054054054054056,707.0,985.0,8.222222222222221,70.3125,,,0.04542227663924811,0.01908165937926466,0.0024527859501707787,0.06695672196868355,2.38041544167835,0.6783826224421896,0.2849849696672632,-3.9590276471804926,21.951183386204818,59.846253104555245,0.36679294437789933,4127.097944161243,2.726333794931781,4.32261488562477,652.6434493559599,0.4594594594594595,0.4794520547945205,0.7142857142857143,0.045454545454545456,45.534246575342465,46.0056371455698,45.01002758860284,53.42465753424658,0.44141302633653995,0.5585869736634601,14.622328815889759,16.448995241182498,0.4002078179680662,0.5997921820319339,37.85992498269336,46.34867949531379,0.4051166411749999,0.5948833588250001,28.69831371087131,34.7762097949429,1.3476023810552589,1.0525117998647726,1.5430459153707916,1.691796041108625,0.09154908543139406,-0.5088886712012295,-0.3586712987379857,0.00040392986223940154,0.07865299169284697,0.541095527561454,1.791759469228055,5.864726676381287,1.093731538812505,0.7225929394740411,1.3404715338310382,1.525416562047722,1.8409426045131496,1.6304774626484884,1.7812009684286163,0.9230268516475466,Stress
76.21823115106838,787.1866666666666,40.84866378883566,,,,,,,29.644059611839104,29.838963691206235,0.051891966059091015,0.03765823389433989,786.0,37.065,0.04715648854961832,49.5,1.3779713144458026,754.8,821.6,9.333333333333334,56.00000000000001,700.0,880.0,7.5,78.125,,,0.05424583807596274,0.01860264572300161,0.0013021878956205445,0.0741506716945849,2.916028122219701,0.7315623289212122,0.250876294143673,-3.9844514652064524,21.099333569631103,53.957359204892434,0.3910371797387367,3576.59114534409,2.557301586176867,4.260439406982561,551.9409611223456,0.4666666666666667,0.4864864864864865,0.6944444444444444,0.043478260869565216,48.654585392641394,48.6129488371416,48.69792099573148,51.35135135135135,0.4965784496147872,0.5034215503852127,14.872057093481748,14.974178688571213,0.5395098271361805,0.46049017286381955,39.632399410864956,36.615154366784544,0.5338133877100082,0.4661866122899919,29.93246703208833,27.972268022996648,1.3657140436602715,1.0997432407103345,1.4892902285819343,1.768234342503027,-0.49644667245561536,-1.1138536153666747,-0.24635523675424453,0.0003109784873248338,0.07182688805229477,0.49548271757663764,1.8607523407150064,5.765420190467034,1.2020751966459728,0.0,1.2693197292189378,1.5051453140274391,1.9146526839289595,1.6434210633260256,3.237298980981884,1.0796619063526194,Stress
76.22416754603157,787.1733333333333,41.28325795510073,,,,,,,29.96980462380743,30.174329964706025,0.05244493964281573,0.03807268787536091,786.0,38.547599999999996,0.04904274809160305,53.0,1.3774950645592836,753.6,821.6,9.333333333333334,57.333333333333336,700.0,880.0,9.375,78.125,,,0.052463633864809504,0.022358964773165207,0.0005412066905474463,0.07536380532852216,2.346424997626694,0.6961383337281423,0.29668041144816293,-3.8005279299260115,21.336473335804065,54.74209668257143,0.389763539009588,3669.3905433376763,2.565658148889603,4.271564047335102,561.7980257637676,0.4533333333333333,0.47297297297297297,0.6857142857142857,0.0,49.891891891891895,49.89137158955429,49.89280160874451,50.0,0.5077633677368879,0.492236632263112,15.20386576652712,14.969603905778216,0.541573229023339,0.4584267709766608,40.28561717908073,37.06435211499796,0.5371143430183296,0.4628856569816703,30.447401249909817,28.26530770043415,1.3300687619118021,1.0781315075897089,1.4237000082996254,1.6803289872109421,-0.5159616966641778,-0.9971910649160902,-0.26196876067091174,0.0002711155190131969,0.061740455539620334,0.49128756616616753,2.0014800002101243,5.712086857133701,1.2083455846093334,0.0,1.0815178536365053,1.3419396175990053,1.9029329970096538,1.6783265447090772,3.104726682814475,1.0796619063526194,Stress
76.0994369407497,788.1866666666666,43.16426616860147,,,,,,,29.288868838482614,29.456121396838377,0.05476401466057297,0.03715981261437555,787.0,47.4432,0.060283608640406605,60.0,1.473743025264533,753.6,821.4,9.333333333333334,56.00000000000001,700.0,939.0,10.714285714285714,164.0625,,,0.04760720134595187,0.023541983828286903,0.000624104641349171,0.07177328981558795,2.022225556401469,0.663299696422894,0.32800480358048156,-3.748969905922383,20.828623187158573,54.72347773286674,0.3806158535616784,3580.833479141833,2.6273209343287407,4.260954235282172,575.1045545873341,0.4666666666666667,0.4864864864864865,0.7222222222222222,0.0,47.166666666666664,47.47217162581526,46.829829732983384,51.35135135135135,0.445919974795211,0.5540800252047888,13.924207756416005,15.521306610724162,0.44127426590324254,0.5587257340967576,36.35197324154341,40.90468257578433,0.4418632602573709,0.5581367397426295,27.52589253955014,30.93625717123666,1.3520977138603962,1.0355104546358769,1.4445712490348652,1.7346594946257983,-0.5656671911180862,-1.1974483329116348,-0.2198596650644743,0.0002650717916352112,0.0607639399029965,0.49676682438384523,2.001480000210124,5.782021690438189,1.1522613681582377,0.0,1.128994282102687,1.3393622066986635,1.967767169519734,1.6430293456076568,1.8836280713786875,1.0796619063526194,Stress
76.53876605496491,783.8666666666667,38.27155225113964,,,,,,,29.380081504127745,29.566158346379712,0.04882405883373827,0.037480968069562526,782.0,41.5128,0.05308542199488491,55.5,1.3026360136462756,751.2,821.0,9.333333333333334,58.666666666666664,700.0,880.0,10.714285714285714,164.0625,,,0.04710699257845784,0.021391640964624453,0.0005975641575978791,0.06909619770068016,2.2021215042062035,0.6817595489482937,0.3095921581284621,-3.8447550423916472,20.906431060360337,49.99642712151236,0.4181585017975166,3283.739846762746,2.391437686191602,4.223338852930876,478.2533599732663,0.4666666666666667,0.4864864864864865,0.6944444444444444,0.0,51.85589519650655,51.855098017152365,51.85375100232821,47.2972972972973,0.49088859665602097,0.5091114033439791,14.654935117143003,14.924467361597776,0.5116869839349245,0.4883130160650754,35.76359387460244,34.93720192129295,0.5085889337133563,0.4914110662866435,27.32948746423149,26.863988945394848,1.1938553909581993,1.8385620930108049,1.4518262482968853,1.7581562363049357,-1.1228776407074363,-1.2562815238321159,-0.3333861069079215,0.0005367254010539261,0.18509860043997853,0.43164649199878413,1.7346010553881064,5.712086857133702,1.242638092848599,0.0,1.1486651255940135,1.4253801440134002,2.0176471116076815,1.6752609650478565,2.6581178749681276,0.9135600746060626,Stress
76.51960881033412,784.1466666666666,38.493837110575186,,,,,,,29.04237351628581,29.212634392418828,0.04909009850696534,0.037036915096179894,783.0,41.5128,0.053017624521072795,57.5,1.3254370235610864,751.2,821.2,9.333333333333334,58.666666666666664,700.0,880.0,9.375,132.8125,,,0.047492463589617534,0.024212472803331088,0.000514775880353073,0.07221971227330169,1.9614875347669423,0.657610811434576,0.3352612748123894,-3.7208873734987566,20.656451875202713,50.01617657607538,0.4129954204672948,3245.757638293403,2.421334354914936,4.218286197762089,484.4235465805721,0.4666666666666667,0.4864864864864865,0.7222222222222222,0.0,47.397563676633446,47.462363726524764,47.33390787219386,50.0,0.44190592155857483,0.5580940784414253,13.744737473636158,15.446327754385196,0.505129298032965,0.49487070196703503,35.54772149543787,35.18490323664307,0.49590182272384503,0.5040981772761549,26.949566895744297,27.17136780572361,1.3794305830731006,1.9160011292536172,1.6147580031390487,2.0124358375768354,-1.251097410559316,-1.4061236285732157,-0.292443841307806,0.0010190426521574645,0.21949144330215362,0.45611608393043257,1.8870696490323797,5.7186231904093425,1.251056272041482,1.0474136855066063,0.971646710060317,1.2326142531221334,2.04938377834475,1.6654457786882777,2.3364383224517877,0.9966109904793409,Stress
76.74433194080048,782.3333333333334,40.575366422995614,,,,,,,31.792400927843698,32.007149330942056,0.051864550178520166,0.04063792193588883,779.0,44.477999999999994,0.05709627727856225,59.5,1.2762598998133488,744.0,821.2,12.0,58.666666666666664,700.0,880.0,10.714285714285714,85.9375,,,0.04246828091256559,0.01861792242580276,0.0005568251242227634,0.061643028462591114,2.281042961791934,0.6889389112077455,0.30202802961086334,-3.9836305909200687,22.632472338359598,52.656585828361415,0.429812757175941,3743.989030566074,2.3265945072697245,4.2803046775995455,490.0420934393699,0.4533333333333333,0.47297297297297297,0.6857142857142857,0.0,49.276859504132226,49.23947120059685,49.31303294488536,47.2972972972973,0.42491577089683946,0.5750842291031606,14.754149636859772,17.164394494306066,0.565894344362295,0.43410565563770487,39.611416542733345,34.69368401564849,0.5439086111097033,0.4560913888902969,29.889373128494835,27.370313744400413,1.234852297490079,2.2691942563725336,1.5537275661010672,1.7969603400212342,-1.085781265541037,-0.6066843949276768,-0.392810951183619,0.0010604935280480196,0.2849961216491941,0.4325338843571265,1.791759469228055,5.745289857076009,1.2705285427175874,1.0595463996119978,1.25975361525139,1.5196838079613695,2.1260059408856904,1.7049290999680011,2.751960547774436,0.9966109904793409,Stress
76.46100279566937,784.56,44.38384171526171,,,,,,,39.60565752652149,39.85416073762818,0.05657163469366487,0.050481362198584546,779.0,51.891,0.06661232349165597,71.0,1.1206439808641118,743.8,824.0,14.666666666666666,60.0,700.0,919.0,9.375,125.0,,,0.0360799380803357,0.032279444481573036,0.0009964917206251348,0.06935587428253387,1.1177372677814268,0.5202145954264444,0.4654175989488187,-3.433324645097337,28.18114731607554,54.12251193050383,0.5206917844512026,4791.665443117657,1.9205219476508115,4.387456597706965,415.773888098102,0.4533333333333333,0.47297297297297297,0.7142857142857143,0.0,52.2055479763529,51.98074530951071,52.44969952610401,48.64864864864865,0.5707418351611431,0.42925816483885715,21.301810328882173,18.47378742753657,0.5688929531806033,0.43110704681939666,40.82190070138124,35.536160749215725,0.5692876453621807,0.43071235463781915,32.55913619985258,28.32048324721798,1.134526344669077,2.2779281520631662,1.4716782369804673,1.7513414135100647,-1.045003244041796,-0.6974937029473431,-0.3772291495338425,0.0014165839553811081,0.31129373534281674,0.38010284321816235,2.2335922215070942,5.825289857076007,1.2649299913091143,1.335722622883237,1.282959539471832,1.5267551018974186,2.1976802800209505,1.755314617166419,3.047496505100807,1.0796619063526194,Stress
76.00800160110495,789.5,43.749677102526626,,,,,,,31.465136175147055,31.641055492730704,0.055414410516183184,0.03985451067149722,787.0,54.1149,0.06876099110546378,69.25,1.3904175357449302,748.6,827.8,12.162162162162163,58.108108108108105,700.0,880.0,7.4,132.8125,,,0.042866931093331014,0.04470228055497399,0.0010634390609853927,0.0886326507092904,0.9589428226287942,0.48364717460534823,0.5043545487722656,-3.1077307595371106,22.373604902809735,57.15845055912236,0.3914312701613105,4017.596201608991,2.554726911797046,4.310936394732013,584.0969275200431,0.43243243243243246,0.4444444444444444,0.65625,0.0,53.17545748116254,53.28674146084078,53.065227195476,47.22222222222222,0.4741677505050223,0.5258322494949774,15.42679847249944,16.245512200810005,0.5835284792677429,0.41647152073225724,43.662789268652915,36.88698013663957,0.5689653110530329,0.431034688946967,32.744658173738074,28.50057868068216,1.2672292961994132,1.5959999470542447,1.5049420449797362,1.6630746486727959,-0.4952996295148484,-0.4658323978201544,-0.40091941795804764,0.0004224902579752596,0.13784383494126204,0.4003434887354831,1.580450375560848,5.827498466892592,1.187582190856166,0.5683993890301984,1.1430941724652277,1.2944431665768903,1.9159115481493567,1.6738861538256031,2.238700951919671,1.0908499155834641,Stress
76.07772618496712,788.7333333333333,42.69987446444403,,,,,,,30.272188645775273,30.4612814978689,0.054137276389710116,0.03838076491307828,783.0,56.3388,0.07195249042145593,68.5,1.4105314605458215,748.8,827.4,10.666666666666668,57.333333333333336,700.0,880.0,7.5,132.8125,,,0.04219986606915835,0.04508887574242339,0.0015306147318778786,0.08881935654345961,0.9359263315907693,0.4751201507354966,0.5076469532895259,-3.0991197204944263,21.53937871077541,56.49852478145392,0.3812378959290257,3823.1395714967143,2.6230340967629515,4.2893902630748295,592.7902276742409,0.44,0.452054794520548,0.6666666666666666,0.0,47.91666666666666,47.909153228800946,47.92784447779198,49.31506849315068,0.40501961246940155,0.5949803875305985,13.715804302746262,16.62396355817594,0.5663681715501188,0.4336318284498812,42.5193412867789,37.204689476180036,0.5458726692594256,0.45412733074057426,31.591277840036902,28.814450223824707,1.305480173646454,1.7860377284357316,1.6169824853574641,1.7466409266569167,-0.3503250286750319,-0.2327669945815911,-0.42740442195864947,0.000849517545893951,0.19825901445014543,0.45177698183836856,1.4733057381095205,5.818753523800368,1.1720070907401359,0.0,0.9779591487969932,1.1681115935234596,1.8378582993618502,1.6353169310897882,2.677552781340376,0.9135600746060626,Stress
75.81853970545397,791.5135135135135,42.658646120757034,,,,,,,31.327916562778054,31.523939346195096,0.05389503197664448,0.03957976209870887,791.5,49.6671,0.06275060012634238,67.25,1.3616815543821217,750.8,829.0,12.162162162162163,60.810810810810814,700.0,880.0,8.222222222222221,140.625,,,0.02120253993615954,0.035361301731404164,0.0010945122001296487,0.05765835386769335,0.5995972687094178,0.3677271117523106,0.6132901714909609,-3.342137228219369,22.290791281407973,55.976919575072685,0.3982139683751797,3919.9845338879886,2.511212763530796,4.300254463497464,562.2798196002375,0.44594594594594594,0.45833333333333337,0.696969696969697,0.0,52.18306154655444,52.25058537372853,52.113802815867984,44.44444444444444,0.4484332472607998,0.5515667527392001,14.93690433493872,16.565736057027802,0.5968058849840191,0.4031941150159809,43.24396866024692,35.543982607830216,0.5764749704667644,0.4235250295332355,32.35082639284141,27.72903091289748,1.2824990631329096,1.5893080965524131,1.5017882688397917,1.4930454057905367,-0.40728787531797295,0.14563887091813754,-0.5055010498393737,8.56208125318489e-05,0.10698460606575574,0.4283014800366054,1.563975538357343,5.810672622327234,1.2293388042973088,0.39099388458933576,0.8774714218531641,0.9666401578378472,1.8165345399801287,1.6822858989168745,2.450347768713642,0.9230268516475466,Stress
