PPG_Rate_Mean,HRV_MeanNN,HRV_SDNN,HRV_SDANN1,HRV_SDNNI1,HRV_SDANN2,HRV_SDNNI2,HRV_SDANN5,HRV_SDNNI5,HRV_RMSSD,HRV_SDSD,HRV_CVNN,HRV_CVSD,HRV_MedianNN,HRV_MadNN,HRV_MCVNN,HRV_IQRNN,HRV_SDRMSSD,HRV_Prc20NN,HRV_Prc80NN,HRV_pNN50,HRV_pNN20,HRV_MinNN,HRV_MaxNN,HRV_HTI,HRV_TINN,HRV_ULF,HRV_VLF,HRV_LF,HRV_HF,HRV_VHF,HRV_TP,HRV_LFHF,HRV_LFn,HRV_HFn,HRV_LnHF,HRV_SD1,HRV_SD2,HRV_SD1SD2,HRV_S,HRV_CSI,HRV_CVI,HRV_CSI_Modified,HRV_PIP,HRV_IALS,HRV_PSS,HRV_PAS,HRV_GI,HRV_SI,HRV_AI,HRV_PI,HRV_C1d,HRV_C1a,HRV_SD1d,HRV_SD1a,HRV_C2d,HRV_C2a,HRV_SD2d,HRV_SD2a,HRV_Cd,HRV_Ca,HRV_SDNNd,HRV_SDNNa,HRV_DFA_alpha1,HRV_MFDFA_alpha1_Width,HRV_MFDFA_alpha1_Peak,HRV_MFDFA_alpha1_Mean,HRV_MFDFA_alpha1_Max,HRV_MFDFA_alpha1_Delta,HRV_MFDFA_alpha1_Asymmetry,HRV_MFDFA_alpha1_Fluctuation,HRV_MFDFA_alpha1_Increment,HRV_ApEn,HRV_SampEn,HRV_ShanEn,HRV_FuzzyEn,HRV_MSEn,HRV_CMSEn,HRV_RCMSEn,HRV_CD,HRV_HFD,HRV_KFD,HRV_LZC,Labels
77.1198953204865,778.25,41.05609983100359,,,,,,,43.26599896762661,43.5265601838859,0.05275438462062781,0.05559395948297669,776.5,40.0302,0.05155209272376046,54.25,0.948922960538215,743.0,813.0,10.526315789473683,53.94736842105263,680.0,887.0,9.5,117.1875,,,0.053830233156068344,0.02795638312726778,0.014088027624163064,0.0958746439074992,1.9255077779916394,0.5614647519108836,0.29159308434292985,-3.577109728808573,30.7779258677501,48.630965554991924,0.6328874106549746,4702.211014157529,1.5800598703094773,4.3792722243780915,307.3593485113808,0.5657894736842105,0.5866666666666667,0.9090909090909091,0.0,47.39316239316239,47.42000024699919,47.3683156568517,44.0,0.4049474343998405,0.5950525656001596,19.59953805302288,23.758782160071455,0.6053568205858664,0.3946431794141335,37.837167055830314,30.550279867785164,0.5479832356358236,0.45201676436417665,30.13132176575318,27.366031222390735,0.9101337294945785,1.5114954761014219,1.1105144722169302,1.1670111878768823,-0.3818851856412486,-0.11597014495749658,-0.4626219750219344,0.00018959762664250688,0.10463906072152704,0.702205458137485,2.0949457282158015,5.823392480463448,1.2220814355702347,1.2039137083275393,1.2233999352064697,1.5605668745825354,1.8134073870208398,1.8741072808156463,2.555512068117859,0.9043052979984136,Relax
77.15771602082502,778.2631578947369,39.924384669373055,,,,,,,43.605657125347086,43.88649159074059,0.05129933784527545,0.056029450556677796,773.5,42.2541,0.05462714932126697,54.25,0.9155780992958782,743.0,813.0,10.526315789473683,52.63157894736842,689.0,887.0,8.444444444444445,78.125,,,0.05342144971485026,0.031569016870266094,0.028845263309171962,0.11383572989428832,1.6922113835342878,0.4692854323019601,0.2773208104308036,-3.4555791181620683,31.032435806299056,47.12906373617716,0.6584564458996025,4594.672388401523,1.5187033344836811,4.369224660508348,286.30026498890476,0.6052631578947368,0.6266666666666667,0.9361702127659575,0.0,51.701852649719946,51.70817327415843,51.691944061768545,42.66666666666667,0.4672075394961049,0.5327924605038951,21.21766219896031,22.658003776483376,0.6076455449761201,0.39235445502387967,36.73786984953103,29.5207988978545,0.5651544217643777,0.4348455782356225,29.998835562987026,26.31409035766487,0.9405938614265925,1.2833664666110938,1.119495431237707,1.1659968484712842,-0.44165754507189803,-0.4683778818671458,-0.46376606492113626,0.0002041754877649319,0.07064302847181796,0.5543734810610883,2.2407096892759584,5.77076090151608,1.2608846868588544,1.0081172896260033,1.1663483156315062,1.4263305808271378,1.8244826082510592,1.834116081193384,2.9164539753302363,0.9043052979984136,Relax
77.35472041348012,775.921052631579,42.19281555206439,,,,,,,45.92544683143177,46.234712593987744,0.054377717177495226,0.05918829844308656,773.5,43.7367,0.05654389140271493,59.5,0.9187241162167041,737.0,813.0,13.157894736842104,56.57894736842105,689.0,887.0,9.5,78.125,,,0.05324676912191597,0.03172673239508829,0.019413704514236064,0.10438720603124031,1.678293511567528,0.5100890343399039,0.30393315044367913,-3.450595660250405,32.6928788014198,50.11836979582427,0.6523132922041628,5147.542883771921,1.5330057074584607,4.4185700833398505,307.32698778204934,0.6052631578947368,0.6266666666666667,0.9148936170212766,0.041666666666666664,50.000000000000014,50.02011556885036,49.97942643823679,44.0,0.43615111324643147,0.5638488867535686,21.590945299335992,24.54904082454965,0.5947455438805292,0.4052544561194707,38.65116018677555,31.90515330173493,0.5474054277747596,0.45259457222524035,31.305599360998524,28.465718088716933,1.0791907435840196,1.20379443965704,1.2378543950563432,1.4146418590503336,-0.20845835530217904,-0.5366687840923188,-0.35314148481666274,0.0003534404275709897,0.0832163707971075,0.5751227263666259,2.2823823856765264,5.754377842334019,1.255395878193553,1.2086992808754211,1.279427589031751,1.6580319092885092,1.8143509106675053,1.8693730154172172,2.9598401617264276,0.986514870543724,Relax
77.20905770670277,777.421052631579,45.66669483927931,,,,,,,47.19901128907963,47.503790270778296,0.05874126341793425,0.06071228857169541,776.5,51.149699999999996,0.06587211848036059,68.0,0.9675349883832238,735.0,817.0,14.473684210526317,60.526315789473685,689.0,887.0,9.5,78.125,,,0.03836781514049597,0.026756327934019095,0.013966806691892803,0.07909094976640786,1.4339716285101123,0.48511005688784703,0.3382982251830696,-3.620984275334532,33.59025223253087,54.116103080438194,0.6207071522242152,5710.704037838102,1.61106569566122,4.463659763023705,348.73838902304175,0.6052631578947368,0.6266666666666667,0.8936170212765957,0.09090909090909091,51.56544700113166,51.469375655538066,51.666027787072245,44.0,0.4581430563618844,0.5418569436381158,22.742239543621455,24.7328974488679,0.6007990159884039,0.3992009840115959,41.946054974549476,34.19182774706092,0.5611073739960395,0.4388926260039605,33.739301914735776,29.839548429063914,0.9735429194674774,1.138862932622974,1.1755157650915562,1.075887381253911,0.28307352040406286,0.4598469473183595,-0.5874805746888135,0.0001191008237040653,0.06469668345282305,0.5119547022650508,2.6149597780361984,5.787143960698138,1.2598372061141214,0.9371857619314575,1.036516333949174,1.3583872668445727,1.9006176655671776,1.8613318995768586,3.6870272625439333,0.986514870543724,Relax
77.6607181702513,773.2368421052631,46.71213073597411,,,,,,,53.2785134927768,53.63447190545067,0.060411155020488584,0.06890322678846675,769.5,48.925799999999995,0.0635812865497076,65.0,0.8767536418279964,732.0,817.0,19.736842105263158,63.1578947368421,675.0,887.0,9.5,93.75,,,0.04337939597485225,0.02347149898772575,0.016846213936330137,0.08369710889890813,1.8481732247922125,0.5182902557273176,0.2804338082462959,-3.75196840291303,37.925298789703525,54.15796381923018,0.700271873519683,6452.696095339974,1.4280168000662852,4.516711321446589,309.35392876497093,0.618421052631579,0.64,0.8958333333333334,0.13043478260869565,49.31092436974789,49.35677344834035,49.2645406357266,48.0,0.4485074802132507,0.5514925197867494,25.40017556866328,28.165773747774278,0.5518229712564122,0.4481770287435877,40.231128551216464,36.25660409553742,0.5178266227428943,0.4821733772571055,33.64307226921632,32.464227630973696,0.9185328948782562,1.0978511695230169,1.1230287246861796,1.1793865516544766,0.08098015805532377,-0.2132714739240904,-0.4486653304811956,0.00021259377690556195,0.068742461176152,0.46387993925980187,2.8622008809294686,5.912272579176126,1.3296271514927664,0.8888370153723535,0.9902032923993946,1.163490087539381,1.9327753573695834,1.8828106713556212,3.1383146943432885,1.0687244430890344,Relax
78.23112165301664,766.4675324675325,50.75083209470416,,,,,,,57.543461835381436,57.88847565824383,0.06621393593975093,0.0750761896595,762.0,47.4432,0.06226141732283464,63.0,0.8819565329574813,726.4,807.8000000000001,20.77922077922078,66.23376623376623,632.0,887.0,11.0,117.1875,,,0.05092821847121232,0.02332615153764767,0.014451207641630307,0.08870557765049031,2.183309938161715,0.5741264508966402,0.2629614975233605,-3.7581801642220056,40.933333690496596,57.387475710481056,0.7132799131469842,7379.7918156901105,1.401974150075262,4.575014220487777,321.8230299366657,0.5974025974025974,0.618421052631579,0.851063829787234,0.13043478260869565,47.559838358719304,47.39368308826616,47.70975874387528,48.68421052631579,0.3863861238600465,0.6136138761399534,25.460557731518765,32.08519907994962,0.533351049798052,0.4666489502019479,41.91058270318817,39.202365054933566,0.4837509800392616,0.5162490199607382,34.67518523757858,35.82098146268662,0.934934348438331,1.4770144310424915,1.1861217671288653,1.3955161946953332,-0.5537849251641163,-0.8902422763982138,-0.3582312920133927,0.00044483726436173407,0.12897899952698447,0.5145491663442132,2.151762203259462,6.02321657313434,1.3406879943954062,1.1135868240633768,1.1672987445298466,1.4619725682983031,2.073086579433893,1.8536178241623578,3.303949648938996,1.0580288964809574,Relax
78.9356207133542,759.8589743589744,56.24176115339648,,,,,,,69.82361822719919,70.22937227404809,0.07401605172965506,0.0918902330344959,754.5,48.925799999999995,0.06484532803180913,66.5,0.8054833390385373,717.4,806.6,28.205128205128204,67.94871794871796,614.0,887.0,11.142857142857142,125.0,,,0.050235201266583485,0.019587658131058942,0.016612964893732537,0.08643582429137497,2.564635390839736,0.5811849621198814,0.22661504407048852,-3.9328555982727793,49.659665373453905,60.08357417104499,0.8265098416429678,9373.664838208639,1.2099069480070095,4.678879530927635,290.7821354025673,0.6153846153846154,0.6363636363636364,0.8775510204081632,0.19047619047619047,47.32627228106433,47.125774929699574,47.50519079980721,50.649350649350644,0.47683410539662924,0.5231658946033706,34.31702048163334,35.945591194411996,0.4772248778461522,0.5227751221538477,41.506613139586186,43.44234053142389,0.4770661372673042,0.5229338627326959,38.081864640902964,39.87055603552567,0.7523671332342523,1.5845459127654626,1.0958084434764912,1.1783658176121965,-0.1496375487940007,-0.29200937719364317,-0.44789840201498465,0.0008693102879323979,0.17197940876206752,0.5698975177265475,2.3025850929940455,5.96803186627041,1.3210740285211198,1.3542718314128441,1.0970594736682902,1.3950881089226095,2.0082878472087455,1.901115837288255,3.069271724520917,0.8864028770190351,Relax
79.32513173674305,757.0384615384615,55.17515022904063,,,,,,,69.16374322304553,69.60160774299769,0.07288288908982657,0.0913609370420761,746.5,50.4084,0.06752632283991962,67.5,0.7977467334453948,712.4,798.0,29.48717948717949,66.66666666666666,645.0,887.0,11.142857142857142,93.75,,,0.03608486660298262,0.020017737390215107,0.021787359929152397,0.07788996392235013,1.8026446195972832,0.46328005285708257,0.2570002139193586,-3.911136528953791,49.21576881655978,59.698984318326396,0.8243987628689274,9230.412055432409,1.2130052166987442,4.672191198789018,289.6607176389858,0.5897435897435898,0.6103896103896104,0.8297872340425532,0.14285714285714285,51.461080941298164,51.36696746870183,51.552855046231315,48.05194805194805,0.5083360708477787,0.4916639291522212,35.09760825559425,34.51725350420691,0.5439660240054075,0.45603397599459244,44.030420154681565,40.3148958778513,0.5295451408592834,0.4704548591407166,39.81532370997972,37.528200190761055,0.7142177651801643,1.8634104880379092,1.1089231399773656,1.3371494995742566,-0.5900522024419956,-0.927366490343736,-0.3775222308439385,0.0014200827569206117,0.2550052819981954,0.5977971112987461,1.8803128665695001,5.9583538213708795,1.3173161463785,1.2359461149334563,1.523203643189841,1.7438427662963683,2.0021376911882056,1.8900366439366458,4.72228198004994,1.0475670364770413,Relax
80.03621584078468,750.7948717948718,57.95976189852749,,,,,,,76.9503972463017,77.45480899707746,0.07719786598963738,0.10249190576161218,739.5,47.4432,0.06415578093306287,73.0,0.7532093916683852,707.4,798.0,37.17948717948718,70.51282051282051,643.0,887.0,9.75,93.75,,,0.05166483739514799,0.052111557404595256,0.021491833768529388,0.12526822856827263,0.9914276212092661,0.41243368718182244,0.41599979500144246,-2.9543685236414636,54.76882067734229,61.65123057192067,0.8883654092427312,10607.79240070914,1.1256629193300416,4.732595121766391,277.5940167435109,0.5897435897435898,0.6103896103896104,0.8085106382978723,0.14285714285714285,50.14836795252226,50.1504589717628,50.14213629682342,49.35064935064935,0.49639978506179455,0.5036002149382053,38.587818503280346,38.866674942071285,0.5474303938071582,0.45256960619284187,45.61484492032605,41.47481348875157,0.5249213014831099,0.47507869851689016,42.247685226219794,40.191905745929496,0.7097434887443105,1.9499050873444763,1.1048779907119726,1.356812632960264,-0.4340363745172571,-0.6883615300621426,-0.37079645882077544,0.0021185994138552644,0.30504320298661897,0.5552309275230778,1.9095425048844386,5.9583538213708795,1.3763886710157698,1.0717439406543559,1.3489378675137291,1.5848745844305117,1.9324956297165803,1.944865446529746,4.279531399160253,1.1281491162060446,Relax
80.86786343172066,742.7974683544304,55.30761985496593,,,,,,,76.94961721635521,77.44604321971272,0.07445854652344555,0.10359434501954741,733.0,40.0302,0.054611459754433836,61.0,0.7187510718794142,705.6,784.2,35.44303797468354,64.55696202531645,643.0,880.0,9.875,93.75,,,0.04994566634218785,0.060296837133927035,0.01747477206530579,0.12771727554142068,0.8283297883643895,0.3910642951821322,0.4721118335661008,-2.8084756287983415,54.76262233672531,56.36572825170736,0.9715588538513473,9697.264279126006,1.029273724423291,4.693619341542051,232.06305218986378,0.569620253164557,0.5844155844155845,0.7555555555555555,0.15,49.54640614096301,49.55074609539937,49.54069562837054,46.75324675324675,0.4858603420539258,0.5141396579460743,38.172370507081034,39.2675636937353,0.5977462072570893,0.40225379274291057,43.578626394465545,35.74910688278676,0.5434157924255395,0.45658420757446055,40.96478090114897,37.549568581799114,0.6745004228304643,2.2436406863038987,1.1465187772019982,1.4979487401933793,-0.6644930688216277,-1.0170943235701082,-0.3433662015773499,0.003754367578368986,0.4492383014127432,0.5656049629351254,1.6094379124341005,5.8447343873354525,1.3341018050282587,0.9110618252573812,1.3381062130988144,1.5744077609741052,1.893432226887098,1.9243614795031923,4.673509526933755,1.1171257022086005,Relax
80.66153230375588,744.3417721518987,56.53110921996602,,,,,,,77.0604158586475,77.5565105004881,0.07594778545953974,0.10352826986434625,733.0,41.5128,0.056634106412005454,64.0,0.7335946554410173,705.6,794.4,35.44303797468354,65.82278481012658,643.0,880.0,9.875,93.75,,,0.04813953698309364,0.08255462259036365,0.02707193240966627,0.15776609198312355,0.5831234578100151,0.3051323410371551,0.523272279566858,-2.494295112723307,54.84073450006081,58.594132763207554,0.9359424214312533,10095.02191921557,1.0684417941766002,4.711077376221541,250.41768135097357,0.5569620253164557,0.5714285714285714,0.75,0.14285714285714285,50.57977736549165,50.56952462159653,50.584209617476475,48.05194805194805,0.49276103871430166,0.5072389612856981,38.497849492983576,39.059312207588476,0.5582015237296308,0.4417984762703694,43.77736723310034,38.94630293635926,0.5276431184070034,0.4723568815929965,41.2222166886143,39.0028485020039,0.6841849059860412,2.3074908138764285,1.1732041645313165,1.5096475145204,-0.7366743169158401,-1.0148994105533764,-0.3541951508687129,0.0036362209536763283,0.45846274641275864,0.5604753167455079,1.69644928942373,5.854289925337522,1.2828964287641276,1.2978451015760788,1.313376846038218,1.5422488059705224,1.9359825116131437,1.8989927393339876,4.8796813973330515,1.0373310091937005,Relax
81.44133573120105,737.35,53.17706272444916,,,,,,,70.51609027265884,70.96321806913555,0.07211916013351753,0.09563448874029815,729.0,42.9954,0.05897860082304526,56.5,0.7541124659469027,699.0,778.0,28.749999999999996,63.74999999999999,643.0,880.0,10.0,132.8125,,,0.05127394327270132,0.09850960317064306,0.026144285060878028,0.17592783150422242,0.5204969020520989,0.2914487311887926,0.5599432581437732,-2.317601241438133,50.17857271150548,56.447272274441445,0.8889459258109387,8898.383867831762,1.1249278172772461,4.656281246829556,253.9964271637673,0.55,0.5526315789473684,0.7380952380952381,0.14285714285714285,49.28738015029799,49.25249629039147,49.32154488462073,51.31578947368421,0.49973398094336213,0.5002660190566379,35.473897951838275,35.49277644094893,0.5121009914452527,0.48789900855474727,40.39436342697441,39.428288709433474,0.50664176032047,0.4933582396795298,38.0138266461555,37.512178889272874,0.7706056459465835,3.5509129690748864,1.4132578239619455,2.2360306640125343,-1.57524324632959,-1.9292926160173072,-0.26829259201333105,0.018558547193023335,1.4106959151226217,0.5410772896189302,1.8718021769015911,5.809183719779187,1.2845002530643908,1.3589276896952651,1.194745560049312,1.6837484357278303,1.9303275987115496,1.8424451031401614,4.53584649303108,1.3434097201635646,Relax
81.25313695276029,739.1518987341772,53.431501466014325,,,,,,,71.11321778396575,71.57347323738084,0.07228757926147196,0.09620920666746519,731.0,45.9606,0.06287359781121751,64.0,0.7513582303128714,699.6,780.0,30.37974683544304,63.29113924050633,643.0,880.0,8.777777777777779,93.75,,,0.046373176903351944,0.06455582407458435,0.01614719241842785,0.12707619339636414,0.7183422652892612,0.3649241896844445,0.5080087965275123,-2.740224939972068,50.61008827922587,56.76668002187514,0.8915456789039483,9025.691038596366,1.1216475203260294,4.6624505729228645,254.6888235347096,0.5316455696202531,0.5394736842105263,0.7560975609756098,0.14285714285714285,49.93518278454757,49.92309403493799,49.94479406153829,53.94736842105263,0.5057535371767992,0.4942464628232008,35.99206261703504,35.58025499423164,0.5014518303487154,0.49854816965128484,40.19833876809005,40.08178540174862,0.5033568486411377,0.4966431513588622,38.15321094706645,37.897915948283845,0.8063991882285574,2.373159846690798,1.2849447408520127,1.6593621218394052,-0.9143776052264325,-1.1871645532248283,-0.3422283347202715,0.0032856109940055927,0.46266820349703086,0.5206029935786587,2.0583881324820035,5.835178849333383,1.310394617277245,1.0825232778075218,1.13845537171723,1.6112000993147437,1.7697051574153109,1.8355717048151303,4.244991047111978,1.2767150882384006,Relax
81.77377316286838,733.716049382716,57.010576774819,,,,,,,73.53026587739228,73.95475866442891,0.07770114449967759,0.10021624297199735,729.0,47.4432,0.0650798353909465,66.0,0.7753348379003693,695.0,782.0,30.864197530864196,62.96296296296296,586.0,880.0,9.0,148.4375,,,0.055443536579523285,0.06760922119237887,0.020292976063817747,0.1433457338357199,0.8200587967395941,0.38678190899677456,0.4716514358903894,-2.694010897064682,52.293911352632264,59.52522866903801,0.8785167654439082,9779.171701461128,1.1382822039767302,4.697272181444812,271.02603392644573,0.5061728395061729,0.5128205128205129,0.725,0.09523809523809523,47.656249999999986,47.41038421850946,47.87754154947139,56.41025641025641,0.5085773207316847,0.49142267926831523,37.31307844154393,36.678383245017145,0.4346492328216251,0.5653507671783751,39.243752778248066,44.756906908107624,0.4668716509150646,0.5331283490849356,38.2905860160501,40.9175055046698,0.7868538940948218,2.176772687536144,1.2545914967464726,1.6162357526374165,-0.7005938335355228,-1.1768994582717742,-0.33386218599596484,0.003298076016877552,0.42114668726155036,0.5314782574355665,1.8803128665695001,5.882818521296305,1.2600022431822975,1.1416876943575833,1.3033345544106896,1.6507792283551739,1.7674119786684837,1.8404240674873202,3.3153071861838703,1.1740462968304861,Relax
81.6658204840019,735.375,58.58810848368637,,,,,,,79.21130209601932,79.70992118435343,0.07967106372080418,0.10771552214315053,729.0,49.6671,0.06813045267489712,68.5,0.7396432950018461,693.4,794.0,36.25,65.0,599.0,880.0,10.0,93.75,,,0.05383781936466922,0.09287392477241675,0.019428624719617142,0.16614036885670314,0.579687134969221,0.3240501976440452,0.5590087792119984,-2.3765123531588284,56.36342579730156,60.42203889980976,0.932828928377639,10698.986283086168,1.0720079208297966,4.736312740682711,259.0916171731286,0.5125,0.5194805194805194,0.775,0.041666666666666664,49.03153153153154,49.107291473951406,48.956521095735525,53.246753246753244,0.4748325532601679,0.5251674467398323,38.84263121880391,40.84955198574273,0.5029126451528835,0.4970873548471166,42.849095016035946,42.60020940226526,0.4898459621030456,0.5101540378969547,40.89495655758346,41.73406126027484,0.6683277763909152,3.436701897346414,1.271061700916619,2.046863080906297,-1.761431456698249,-2.0276543652202452,-0.2742599145451928,0.012221293227024964,1.1590999703357288,0.4649214798724599,1.5892352051165808,5.793619813556232,1.2829282090820964,1.1303653426677986,1.11280694902586,1.3981175016867406,1.7470223506710594,1.8842832548740989,3.0633570478953898,1.1853615177913803,Relax
82.8148346021119,724.6543209876543,56.09883253995291,,,,,,,78.38694087665368,78.85614104819395,0.0774146112362844,0.10817149447176089,720.0,42.9954,0.05971583333333333,55.0,0.7156655421497774,690.0,761.0,34.5679012345679,61.72839506172839,575.0,845.0,9.0,140.625,,,0.045774245224346,0.09216770808032262,0.012313187733857315,0.15025514103852594,0.4966408102982718,0.3046434545132091,0.6134080168124864,-2.3841454475076866,55.759712073380804,54.55752320814786,1.022035253701792,9557.07603679835,0.9784398301115537,4.687295151263064,213.5250149563494,0.49382716049382713,0.5,0.7435897435897436,0.0,48.16354816354816,47.9739487992702,48.33583020535636,53.84615384615385,0.47119482627791875,0.5288051737220814,38.28780087968662,40.560940243265094,0.4582381711125207,0.5417618288874794,36.93178320846799,40.15677685833758,0.4648597599214069,0.5351402400785933,37.61590293452897,40.359364471384076,0.7597135182130372,2.5224535433129236,1.300211574836131,1.6744301158565575,-0.9310673605044055,-1.2067586066812495,-0.3516450215654169,0.004047138520712643,0.5438967985219498,0.5084643178437736,1.4759065198095773,5.892138120088446,1.2334232421350382,1.2655754842314397,1.3242664503597443,1.582974265723032,1.7763976249598306,1.874126411235067,4.065567007277472,1.0957765437084537,Relax
82.48735698425297,727.9753086419753,53.256683925269414,,,,,,,71.90679731430124,72.36047136700877,0.07315726686474956,0.09877642340430758,727.0,48.925799999999995,0.06729821182943603,66.0,0.740634903992274,691.0,769.0,35.80246913580247,60.49382716049383,599.0,845.0,8.1,117.1875,,,0.05457121620316728,0.07043479866069793,0.02598342339946623,0.15098943826333144,0.7747763497706651,0.3614240627082337,0.4664882489188211,-2.653067838786085,51.166579993466904,55.53586408229449,0.9213250003213588,8927.0875816666,1.0853933190255332,4.65767990552292,241.11302336493006,0.5185185185185185,0.5256410256410257,0.8048780487804879,0.04,50.01230012300122,50.020873638284925,50.0050174224049,51.28205128205128,0.49435629896989475,0.5056437010301055,35.975466323804476,36.38385370087372,0.5077523932789522,0.49224760672104784,39.57304992866541,38.96416197880359,0.5016019751179492,0.4983980248820506,37.81706266932848,37.696092163757676,0.8050459496298642,2.4063548161594603,1.3024269614708102,1.7246635631782876,-1.0011683747673619,-1.429363449770325,-0.3245326919903829,0.0036726842657148623,0.49667261069454244,0.4495285418433479,1.6486586255873814,5.799424848430088,1.2487812658488957,1.4653859618441576,1.1404997327692648,1.5115088942424717,1.710119635144005,1.8504015866948318,3.646352038245782,1.2523160499525183,Relax
83.00015719336722,724.0370370370371,52.946304036364154,,,,,,,70.46931956532573,70.9074811714247,0.07312651332456044,0.09732833537591666,714.0,38.547599999999996,0.05398823529411764,66.0,0.7513383748126363,691.0,769.0,34.5679012345679,59.25925925925925,599.0,837.0,7.363636363636363,117.1875,,,0.053323610651967564,0.06487443487155205,0.02497546043705484,0.14317350596057446,0.8219510621949231,0.3724404895599276,0.45311759627801845,-2.7353016485698323,50.139160773171845,55.08402959529827,0.9102304450408527,8676.661127383666,1.098622887696443,4.645322746092723,242.06630263977164,0.5061728395061729,0.5128205128205129,0.8,0.043478260869565216,50.97186700767262,51.052097689953825,50.89769477910585,56.41025641025641,0.5364634987439402,0.4635365012560601,36.727098263209456,34.139605419920244,0.46525030920719385,0.5347496907928062,37.5724087322471,40.28106774295659,0.49752088633718233,0.5024791136628177,37.15215770839213,37.33682549936795,0.7565076724582085,3.4243758705141167,1.3664824912545543,2.027902577253043,-1.7676785243589048,-1.806018084869828,-0.30684944906495126,0.008814484062155558,1.0256907718075199,0.4379936018855939,1.5293952047605637,5.80874444722223,1.1819751956771583,1.3678345525916795,1.1028319233321582,1.4865961054978323,1.6371482829618462,1.8287801918685178,2.9960688213904,1.0957765437084537,Relax
82.86163690141888,724.9135802469136,53.16112243239043,,,,,,,69.21154166755716,69.60230495055734,0.07333442755243068,0.09547557605967726,720.0,42.9954,0.05971583333333333,66.0,0.7680962040657686,691.0,769.0,34.5679012345679,56.79012345679012,599.0,849.0,7.363636363636363,101.5625,,,0.05672032474855768,0.04194805284436856,0.018660457794054237,0.11732883538698047,1.3521563196030983,0.48343039084534983,0.3575255196730895,-3.1713232632518187,49.216261816753104,55.0305144063072,0.8943449347642713,8508.67762042302,1.1181368185012162,4.636832179238077,246.12657719501468,0.5061728395061729,0.5128205128205129,0.825,0.043478260869565216,52.619233776387794,52.573081246536916,52.67259459686267,52.56410256410257,0.5181397582061431,0.48186024179385667,35.450178982248,34.18656927782227,0.5106059177334791,0.4893940822665208,39.32298651668985,38.497535599451204,0.5139564022747547,0.48604359772524525,37.43669629164137,36.40591824290629,0.8655439331927207,2.2785538338244473,1.388076633436489,1.541097133325676,-0.45084476987976707,-0.41572898569448613,-0.4328431491862761,0.0026982591694496255,0.4114001764338524,0.5100280134345949,1.5404450409471488,5.876766360855894,1.1595325344328928,0.7702225204735744,0.8610443931823246,1.1018200558999036,1.6582589808316335,1.8264753043011657,3.0581834905722727,1.0957765437084537,Relax
82.72616088655458,726.7283950617284,55.60935450661134,,,,,,,76.0577905279926,76.5371993199832,0.07652013446080894,0.10465779381240806,720.0,42.9954,0.05971583333333333,67.0,0.7311460682800753,691.0,769.0,34.5679012345679,55.55555555555556,599.0,858.0,7.363636363636363,101.5625,,,0.053475006631325046,0.02652199686789271,0.01796867816600582,0.09796568166522358,2.0162511479692315,0.5458544841658353,0.2707274263504425,-3.629780819821424,54.119972652186526,54.38212706092771,0.9951794013417777,9246.207413130027,1.0048439493941723,4.672933741370528,218.58220532943315,0.5185185185185185,0.5256410256410257,0.8292682926829268,0.09090909090909091,50.2557856272838,50.23645958747045,50.281371886745674,53.84615384615385,0.49506788278739705,0.5049321172126029,38.079613470009335,38.45711074806072,0.49334351555646094,0.5066564844435391,38.19714491875826,38.70909277839337,0.4942015380479979,0.5057984619520022,38.138424469096364,38.58330747107402,0.7681263634700224,3.0022973119756013,1.3475535552814775,1.8259362538646489,-1.0582377475662064,-1.0893594648720937,-0.3406611175132481,0.007733621793283231,0.8124027937199139,0.5026812946135166,1.4122698475231512,5.926149076905279,1.1379773892735525,1.094084121150907,1.0283858913557524,1.2549332359096013,1.6367676757070062,1.8449798245943931,2.855975364297342,1.017506790586421,Relax
82.69584530491193,727.4814814814815,52.54191448527335,,,,,,,74.60294900337385,75.04597325150647,0.07222440133908871,0.1025496193407542,727.0,47.4432,0.06525887207702888,65.0,0.7042873664806091,692.0,765.0,32.098765432098766,54.32098765432099,599.0,862.0,8.1,117.1875,,,0.048747188047075916,0.029291602316900957,0.0164255152140658,0.09446430557804267,1.6642035324557607,0.5160381770530554,0.3100811691533729,-3.530454414384387,53.06551658688447,50.335378377992704,1.0542389527379696,8391.422862317926,0.9485515569339329,4.6308057166618495,190.98280611721438,0.5308641975308642,0.5384615384615384,0.8333333333333334,0.08695652173913043,52.04545454545455,51.91992516899768,52.18242953327269,52.56410256410257,0.5087838687652724,0.4912161312347277,37.86510032714571,37.205637928557096,0.4640402724842265,0.5359597275157736,34.28871218386377,36.85016327274342,0.487600853453269,0.5123991465467312,36.12119603510284,37.0283271759523,0.8116620021785523,2.4076982313718203,1.3602939521975168,1.5300121206608783,-0.6997668144530014,-0.6306863742940356,-0.42951019930489287,0.002591073379536581,0.43675718011748466,0.5533497122195907,1.6357552207514738,5.975531792954661,1.15977933114105,1.1854572661539982,1.036787116570341,1.2087543864030075,1.6897057268875462,1.8215618226608783,3.6959675836454373,1.0957765437084537,Relax
82.22832612649736,730.1,50.81776824714219,,,,,,,67.76000089668673,68.1929717943291,0.06960384638699108,0.09280920544676993,729.0,48.925799999999995,0.06711358024691358,65.25,0.7499670539353112,693.6,765.8,31.25,57.49999999999999,599.0,846.0,8.0,117.1875,,,0.05056489164001042,0.03934278551818609,0.018082774052546016,0.10799045121074252,1.2852392369787071,0.46823483996129833,0.36431726210134036,-3.235442662269961,48.21971278503306,53.661142141375535,0.8985964677753877,8128.949096730024,1.1128465733630717,4.617004513982491,238.86647261911395,0.5375,0.5512820512820513,0.8604651162790697,0.08695652173913043,50.02720348204569,50.062135617599864,49.994179439650296,53.84615384615385,0.46960206439091096,0.530397935609089,33.043774385518155,35.11765937530575,0.46692559319951393,0.5330744068004861,36.667706942468946,39.17904342244875,0.4681212858914007,0.5318787141085993,34.90280617700969,37.203813268925295,0.8026376036556038,3.00665559854413,1.3365466548322829,1.9982009930066393,-1.4521939259259167,-1.8351356782518389,-0.2799367714430811,0.008126031911112297,0.853036489711443,0.48827869625457776,1.4718165345580527,5.953055907333274,1.1441295469548867,1.4065643488751949,0.8006701741222093,0.9662672418181764,1.7871194634033907,1.8202382942308053,3.5026653181750826,1.0273133154191965,Relax
82.63022616283523,726.8395061728395,47.51748541066842,,,,,,,66.93466964137494,67.35019006109651,0.06537548524415093,0.0920900268531333,728.0,45.9606,0.0631326923076923,59.0,0.7099084176445386,694.0,760.0,29.629629629629626,55.55555555555556,599.0,846.0,8.1,117.1875,,,0.05045180850895688,0.04329567722681681,0.03355482931052947,0.12730231504630315,1.165285121760554,0.3963149333977646,0.34010125590464757,-3.139702482056267,47.62377610640415,47.478389487791496,1.0030621640746689,7103.455748633851,0.9969471841483586,4.5584397893061315,189.33378683101103,0.5555555555555556,0.569620253164557,0.8444444444444444,0.09090909090909091,51.04223806911683,51.04767303644583,51.035534975116036,50.63291139240506,0.46888287483957364,0.5311171251604262,32.61367655959961,34.71064842269661,0.5487871711619839,0.451212828838016,35.17207204443226,31.892362980119493,0.5087088459398427,0.491291154060157,33.917005695026425,33.3313060828686,0.6724300660532713,2.7907456860650828,1.2350250233911895,1.4835032905807408,-0.8172677705868381,-0.4652728048776049,-0.41096348605669525,0.0037954647297448164,0.592003502617383,0.5636239913181811,1.704748092238425,5.966212194162521,1.1804838942499944,1.35745364834776,0.7669456113852173,1.0587233836273708,1.758056449840364,1.8594124559663672,4.063148771285972,1.0957765437084537,Relax
81.70231765442037,734.9125,54.90894505301885,,,,,,,71.50851945349156,71.90047306252397,0.07471494232717343,0.09730208623950683,735.0,42.9954,0.05849714285714285,58.5,0.767865779807273,695.8,769.4,31.25,60.0,599.0,974.0,10.0,210.9375,,,0.0538601456025897,0.06115636261383763,0.02935733796454975,0.1443738461809771,0.8806957003424359,0.37306026698959266,0.423597238915255,-2.794321372975728,50.84131207303139,52.72863231696349,0.9642069183098283,8421.959125903464,1.0371217847647412,4.632383239299937,218.74405302709192,0.5625,0.5822784810126582,0.8260869565217391,0.09090909090909091,53.11203319502075,52.7090324643201,53.591862956810274,48.10126582278481,0.5244724777455415,0.4755275222544583,36.85279100866317,35.09109025642571,0.6305197110618521,0.36948028893814777,41.869313545365586,32.05104131315225,0.5793800836196116,0.42061991638038837,39.44089008813277,33.605459858793836,0.7104603527759908,2.4129966714555193,1.2611142586136823,1.4247824901609527,-0.7053993072980624,-0.6168851244700964,-0.43217220998131517,0.0025572719546437046,0.4357196053656066,0.5702995976977214,2.031432322493475,6.003055907333274,1.134618119997383,1.3876292314890868,0.9669797500121365,1.2356321322436123,1.8146166827219363,1.8714603995563763,2.743419840284568,1.1063374166052884,Relax
81.56473734766118,736.4375,54.9816640897304,,,,,,,70.49777804201179,70.94791713501404,0.0746589684660686,0.09572812090912235,735.5,48.1845,0.065512576478586,59.5,0.7799063405511184,696.8,773.8000000000001,32.5,62.5,599.0,875.0,13.333333333333334,117.1875,,,0.04622639957453393,0.049230987940486304,0.012727567762577552,0.10818495527759778,0.9389695699467879,0.4272904624854634,0.4550631630263356,-3.0112320175586964,50.167753317229675,59.676498603358404,0.8406618097799456,9405.412746246462,1.189538989836785,4.680347968804492,283.9500874625411,0.5875,0.6075949367088608,0.875,0.09090909090909091,50.21579080985021,50.27464260814782,50.15741319500903,45.56962025316456,0.4428755173511621,0.557124482648838,33.38624006444909,37.445772757894815,0.6127128264126077,0.3872871735873922,46.71236113497986,37.13811792150835,0.5423865221955417,0.45761347780445827,40.59978884456052,37.2922626035734,0.6724680359957012,1.9257227294608457,1.1462083698872028,1.1833948821527676,-0.09059569469564366,-0.08366791995380951,-0.4806895812690666,0.0018780947176009087,0.29165623716232897,0.4792157327133655,1.8325814637483102,6.07192809488736,1.1660883050809197,1.0703338821280437,0.8916587691690558,1.1173127391379434,1.9755946817359848,1.8971254553915224,3.2922111659084585,1.0273133154191965,Relax
81.21885102571073,739.0,56.296907305392,,,,,,,74.24062827102118,74.7130983338397,0.07617984750391339,0.10046093135456181,735.5,45.2193,0.061481033310673006,57.75,0.7583032177458919,698.6,773.8000000000001,31.25,61.25000000000001,630.0,933.0,11.428571428571429,179.6875,,,0.03844265597947172,0.03235002148666585,0.010847498613337284,0.08164017607947485,1.1883347896791088,0.47087914095198263,0.3962512458960628,-3.4311405938417585,52.83013847531539,59.464663887195535,0.8884291110353227,9869.396345844953,1.125582207492795,4.7012607001505895,267.72947058386654,0.6,0.620253164556962,0.8775510204081632,0.13636363636363635,49.46835443037974,49.47587467446342,49.45602014985702,46.835443037974684,0.43751578928028456,0.5624842107197158,34.94537862406826,39.62306373171034,0.5933542181178182,0.4066457818821818,45.80532674940095,37.91989309844835,0.5246081472012557,0.4753918527987442,40.738847834707315,38.78082949141837,0.8331031671489683,1.7548812725701535,0.7829581728082973,1.5467583871638548,-0.53473639878802,-1.2071655662476395,-0.06475675802448133,0.002141427720226421,0.26872601637522636,0.6369853948535935,1.8417698898027164,6.0280559073332745,1.1825347534464619,1.7051882849515116,0.9568423554650358,1.1732416306733,1.874666119419618,1.8628992667099005,2.8714271730794376,1.1063374166052884,Relax
80.90764371601745,742.3924050632911,54.938991272958674,,,,,,,71.23183529135241,71.69251135102036,0.07400263108601571,0.09594903558486659,744.0,53.373599999999996,0.07173870967741935,69.0,0.771270191877652,700.2,786.4,34.177215189873415,65.82278481012658,630.0,875.0,13.166666666666666,195.3125,,,0.04878058738361719,0.0362974976740326,0.00837754579673311,0.0934556308543829,1.3439104761900722,0.521965203569427,0.38839283777977207,-3.3160064746870836,50.69426093660003,59.29030830869965,0.8550176644833145,9442.617056126304,1.1695664797806231,4.682062487259566,277.3758286948547,0.620253164556962,0.641025641025641,0.9,0.19047619047619047,50.22455089820358,50.26814490617168,50.178694971862015,46.15384615384615,0.45467064203956853,0.5453293579604315,34.18294934574877,37.436092730960034,0.579630960918942,0.420369039081058,45.13978604658038,38.44138882779348,0.5268576898685506,0.4731423101314494,40.03794644025265,37.94207040984087,0.8680202493573461,1.5456453609997916,1.2157740592280717,1.398551480205406,-0.2210090206573092,-0.7295235202214998,-0.3817468575979773,0.001180641577649814,0.18905521341043724,0.40885723323190293,1.897119984885881,6.117010020301616,1.2745447206197902,0.8080302629045553,0.9583282288378786,1.146329680536173,1.9664700420991925,1.8576817122168305,3.57190288637888,1.0373310091937005,Relax
81.18057887660808,739.7125,62.5670665482704,,,,,,,80.9351983324556,81.4427933865983,0.08458295154978508,0.1094143986108868,744.5,55.5975,0.07467763599731363,74.25,0.7730513773656937,696.8,787.8,38.75,68.75,572.0,875.0,13.333333333333334,218.75,,,0.0357294517327814,0.03821179602791676,0.0077659057829610086,0.08170715354365916,0.9350372253290108,0.437286702365538,0.4676676933495031,-3.2646110144951233,57.58875148243856,64.69095006103068,0.8902134135935279,11703.912469989917,1.1233261426193255,4.775301175134537,290.676141577748,0.5875,0.6075949367088608,0.8958333333333334,0.13043478260869565,48.9538855678907,48.76782653931785,49.112697509512444,48.10126582278481,0.4805329571585924,0.5194670428414078,39.92549150348523,41.51142876303727,0.4793833592554907,0.5206166407445095,44.79040676219995,46.67695878991516,0.4798916788525621,0.520108321147438,42.42773508990433,44.16977020442916,0.8195481002048538,1.789693109469411,1.2252578931862885,1.576980030471109,-0.478945020598152,-1.2041157716612514,-0.30347349195019513,0.0028075977661013844,0.3093053866973709,0.489851800491937,1.791759469228055,6.0374920011103175,1.1934371231996908,1.6559699805682357,0.8828591790485334,1.2914739585503257,1.9069471284137796,1.9004343102067676,3.522185704718282,1.1063374166052884,Relax
81.47364923599193,737.275,61.02665427209302,,,,,,,79.81783056403731,80.32744978259386,0.08277325865124006,0.10826059552275245,737.5,54.856199999999994,0.07438128813559321,72.0,0.7645742040449439,693.6,787.8,40.0,68.75,591.0,875.0,13.333333333333334,179.6875,,,0.01777341056206804,0.03498987319426606,0.011502150248538342,0.06426543400487245,0.5079587017474715,0.2765625228753688,0.5444586772978646,-3.3526965966655218,56.80008445669397,65.22760440565892,0.8707982605561733,11639.391674470453,1.1483716094716432,4.772900392739192,299.62211621322473,0.6125,0.6282051282051282,0.8775510204081632,0.13043478260869565,49.78549978549978,49.734164263574975,49.830506688425096,47.43589743589743,0.5192906815020862,0.48070931849791376,40.9313841096072,39.38151655477282,0.5013010443211525,0.4986989556788475,46.18285032293872,46.06283439553166,0.509059398201467,0.490940601798533,43.636188359429184,42.85258777894295,0.6936835178318875,1.3397832301651116,1.0206395132211847,1.1825125562431018,0.06586377368187435,-0.5709912523093408,-0.37917967669891767,0.0013144950489103703,0.1628724452315064,0.4862102552710281,1.7730673362159022,6.0374920011103175,1.2736268798360184,1.1994870758930372,0.960508151672137,1.300192658364466,1.8696099966021849,1.9082894230584588,3.9986453593991436,1.1063374166052884,Relax
81.70096384273128,735.5,63.16203794982144,,,,,,,80.08318460011567,80.59450072771403,0.08587632624040985,0.10888264391586087,735.5,60.0453,0.08163874915023793,77.25,0.7887053726098975,688.6,787.8,41.25,68.75,591.0,875.0,13.333333333333334,179.6875,,,0.048928968574371436,0.06377573400346923,0.022387357012888354,0.135092059590729,0.7672035349951415,0.36218981872513617,0.4720909148671087,-2.7523825057540217,56.98891799091073,69.39207667375108,0.8212597276609235,12423.677486711906,1.2176415892791395,4.801220278731925,337.9787140976247,0.625,0.6455696202531646,0.9019607843137255,0.13043478260869565,49.78858350951373,49.77059019985376,49.800995540985056,45.56962025316456,0.49035827352897066,0.5096417264710292,39.9070233520431,40.68413349143272,0.541488023096701,0.458511976903299,51.062763177312625,46.987812481466236,0.5208930808749996,0.4791069191250003,45.825627634124274,43.949136736357815,0.7183765077129259,1.9408889680181804,1.1842556828109,1.5012232950671827,-0.31131954737561074,-0.9411157004299053,-0.3366894667962719,0.003958044095751481,0.3912266136244544,0.4296147303346145,1.5141277326297753,6.1124920011103185,1.2540869032672102,1.071679113717389,0.9751607021243409,1.3718621990303812,1.8246391895664942,1.911505903937333,4.625124878821223,1.0273133154191965,Relax
81.41579441226601,737.4625,67.94095421388833,,,,,,,86.79694038823888,87.34386635556231,0.09212801222284298,0.11769675120869046,739.0,62.2692,0.08426143437077131,82.0,0.7827574786621676,686.8,787.8,41.25,70.0,591.0,941.0,13.333333333333334,187.5,,,0.04888560177742658,0.03199602557422712,0.004060344020849678,0.08494197137250338,1.5278648175854708,0.5755176267695074,0.3766809865279931,-3.4421435847013715,61.76144019506965,73.8384993463364,0.8364395368516387,14326.831365957976,1.1955436776267216,4.863120259016137,353.10860423582926,0.6125,0.6329113924050632,0.88,0.125,49.079878665318496,49.041381580378435,49.10779046435949,46.835443037974684,0.466448687166373,0.5335513128336271,42.18495600116839,45.11736830841225,0.5226814976474219,0.477318502352578,53.382809313626396,51.01372026723717,0.4995315916006794,0.5004684083993206,48.110782798846195,48.155874919789625,0.7124014377540658,2.2234962014540245,1.1883856117537628,1.4965200749246754,-0.8953591207746872,-1.2252589692281695,-0.36141893880033965,0.002287072987468767,0.38142375683596375,0.5091984618435887,1.6964492894237302,6.1124920011103185,1.2550655371704338,0.8614122860582473,0.945150242879307,1.1307800419158696,1.7041797138654426,1.9143386711154748,3.8984698836190277,1.1063374166052884,Relax
81.76483737570618,734.5802469135803,72.58888761331359,,,,,,,90.26232602808328,90.80866569784396,0.09881682487148788,0.12287605936496437,735.0,68.19959999999999,0.09278857142857141,91.0,0.8041991693270683,683.0,796.0,46.913580246913575,72.8395061728395,556.0,875.0,16.2,156.25,,,0.024445250782161317,0.04290325941843022,0.012192197908218497,0.07954070810881005,0.5697760756065124,0.3073300623464493,0.5393874462336876,-3.1488074788146956,64.2114233054477,78.33736630025776,0.8196780966484498,15802.69418724675,1.2199911210130676,4.905701245707774,382.2835653194511,0.6049382716049383,0.625,0.88,0.125,48.50045998160073,48.24449085460336,48.72070673239507,50.0,0.49069705714938877,0.5093029428506112,44.99141971644445,45.83645942542058,0.4562794431152025,0.5437205568847977,52.91568444053357,57.76394462855382,0.4701150027509989,0.5298849972490011,49.1136310402285,52.14237389930026,0.7230426543930277,2.0285847408504365,1.1762959516246394,1.3760303327997958,-0.35665875031757466,-0.5575459939953649,-0.40154003569433216,0.0022714022208693103,0.33519482937108996,0.45127213570687097,1.3499267169490157,6.12367994110281,1.2518810361159913,1.2256356306759257,0.9751658039048667,1.1090685522124641,1.726470510468879,1.8910015509304332,5.007103204654711,1.0957765437084537,Relax
81.58981620869883,736.375,75.50041914545402,,,,,,,93.15985988434551,93.72709110987871,0.10252985115661724,0.12651143762939468,736.0,75.6126,0.10273451086956521,100.5,0.8104393806429612,675.0,796.4,50.0,73.75,567.0,916.0,16.0,148.4375,,,0.04321935724328733,0.047987206883822874,0.017027351937203936,0.10823391606431414,0.9006433182894241,0.39931436295445294,0.44336570853916246,-3.036820826851571,66.27506170468462,82.07015922598252,0.8075415270268252,17087.766050956743,1.2383264098897313,4.9396553994140655,406.5185825335582,0.6,0.620253164556962,0.8775510204081632,0.13043478260869565,51.59631074849238,51.414028378189805,51.78915029721913,46.835443037974684,0.5054490666868917,0.49455093331310845,47.13231511611888,46.62142953951211,0.560265797269942,0.4397342027300583,61.43025687929862,54.42273950401163,0.538620793242248,0.4613792067577521,54.750030084291936,50.672439587162174,0.7458166940441237,1.5341690454681127,1.0625191880333285,1.3147222551232869,-0.2926119848709323,-0.8700189079415686,-0.3356093366406014,0.001448645878184368,0.1959003337994255,0.4388957907194051,1.4307461236907244,6.1030559073332755,1.3525804991712902,1.4770824781838932,1.0122788718089013,1.28958098995751,1.815931965856235,1.8779930631844186,4.723114517926065,1.1853615177913803,Relax
81.98334339473358,733.5375,75.22926035741712,,,,,,,95.13454829072882,95.7419547976292,0.10255680228675032,0.12969282182673525,725.0,78.5778,0.1083831724137931,102.0,0.7907669895853016,675.0,793.6,51.24999999999999,73.75,567.0,914.0,13.333333333333334,210.9375,,,0.04832754025963598,0.06402536091969767,0.014166288190119898,0.12651918936945356,0.7548187087964984,0.38197794738087415,0.5060525698811961,-2.74847600974418,67.69978548145951,82.61653616580855,0.8194459441580602,17571.310281004084,1.220336749640576,4.951774257717332,403.2799808445836,0.625,0.6455696202531646,0.9215686274509803,0.125,50.207397165572075,50.21740356933633,50.19220631933313,49.36708860759494,0.49528249109085926,0.5047175089091406,47.644853355656906,48.096524209402496,0.533445919920329,0.4665540800796711,60.34095528307156,56.431030147984266,0.5181143564868498,0.48188564351314994,54.36479989734025,52.42965193756463,0.8097519480885974,1.956447607038831,1.210339152839873,1.5544957755819293,-0.628389467187672,-1.1427624394272011,-0.32409106101085305,0.00257986605482897,0.33079308427748394,0.4407981787303532,1.263692039027558,6.053055907333273,1.3484379328176952,1.1254382941973742,1.1439113307047326,1.4228378861338826,2.026393272390278,1.8492266734399085,3.7208592630271458,0.9482892142331044,Relax
82.32035872459896,730.395061728395,81.22648567621673,,,,,,,98.10931403286845,98.69783111643643,0.11120897433781067,0.13432362727193714,713.0,83.0256,0.11644544179523142,111.0,0.8279181897959692,665.0,796.0,51.85185185185185,72.8395061728395,567.0,967.0,11.571428571428571,148.4375,,,0.051377668710524474,0.05662078243322232,0.016932850149199284,0.12493130129294608,0.9073994830629285,0.4112473669833245,0.4532153419298392,-2.8713791803683915,69.78990567083683,88.04663563969014,0.7926470462362171,19304.352967474453,1.2615955673440933,4.992625359725814,444.3169809703742,0.5925925925925926,0.6124999999999999,0.8775510204081632,0.13043478260869565,51.635083011906765,51.356181819939806,51.95114912017732,50.0,0.5307356159135623,0.46926438408643734,50.85876447624965,47.82285349553804,0.541698551969689,0.45830144803031103,64.80247647488852,59.6057806776312,0.5374668053255097,0.46253319467449033,58.24935571029569,54.0364432889766,0.8258631792708296,2.69859611858918,1.2956234911964397,1.8695523967010368,-1.4815110438285792,-1.7992025714496376,-0.28732315608433995,0.004667024635478858,0.607276177624131,0.4355962248256078,1.3499267169490154,6.058925465820876,1.3427367256793352,1.4741161732141956,1.1099680169543102,1.3977022809503206,1.8101721674012985,1.8454740469837871,4.331317198503989,1.017506790586421,Relax
82.70417449074556,726.3086419753087,80.83851835222313,,,,,,,103.16122091173601,103.79031853462531,0.11130050460692617,0.14203496275519056,713.0,81.54299999999999,0.11436605890603084,108.0,0.7836134318474961,661.0,793.0,59.25925925925925,76.5432098765432,567.0,936.0,13.5,125.0,,,0.0421238635481122,0.04472834402692859,0.01699287261024844,0.10384508018528922,0.9417711400795797,0.4056413984461394,0.43072184014033665,-3.107147883753466,73.39083805734538,87.28663633633383,0.8408026834091188,20125.166292294976,1.1893396866258796,5.010709587549658,415.2538428275296,0.5925925925925926,0.6124999999999999,0.8775510204081632,0.13043478260869565,48.70259481037925,48.61346861179223,48.786367945710126,52.5,0.4770002548806114,0.5229997451193885,50.69816364986364,53.086447291902566,0.5356768473852203,0.46432315261477974,63.88504365970097,59.47821516748375,0.5113694096245553,0.48863059037544465,57.66976071074968,56.372994268467956,0.8076609264675869,1.604746200342188,1.0815504574598385,1.506967705202757,-0.5593011715901177,-1.3588533560230505,-0.23490060443688565,0.0020761555858453662,0.23840997470844902,0.4509980208417659,1.349926716949016,6.009542749771494,1.3844975019306667,1.5187005412065373,1.1696617231165432,1.3565266867092591,1.783517334167812,1.8681363381409435,4.848575561299486,1.0957765437084537,Relax
82.9804028994095,724.6341463414634,85.40557014753331,,,,,,,116.22817065720767,116.95182346738198,0.11786026173170198,0.16039565792479013,707.0,89.6973,0.12687029702970296,121.5,0.734809553179843,655.4,807.4,60.97560975609756,78.04878048780488,567.0,936.0,13.666666666666666,125.0,,,0.030109543586402852,0.03745580605724023,0.01454267333414517,0.08210802297778826,0.8038685254934638,0.3667064739160513,0.45617717610096054,-3.2845935461292965,82.69742744591781,87.43192943056111,0.9458492793710624,22714.95782686949,1.057250898012995,5.063282044791729,369.7499436218782,0.5975609756097561,0.6172839506172839,0.88,0.08333333333333333,49.81263383297644,49.808488296358675,49.80711646113037,50.617283950617285,0.47118150878975856,0.5288184912102413,56.76596691680676,60.13775852158109,0.5556244855209835,0.4443755144790165,65.1719552312677,58.283432768534276,0.515750942257611,0.48424905774238886,61.113659474238496,59.217854297856206,0.7767431484765106,2.014807944421375,0.755960211039842,1.6924463425723513,-1.0599729962726023,-1.8765714400429085,-0.03519831300771693,0.003580738736216628,0.3883077118451019,0.45788420745567304,1.3862943611198906,5.982492400933164,1.365097125432327,0.9814796597221468,1.2110803505045769,1.365605094457161,1.7597768662616233,1.8801417164593752,3.695099849625647,1.0079045860979887,Relax
82.79304035421012,727.5185185185185,87.74310672513127,,,,,,,120.64555524344857,121.38745373410974,0.12060601138209766,0.1658315935230419,704.0,88.95599999999999,0.12635795454545454,124.0,0.7272800605714481,659.0,813.0,66.66666666666666,77.77777777777779,567.0,936.0,10.125,125.0,,,0.04784925499127411,0.03552008906088864,0.02516131088261625,0.10853065493477901,1.3471040263792915,0.44088239419571273,0.32728162455330495,-3.3376568535164735,85.83389168635729,89.5690791328618,0.958298248874883,24152.761099910582,1.0435164638713241,5.089936895646064,373.867234915739,0.5925925925925926,0.6124999999999999,0.8571428571428571,0.08333333333333333,51.094147582697204,51.04553457680338,51.129549984460034,52.5,0.5223663463949683,0.47763365360503185,62.04622613193481,59.330121280334836,0.5120003245175557,0.48799967548244416,64.09043619040168,62.57024792689342,0.5169635138450446,0.48303648615495554,63.076612893730825,60.97171154220681,0.7212237838495285,2.3674968013923934,1.1311682099787332,1.8166345908451023,-1.2307994370944968,-2.0585420667442107,-0.2104678745655637,0.007094436653325996,0.6088787968065,0.45249171581526015,1.3862943611198908,6.040286268236594,1.4314248166684076,1.3862943611198908,1.1998375015226759,1.3033419620375846,1.7787687136575134,1.9027594697145533,4.303332389039689,1.1740462968304861,Relax
82.99649576728369,726.2962962962963,88.80377869838148,,,,,,,123.4424461034372,124.18427444321338,0.12226935363877103,0.16996155251365652,704.0,91.9212,0.13056988636363637,118.0,0.7193941913948251,657.0,813.0,60.49382716049383,74.07407407407408,567.0,936.0,10.125,125.0,,,0.043081373563480206,0.024420427794671164,0.032581321918016014,0.10008312327616739,1.7641531068051597,0.43045592656618353,0.24400145594263598,-3.712335292243718,87.81154257552745,88.80213703024967,0.9888449254956018,24497.676557011324,1.0112809139398753,5.096095006313313,359.2156251830597,0.5679012345679012,0.5875,0.851063829787234,0.09523809523809523,51.556646428110085,51.55394790545341,51.54958772279834,55.00000000000001,0.5370975429086586,0.4629024570913412,64.37356364380126,59.76208103064956,0.5012870096428396,0.4987129903571604,62.873356013185415,62.711726533228855,0.5189967604951556,0.48100323950484447,63.62788143794861,61.254660940586405,0.7521195067532519,1.8791664924567106,1.0834508182558267,1.5879601108938575,-0.629333942613866,-1.4273135146053795,-0.2315249635073764,0.004167749701964397,0.3712549263428672,0.4863925974834853,1.3411739258394206,5.975531792954661,1.2461952296521093,1.1570616352867533,1.0761397460075108,1.3611470378215507,1.745694708610739,1.8721523849467354,3.478839932330584,1.0957765437084537,Relax
82.48703587238562,730.7901234567901,89.09387128885223,,,,,,,125.04944022265754,125.81780515863687,0.12191444359896325,0.1711153944324638,713.0,88.95599999999999,0.12476297335203365,124.0,0.7124691732343271,657.0,816.0,60.49382716049383,74.07407407407408,567.0,936.0,11.571428571428571,125.0,,,0.04494717018169521,0.0263958838566797,0.01177666108613597,0.08311971512451087,1.7028098178391153,0.540752216419001,0.31756465739974504,-3.6345471955055073,88.9666232216799,89.14885814315204,0.9979558356072321,24916.828591636382,1.0020483515600909,5.103462874562034,357.32586538323955,0.5432098765432098,0.5625,0.8,0.047619047619047616,51.15242582452566,51.16984064274822,51.12311486763379,55.00000000000001,0.5178342895101395,0.48216571048986034,64.0314894842344,61.78689386240869,0.5052198337035745,0.4947801662964256,63.36595443273056,62.70785219617206,0.5115151879221701,0.48848481207783,63.69959115544034,62.24907621893484,0.8502745910541809,2.3516423785920524,1.3110187065644148,1.918940556371085,-1.0046624715393317,-1.790352023581088,-0.241490519417056,0.006954584265238251,0.6069122220158336,0.433812933385588,1.4053425560905852,6.068245064613018,1.2456321134738315,1.1300959010005491,1.0321390498121052,1.126673376012455,1.7518109139949156,1.871755760046821,3.832199797878046,1.017506790586421,Relax
82.65762236754811,729.0370370370371,89.81946398810845,,,,,,,125.53430805958983,126.31622902537057,0.12320288191825483,0.17219194866942317,713.0,88.95599999999999,0.12476297335203365,129.0,0.7154973439250734,657.0,815.0,61.72839506172839,76.5432098765432,567.0,936.0,16.2,132.8125,,,0.048344584113835735,0.029710451560342292,0.027911591932481526,0.10596662760665955,1.6271911591665744,0.4562246171812444,0.28037555059905594,-3.516256390688681,89.31906211775254,90.80267894266422,0.9836610897146715,25479.604853539644,1.0166103045613686,5.113162798489391,369.24375637956024,0.5802469135802469,0.6,0.8541666666666666,0.1,50.796837746266775,50.76184061353744,50.815463083846936,53.75,0.509486328724551,0.49051367127544904,63.75953639270488,62.56110936566975,0.5089918859960612,0.4910081140039388,64.78196113982531,63.62722698690177,0.5092350548020407,0.4907649451979594,64.27278183700506,63.096419942442104,0.7208379746868043,2.596062470952092,1.0452591902545736,1.7628131136098177,-2.4190407353287355,-2.8155584996951677,-0.22359913084368685,0.002457570666637115,0.45733925751300364,0.43354954455263695,1.4307461236907242,6.068245064613018,1.392399831692567,0.9373964639918544,1.0718800106880366,1.1152846172824986,1.876570587101194,1.8726240023959524,4.804110564701174,1.017506790586421,Relax
82.34891109412554,732.2375,90.76611252854396,,,,,,,128.85253076111584,129.64801673792235,0.12395720313224051,0.17597095308710065,720.5,97.85159999999999,0.13581068702290075,126.0,0.7044185472524276,656.6,816.4,66.25,78.75,567.0,936.0,16.0,125.0,,,0.0428347452128488,0.021482823944595164,0.03489848534837446,0.09921605450581843,1.9939066355205848,0.43173199565536846,0.21652568277985015,-3.8405015494261345,91.67499180277191,89.32874563735787,1.0262652984621428,25727.168333465666,0.9744069116421442,5.117362098083299,348.1701886294582,0.575,0.5949367088607594,0.851063829787234,0.10526315789473684,51.27832303404822,51.23512982394766,51.30877954317326,51.89873417721519,0.5096951514712554,0.4903048485287445,65.46353457440532,64.20624819822683,0.5252652589471185,0.47473474105288155,64.74117457516954,61.54839650040614,0.5172767411796914,0.48272325882030864,65.10335645858414,62.89136434942206,0.7475987373458264,1.1048983303343338,0.9191776436343028,1.1996866382024947,-0.31342469843482235,-1.1044460994082281,-0.24612234730836102,0.0004981763267023931,0.08921431751997982,0.5085607588706007,1.8827312474337816,6.121928094887362,1.4685891665260915,1.1437095445795138,1.2105558844376099,1.2001418735463332,2.03009586817128,1.907234840160963,4.353752647563815,1.1853615177913803,Relax
82.81736677923729,728.1358024691358,90.24671089386302,,,,,,,131.61197703856593,132.42189900255562,0.12394214182001907,0.1807519649387721,713.0,88.95599999999999,0.12476297335203365,124.0,0.6857028738913197,655.0,818.0,67.90123456790124,80.24691358024691,567.0,936.0,16.2,125.0,,,0.0441589373118013,0.03211144273691524,0.030075228945108962,0.1063456089938255,1.37517761732444,0.4152398743079764,0.30195363062690866,-3.4385428408120644,93.63642276230719,86.64858780723054,1.080645687736108,25489.198268224878,0.9253726835249246,5.113326285440405,320.72894489128794,0.5925925925925926,0.6124999999999999,0.8571428571428571,0.10526315789473684,51.072215138518594,51.056706119668995,51.07490151182513,53.75,0.5222636041326745,0.4777363958673254,67.6794380082601,64.73006266533524,0.5127142338804822,0.4872857661195176,62.043912431583784,60.48578923325134,0.5178592294527855,0.48214077054721466,64.9228519049031,62.64388123283682,0.7145931154184851,1.1747005250009956,0.8664407420465323,1.2267909564832225,-0.6317897535839663,-1.4802745172356668,-0.19324078199727993,0.0005278519298369174,0.09852770200850769,0.5612607721126004,1.9661128563728325,6.167010496711785,1.4536480989186495,1.0733253303485506,1.0958683296327936,1.3559936451721222,1.8371627746473909,1.9407869345771083,4.296870781224273,1.2523160499525183,Relax
82.50953393978392,730.4074074074074,88.40259862947721,,,,,,,129.84798804756275,130.63406954765773,0.12103190319942624,0.1777747415082498,713.0,85.9908,0.12060420757363254,120.0,0.6808160831656146,657.0,816.0,65.4320987654321,80.24691358024691,555.0,936.0,13.5,132.8125,,,0.04789514481385316,0.024597936494933963,0.03737110041692731,0.10986418172571444,1.9471204352331484,0.4359486782819499,0.22389404907547455,-3.705092721881896,92.37223643114385,82.80654402990874,1.115518556091172,24030.122830555567,0.8964440748561331,5.0877261006781405,296.92574301970075,0.6419753086419753,0.6625,0.9056603773584906,0.1875,51.39751552795032,51.47370291797911,51.31880208432891,53.75,0.5394998665520002,0.4605001334479999,67.865233171468,62.69985767048227,0.4871138962193761,0.5128861037806238,57.79362279900938,59.30278996761482,0.5161654980290856,0.4838345019709145,63.03091586535887,61.0249664065527,0.6789812029296844,1.9174225626317853,0.7998828729391203,1.6109232725685876,-1.3925324782040374,-2.3389940548500583,-0.07701530406721492,0.0034808622371096365,0.3523836701705898,0.44686864807869764,1.6094379124341005,6.167010496711785,1.4131468148994453,0.9898914243281615,1.2909542513039745,1.320271056532526,1.807001112838,1.931545502719722,3.3911944676556836,1.1740462968304861,Relax
82.30108526950707,731.2,85.83018264669228,,,,,,,125.76364208659861,126.56364556143053,0.11738263491068418,0.17199622823659547,714.0,82.2843,0.11524411764705883,123.5,0.6824721455473685,661.8,816.6,65.0,81.25,580.0,936.0,13.333333333333334,109.375,,,0.044368186470035355,0.050982112115069866,0.05226077626623632,0.14761107485134153,0.8702696814501043,0.30057491631111255,0.3453813486990304,-2.9762804506242357,89.49401202817822,82.12697478305896,1.0897030149299853,23090.305353661508,0.9176812271775271,5.070399786167549,301.4655320131815,0.6375,0.6582278481012659,0.8846153846153846,0.26666666666666666,50.4663599054844,50.41354030763363,50.50644746545071,53.16455696202531,0.5082820929601609,0.49171790703983914,63.80559416033868,62.757316459762436,0.5112938415005399,0.4887061584994601,58.72474050405397,57.412932687232804,0.5096588794966793,0.4903411205033206,61.31781549200168,60.144515996803456,0.6499180347413868,1.0495377768865604,0.7070208403875835,1.149118208580885,-0.6052574338865364,-1.5541200046789727,-0.0787694564889532,0.0004950020912212628,0.08201139926032397,0.48610429097226326,1.6314168191528755,6.22192809488736,1.4727961407306003,1.041501587523254,1.4052545497957833,1.6008768658495935,1.8967451629420715,1.9435585676430627,7.312945304478713,1.1063374166052884,Relax
82.06147578001813,735.125,90.52901835630917,,,,,,,134.17992832222322,134.97881113242366,0.12314778895604035,0.18252668365546434,715.5,85.2495,0.11914675052410902,128.0,0.6746837585045536,668.6,819.2,67.5,81.25,580.0,963.0,11.428571428571429,140.625,,,0.04820280277242366,0.06452618587848492,0.05038741350809392,0.1631164021590025,0.7470269955704294,0.29551168450513376,0.3955836753656823,-2.7406841549568832,95.44443266823501,82.80064866695754,1.1527015090441326,24827.56986070026,0.8675272758419836,5.101904322559533,287.3272847039794,0.675,0.6962025316455697,0.9272727272727272,0.26666666666666666,51.81479758026989,51.81507748624604,51.80908095380177,50.63291139240506,0.5182713507919366,0.4817286492080633,68.74124652898705,66.27352025643037,0.5487209912053721,0.45127900879462785,61.33516335490314,55.62324294659819,0.5313405790853014,0.4686594209146985,65.14353858262393,61.18057143847127,0.5855776147580656,1.7724635571521463,0.8390058022301495,1.323616377478251,-1.0199189755827334,-1.6653202748105649,-0.22658925860978757,0.0020189939714213893,0.2547779812104011,0.4686992231937679,1.6739764335716711,6.196928094887362,1.564753577373799,1.4735315109138223,0.7063172450171735,0.8208535865014429,1.913807805807721,1.9848690297190381,3.5544499760414423,1.1063374166052884,Relax
82.39796393640677,730.6875,78.7060858068674,,,,,,,118.67528295652016,119.4324007323527,0.10771511187322542,0.16241592056319584,717.0,74.87129999999999,0.10442301255230124,115.5,0.6632053772789694,668.6,806.0,61.25000000000001,77.5,580.0,903.0,13.333333333333334,140.625,,,0.0547892022375317,0.06883437343884022,0.029879299791403104,0.15350287546777502,0.7959570124686651,0.35692622741150953,0.44842400006565786,-2.676052044871696,84.45146045123577,73.48943250145943,1.1491646836374556,19497.634763682076,0.8701972956867209,4.9969520407405374,255.80122169728725,0.675,0.6962025316455697,0.9454545454545454,0.25,50.281350482315105,50.23508384181352,50.31475599020112,54.43037974683544,0.524267001731046,0.47573299826895393,61.148778212839844,58.24962858910974,0.42969362765393093,0.5703063723460692,48.17307289680706,55.49821381869398,0.48351326104113496,0.5164867389588652,55.04460931482829,56.89055707160331,0.5936413462919314,2.0292621086997435,0.8569749632024241,1.3988042184071414,-1.5628383252989817,-2.0686193058398294,-0.23299198123208625,0.0015761764890815013,0.2840107067957148,0.4303000640405661,1.4586150226995165,6.171928094887361,1.5061080298079286,1.3252922757972996,1.1672987445298464,1.5903239385809822,1.8899901780015524,1.9817471264485824,6.721212653159528,1.1853615177913803,Relax
82.75789598603095,728.0123456790124,83.71551436668722,,,,,,,117.86098803251227,118.4940519524135,0.11499188834305592,0.161894216124294,715.0,77.09519999999999,0.10782545454545453,118.0,0.7102902814932628,663.0,797.0,56.79012345679012,75.30864197530865,552.0,985.0,13.5,171.875,,,0.04918696012879015,0.07354638649729721,0.024524255216234792,0.14725760184232214,0.6687882637252034,0.334019836758293,0.4994403384081176,-2.609838963021994,83.78794766582263,77.70925964651913,1.078223471011743,20455.22198029655,0.927451522699332,5.017774306790306,288.28628474800763,0.6666666666666666,0.6875,0.9090909090909091,0.4,52.78423860993296,52.63471061592485,52.97521896289849,52.5,0.54639578798467,0.4536042120153298,61.99264962553977,56.48395089634541,0.515509453516257,0.48449054648374307,55.794461236467924,54.08980615737502,0.5321278430899777,0.4678721569100222,58.97503926349968,55.29983652328081,0.6343458366812379,2.088904295692566,0.9179095650157905,1.4337436786366289,-1.625107927680883,-2.033476334887527,-0.25305995842676166,0.0013947865591349678,0.2854847199958787,0.48489517732804543,1.8607523407150068,6.167010496711785,1.4790049617418493,1.037312998806426,0.0,0.0,1.986390803485688,1.9594124019684727,2.9331264669383876,1.1740462968304861,Relax
82.33418114700248,730.0,78.45986235012141,,,,,,,108.81745034689978,109.49993858734767,0.107479263493317,0.14906500047520518,717.0,75.6126,0.10545690376569038,120.0,0.7210227964356706,670.0,809.0,54.32098765432099,72.8395061728395,552.0,903.0,16.2,171.875,,,0.04770872412502832,0.07424149823220197,0.014248493754430849,0.13619871611166115,0.6426153197476131,0.3502876200823714,0.5450969021714993,-2.6004320097783795,77.42814911462405,78.75788035717079,0.9831162134313881,19157.673603407147,1.017173744403708,4.989312879707161,320.44179225681063,0.6790123456790124,0.7,0.9107142857142857,0.4,49.434815373021856,49.34998645969241,49.511087735198146,53.75,0.49974506465223767,0.5002549353477626,54.73804129266009,54.76595773454782,0.4502814278656832,0.5497185721343167,52.84891025433923,58.39346199090467,0.47459307259098965,0.5254069274090102,53.80176799896154,56.60877374517799,0.7681626679715464,3.4146409375235276,1.2423671336433406,2.3773639297848623,-2.399007396645075,-3.2113752609473423,-0.16760874220506494,0.017096821630120582,1.3207262250427723,0.4294228750651228,1.767661917648994,6.117627780662401,1.460489001984208,1.1825071552457378,0.9912216237463034,1.1350626599721938,1.930707846082218,1.9167066033647298,4.277942587072451,1.0957765437084537,Relax
83.3749664327953,722.2716049382716,81.38043566264545,,,,,,,111.28016444991444,111.97339195688015,0.11267289909534872,0.1540696930200169,715.0,77.09519999999999,0.10782545454545453,125.0,0.7313112454940125,661.0,805.0,54.32098765432099,74.07407407407408,543.0,903.0,16.2,140.625,,,0.03032321311768702,0.04539561277777311,0.013148259436322002,0.08886708533178214,0.6679767330409089,0.34121984539581074,0.5108259442547282,-3.0923398134550952,79.17714476516917,84.01773471616241,0.942386093039211,20898.767626155888,1.0611362024401094,5.027090787032642,356.6170398173165,0.7283950617283951,0.75,0.9,0.5333333333333333,50.82449941107184,50.76602549490672,50.86395930190966,51.24999999999999,0.5219116106199694,0.47808838938003073,57.204828511789906,54.75052742361992,0.45345919032298204,0.5465408096770178,56.57702042796464,62.11296568615214,0.48565948939325554,0.5143405106067445,56.891790469142464,58.54759072538199,0.8396069189801458,2.090986015006949,0.9051235029243316,1.8544797138801201,-1.7734367483093827,-2.7121963231023827,-0.04597677643834764,0.003847901065104645,0.40765621428339593,0.4293316624387544,1.9218125974762525,6.092936422637709,1.4712294034083624,0.8828126274775883,0.0,0.0,2.0871868125142026,1.8946652753783888,4.53767958011578,1.0957765437084537,Relax
83.16150290813275,723.4938271604939,76.13296320530124,,,,,,,99.37385219462915,99.98961892319153,0.1052295960894391,0.13735272985623537,717.0,77.09519999999999,0.1075246861924686,103.0,0.7661267176821388,663.0,797.0,50.617283950617285,72.8395061728395,544.0,866.0,11.571428571428571,226.5625,,,0.04770529048072823,0.028444560300737286,0.009967600525760567,0.08611745130722609,1.6771322873812082,0.5539561349828904,0.3302996067459153,-3.5597983387742937,70.70333758884746,81.52177574664377,0.8672938848704888,18107.705357694245,1.153011703927012,4.964833529153208,375.982246243174,0.7407407407407407,0.759493670886076,0.9166666666666666,0.5333333333333333,50.989522700814895,50.9394233561411,51.023650161576064,51.89873417721519,0.5417353891644823,0.45826461083551784,52.0453794201497,47.86816018496711,0.44342886618833954,0.5565711338116605,54.28572117816129,60.81825710305259,0.4856361197889994,0.5143638802110007,53.17734970276542,54.727603439885236,0.8201904778319556,3.1542633300327836,1.2760685748301541,2.3098915748142463,-1.9811062603245198,-2.806245124256317,-0.1722458172275214,0.015889977240644938,1.1704955747462573,0.44402632906130624,1.9459101490553128,6.018862348563636,1.4637187465903356,1.6949391477223732,0.0,0.0,2.1737687615902415,1.8611411696277709,4.188022447417169,1.1740462968304861,Relax
82.45582645877388,728.8518518518518,74.35642391735752,,,,,,,90.61794800148589,91.18821733652138,0.10201857034242863,0.12432972183749778,721.0,71.1648,0.09870291262135922,109.0,0.820548528820563,670.0,798.0,44.44444444444444,69.1358024691358,544.0,866.0,11.571428571428571,218.75,,,0.04482595153017278,0.02688397666859382,0.00919563062820288,0.08090555882696948,1.6673854498073193,0.5540528015638682,0.3322883749692632,-3.61622483272951,64.47980684296695,82.60328737673241,0.7805961347384528,16732.88906763784,1.2810721902114732,4.930541041827304,423.2830971135133,0.7037037037037037,0.717948717948718,0.8928571428571429,0.5333333333333333,50.38906813437086,50.31472291381738,50.4579260194323,52.56410256410257,0.5194183846351736,0.48058161536482635,46.47178264580003,44.70069237421471,0.4503126191678089,0.5496873808321914,55.431213984375674,61.24282489942305,0.4764782079429459,0.5235217920570541,51.148050139082166,53.61359669149034,0.8937240071371604,2.6917844821732517,1.3733854812270596,2.0664814519154313,-1.1602888706666512,-1.810227054101314,-0.2425143152141249,0.009929120261986684,0.7935528497637675,0.45439820194255187,1.8607523407150062,5.994170990538944,1.3657414883947339,1.5080682508049936,0.0,0.0,2.1376380182810224,1.8017353917869474,3.246510712948961,0.9392370374643888,Relax
81.45287762926043,737.6962025316456,80.17454587278417,,,,,,,92.26383573543528,92.72873008198366,0.10868233508270615,0.12507023273103723,741.0,80.0604,0.10804372469635627,108.0,0.8689704393244942,675.2,809.4,44.303797468354425,70.88607594936708,544.0,999.0,11.285714285714286,218.75,,,0.04400337310417751,0.03160406259872723,0.008434037548089022,0.08404147325099376,1.3923328042626277,0.5235911675746021,0.37605317203733724,-3.4544696034019555,65.56911385178765,87.33516799337806,0.7507756080203479,17990.297574723638,1.331955899095882,4.962008456964463,465.3063688292391,0.6582278481012658,0.6753246753246753,0.8653846153846154,0.4375,53.65296803652969,53.313534615715255,54.0483980896729,50.649350649350644,0.5555886888840695,0.4444113111159304,48.9435136914743,43.773472367598195,0.5114679558115751,0.4885320441884248,62.459481525212574,61.04297450184744,0.5274014519534856,0.4725985480465143,56.109956179210755,53.114788991156125,0.9443346430684869,3.1935172413748516,0.9389862026667006,2.45843393127845,-2.3198636377314763,-3.1545449727765504,-0.024208697255191012,0.012793523645341654,1.097595282185176,0.47765328932001117,1.6314168191528755,6.050616191215076,1.3331471143576632,0.8557940720952326,0.0,0.0,1.9805550804232128,1.8225210712898796,2.503530736551503,0.9575363161788004,Relax
81.1203408568819,742.1392405063291,84.1113020512054,,,,,,,106.28209922364451,106.96269356891595,0.113336281738478,0.14321045623612746,756.0,87.4734,0.11570555555555555,113.0,0.7913966948866326,675.2,816.2,44.303797468354425,68.35443037974683,544.0,1016.0,9.875,226.5625,,,0.047741200462528305,0.016959743449326836,0.004090533376031925,0.06879147728788707,2.8149718540950714,0.6939987676487167,0.24653843932369132,-4.07691277554135,75.63404595655918,92.0944914457176,0.821265688851102,21882.697649954593,1.2176327509784755,5.047070969774549,448.5490758760511,0.6708860759493671,0.6883116883116883,0.8679245283018868,0.5,50.85432446714814,50.85141435899773,50.827767078163,50.649350649350644,0.4829748524252649,0.517025147574735,52.56653174540108,54.38797613491375,0.501744959983348,0.49825504001665205,65.23417335123888,65.00690718551273,0.49418376639661454,0.5058162336033856,59.23992586322059,59.93308739702058,0.8574574316703555,2.6031138005684267,1.3166691147844225,1.5806897752842521,-1.1943051261848616,-0.8154799697844317,-0.39857506020590533,0.0017769078803211403,0.42714078593817945,0.5057097865927833,1.9252908618525775,6.03024099533613,1.3155195493804241,0.0,0.0,0.0,1.8289819643989607,1.824008761157197,3.313970005656317,1.1171257022086005,Relax
81.02956367034747,743.775,84.72994703203014,,,,,,,107.30336741327295,107.9643996285212,0.11391878865521178,0.14426858581328084,747.0,73.3887,0.098244578313253,99.0,0.789629897687157,686.0,811.6,41.25,66.25,544.0,1016.0,10.0,218.75,,,0.043079559050399174,0.04517375131535675,0.016943130178246554,0.10519644054400248,0.9536413912066306,0.40951536789288495,0.42942281204335125,-3.0972390839405035,76.34235910406171,90.84939440351751,0.8403177545133519,21789.00936785624,1.190026028402939,5.045207595561257,432.45257601932053,0.6375,0.6538461538461539,0.8627450980392157,0.3157894736842105,51.626820061118096,51.419210996224265,51.82342924945004,52.56410256410257,0.5268099300027376,0.4731900699972625,55.42319703184551,52.526977195849874,0.48659931532549733,0.5134006846745024,63.37351318724742,65.09539376785165,0.5032461144005823,0.4967538855994176,59.53122266057112,59.145978828340446,0.9006372241062199,3.1879058071817394,1.493133020294733,1.7897192589816624,-1.658008670949675,-0.9861386393119957,-0.40696518133667015,0.0027801160676162937,0.6491651088642538,0.4687021336831143,1.572396640753751,5.9518075889569015,1.1951407187213372,0.9107028231440628,1.014325822635438,1.129208904980048,1.7879837638757627,1.7869551492428817,3.296987656559377,1.1063374166052884,Relax
80.56934127252701,746.8860759493671,87.49051045124722,,,,,,,108.38405124418705,109.05504266654675,0.11714036888428803,0.14511456932226252,756.0,84.5082,0.11178333333333333,111.0,0.8072267962574391,683.4,821.4,44.303797468354425,64.55696202531645,544.0,1016.0,9.875,218.75,,,0.03794314695293452,0.025745247437579465,0.008344077590389947,0.07203247198090394,1.4737922812716957,0.5267505877487223,0.35741168850077254,-3.6595052344376002,77.11356019210346,94.6982624220788,0.8143080793647648,22941.543685376273,1.2280364463288784,5.067592747218621,465.1716706333168,0.6075949367088608,0.6233766233766234,0.8333333333333334,0.3,51.755001755001764,51.55609576270631,51.94749686061275,53.246753246753244,0.5041101242641394,0.4958898757358605,54.766505547370194,54.31814649784212,0.4928382870129263,0.5071617129870739,66.48049280154812,67.439639549928,0.4973340211952202,0.5026659788047797,60.905771701074535,61.23138909736268,0.8337127020346631,3.560057007929899,1.4721577388738396,2.3310682464865424,-2.074837771137311,-2.4830435431936797,-0.2587368669379421,0.012432074632139162,1.2425827050931568,0.4929700415026068,1.5293952047605641,5.974666824126469,1.2173400198266418,1.1156968631140132,0.5556355963301274,0.8688263384539694,1.7870744458827672,1.78806354669989,3.46343824247362,0.9575363161788004,Relax
80.89991422951317,744.9367088607595,93.31231564251313,,,,,,,125.70432340646413,126.45672591761789,0.12526207197550615,0.16874497109788728,756.0,97.85159999999999,0.12943333333333332,129.5,0.7423158815372511,663.6,826.2,49.36708860759494,68.35443037974683,544.0,1016.0,11.285714285714286,218.75,,,0.024860369592824044,0.031127096897677432,0.011725398754074516,0.06771286524457598,0.7986729271459625,0.36714396153566164,0.4596925087315045,-3.469676556260032,89.41840842299624,94.93829296195224,0.9418581863361692,26669.705917183706,1.061730963861983,5.132988336778458,403.19570117561943,0.6075949367088608,0.6233766233766234,0.8333333333333334,0.3333333333333333,52.22725281145028,52.392748317862825,52.04126539780456,51.94805194805194,0.4905303998383803,0.5094696001616198,62.65707534595826,63.855203491861275,0.5129620328278189,0.4870379671721813,67.9961040034504,66.25563606880117,0.5024118379153936,0.49758816208460666,65.38111061521185,65.06649031517082,0.7544283159903445,2.467990382086181,1.2513888928437682,1.5462802461557197,-0.7683167163510518,-0.7288369177773455,-0.38051357272199693,0.00342625815619612,0.48338075296793925,0.44490355513833313,1.4423838277709342,5.999983279822671,1.2385187099330917,1.1223434707719306,1.2875629507697206,1.6335973241451747,1.802172561260385,1.838908614235929,2.6620319211644032,1.0373310091937005,Relax
81.02041130398655,742.6835443037975,99.76440764837278,,,,,,,137.78467035419936,138.6735482359667,0.13432963260535605,0.1855227188093426,741.0,99.3342,0.13405425101214574,132.0,0.7240602847320466,663.6,826.2,49.36708860759494,68.35443037974683,544.0,1082.0,13.166666666666666,289.0625,,,0.03785968074978531,0.05422361545781809,0.018933116754545266,0.11101641296214868,0.6982138765578496,0.3410277790428489,0.4884288188657813,-2.914638755876542,98.05700632885184,101.99751062889806,0.9613666620317517,31420.860549364555,1.0401858515528306,5.204188185214521,424.3854697991569,0.5822784810126582,0.5974025974025974,0.8043478260869565,0.2777777777777778,49.518966465090735,49.68363131174654,49.331933555294256,51.94805194805194,0.42623514316585637,0.5737648568341437,64.01952827067691,74.2770786688896,0.5437933192620783,0.45620668073792164,75.215354426368,68.89225379538702,0.48732764958400276,0.5126723504159972,69.84214179664079,71.6352812816158,0.7033906636384649,3.2678804336668987,1.2509148236649974,1.9875354851571339,-2.022605463860401,-2.19511902119273,-0.2745876336529326,0.008053563236591467,0.9237978471557283,0.5169126122172529,1.5656352897757075,5.999983279822671,1.2561051519949133,0.8393486897509406,1.2121448028351525,1.8400594647911288,1.732789633275362,1.8652185798056469,3.1619035843109926,0.9575363161788004,Relax
80.20285047944418,753.8076923076923,105.8837953696321,,,,,,,156.10332076303422,157.03418242459432,0.14046526249351673,0.20708639929786674,753.0,102.29939999999999,0.13585577689243028,133.0,0.6782930359973849,678.4,830.0,51.28205128205128,66.66666666666666,544.0,1080.0,13.0,289.0625,,,0.02607568186276968,0.05388260041793347,0.02039463175789688,0.10035291403860003,0.4839351044774566,0.25983980746926644,0.5369310989535183,-2.920947665465525,111.039935270516,96.18004110826294,1.1545008090142772,33551.66145487106,0.8661752267231486,5.2326841409590985,333.2350756527656,0.6410256410256411,0.6578947368421053,0.88,0.2631578947368421,52.61823253455052,52.680996752058185,52.560534147591056,51.31578947368421,0.5153758217394896,0.48462417826051024,79.76231137441714,77.34606954257087,0.5018382334644192,0.4981617665355811,68.13446203533822,67.88442671734218,0.5095767673316514,0.4904232326683486,74.17658401623257,72.76918944315105,0.6537648361445246,2.6831820473910692,1.267801519079946,1.4478486693772368,-0.4718789632689422,-0.20980764878939917,-0.43289789991239863,0.00491804894215122,0.616265741345465,0.5754960204656734,1.376244025266389,5.952068885528916,1.1411900945456894,1.1219417264664255,1.3456753447821217,1.5952049183478414,1.5478523316577724,1.8652060493511988,2.648773943613769,1.0475670364770413,Relax
80.12154558648828,753.9113924050633,105.29789121435529,,,,,,,162.54320924540303,163.5906871445099,0.13966878903161684,0.21559988465868868,750.0,97.85159999999999,0.1304688,127.0,0.6478147669360925,678.6,828.4,54.43037974683544,68.35443037974683,544.0,1080.0,13.166666666666666,218.75,,,0.04047993385775509,0.052353127714928074,0.036071904219022295,0.12890496579170546,0.7732094647367661,0.31402928203065256,0.4061374004747364,-2.9497435972243835,115.67608421884991,90.96850818013604,1.271605817584563,33058.60505831946,0.7864072231908447,5.226254634083615,286.15316766301765,0.6582278481012658,0.6710526315789473,0.8823529411764706,0.2777777777777778,49.447738635042434,49.58136190926573,49.28912240872885,53.94736842105263,0.47852345443455235,0.5214765455654476,80.02162856978755,83.53590098422805,0.4626247114799495,0.5373752885200506,61.873614375145046,66.6852706725805,0.4724484431024524,0.5275515568975476,71.52553807838567,75.58165147018845,0.5608817362427095,4.132960994001627,1.3266772840467183,2.0878728788502117,-1.8731525414213408,-1.5952914301856942,-0.31582318441711527,0.019252461503129606,1.681357845611737,0.5132597446786065,1.3862943611198904,5.949350368430267,1.1642177984703346,1.1945063128187032,1.2637855061955712,1.5262789005697153,1.6534815592262528,1.8962639389710165,3.2235755441093934,1.2767150882384006,Relax
79.98137425758199,754.3461538461538,104.64222620192818,,,,,,,158.2128272337572,159.16783444380684,0.1387191088181376,0.2097350485941818,749.0,86.73209999999999,0.11579719626168222,119.0,0.6614016577007424,681.0,825.6,52.56410256410257,66.66666666666666,544.0,1080.0,13.0,218.75,,,0.03689791294734676,0.07116908001823204,0.04191324206239662,0.14998023502797542,0.5184542632544117,0.24601850330788114,0.47452305968821196,-2.6426968242933278,112.54865508199353,92.17746320642352,1.2209997017378367,32592.29437430275,0.819001019063895,5.220085044192682,301.9737452031422,0.6153846153846154,0.6315789473684211,0.875,0.2631578947368421,52.396088019559905,52.52371460177927,52.27033854271751,53.94736842105263,0.5030782241453557,0.49692177585464437,79.86987772884751,79.37966728922065,0.5025454143473699,0.49745458565263023,65.34500703791547,65.01318926484336,0.502864449108831,0.49713555089116895,72.96974480291908,72.55289917478733,0.5270696657489877,2.6138019804631414,1.175534682671772,1.3755946090461517,-0.36216567167686264,-0.29965396860009497,-0.42346018257322965,0.0064601914204299666,0.6582852690798681,0.5718515492964302,1.4087672169719492,5.839826738065281,1.1289106563852551,1.0784901368778979,1.3014818659931664,1.6411145111359218,1.5456484238658417,1.896641374417673,2.7383911125620086,1.289313275664051,Relax
79.468489979961,759.3506493506494,98.30427605329419,,,,,,,155.86524206573614,156.8819737388924,0.12945834198911668,0.20526122180710932,750.0,85.9908,0.11465439999999999,120.0,0.6307004355200269,691.4,826.8000000000001,50.649350649350644,64.93506493506493,551.0,1080.0,15.4,171.875,,,0.0436071613857821,0.06950222175626557,0.02220373503704818,0.13531311817909583,0.6274211137984369,0.32226854256706394,0.5136399389176354,-2.6663965592062957,110.93230747670069,83.80902685544164,1.3236319718643523,29207.79133791276,0.755497012203088,5.17246882729059,253.26987753973808,0.5974025974025974,0.618421052631579,0.8723404255319149,0.21052631578947367,51.18373648996397,51.33334588010605,51.02514774479834,51.31578947368421,0.4859316421334726,0.5140683578665275,77.3389078450599,79.54646440917409,0.5468136819064201,0.4531863180935798,61.97413647542354,56.419494774250836,0.5080510651172156,0.4919489348827843,70.07888504585775,68.95940614079315,0.4980309008891707,2.6061606813485296,1.1620412983195916,1.3159159310930577,-0.29234130411085957,-0.1853902997440975,-0.4409573500687435,0.006192624194108717,0.646662585637642,0.572255731249383,1.3643154544011156,5.8315946575218245,1.1313198133662818,1.2952356508708323,1.2338015821083654,1.655014341896214,1.5289020264430082,1.8851678320049816,2.9495381098747258,1.302189411053486,Relax
79.71673401391455,757.3846153846154,103.04610376185748,,,,,,,162.83738203193082,163.90240164772453,0.13605518473533895,0.2149995903326326,743.0,89.6973,0.12072314939434724,127.0,0.6328160185088897,682.2,829.8,51.28205128205128,64.1025641025641,551.0,1080.0,13.0,132.8125,,,0.03983621824139119,0.055033111118619776,0.03715795355957169,0.13202728291958266,0.723859099216237,0.301727168509976,0.4168313541083796,-2.899820254552672,115.89649965786715,88.33262766411879,1.3120463267385056,32161.873684130554,0.7621682097809819,5.214311451872009,269.2972827680458,0.6153846153846154,0.6315789473684211,0.875,0.21052631578947367,50.44215626892791,50.493125293648056,50.38886419030726,51.31578947368421,0.4780252853825648,0.5219747146174353,80.13147091860318,83.73411082581264,0.5770447576427187,0.4229552423572813,67.10052215041075,57.447132541059716,0.5144091185837331,0.4855908814162668,73.90376412753518,71.80381032013396,0.5385672245886338,3.262301243522952,1.2865399939724307,1.7418885919708016,-0.9489962766430438,-0.9856957323933204,-0.36042104514338447,0.011910924988491249,1.0808025032661066,0.59061810508521,1.499234772300486,5.855789718806776,1.0929428097803167,1.331651914177421,1.333598135633837,1.8670114456970424,1.4235004893803482,1.8853641081817147,4.780097469045472,1.0475670364770413,Relax
80.13945163019935,752.974358974359,101.13614000207251,,,,,,,156.0,157.00031564113144,0.13431551658655683,0.20717836954300892,742.0,90.4386,0.12188490566037735,133.0,0.6483085897568751,680.4,829.8,55.12820512820513,67.94871794871796,551.0,1080.0,13.0,132.8125,,,0.04148533869737753,0.05309546802289545,0.03105591135649011,0.12563671807676308,0.7813348340669776,0.3302007512806113,0.42261107131479286,-2.9356637023446597,111.01598783827241,89.65367786592593,1.238275890971178,31268.245328306304,0.8075744729356731,5.202073620702151,289.608086597279,0.6282051282051282,0.6447368421052632,0.8979591836734694,0.2631578947368421,51.24633431085043,51.417873746448116,51.080328167593024,48.68421052631579,0.49249895403741567,0.5075010459625845,77.92033718720948,79.0982067798599,0.574491743143786,0.425508256856214,67.95321453965828,58.48198516307729,0.5248589565089071,0.47514104349109276,73.1068338585431,69.55813721055166,0.645849183583739,4.772586494993719,1.5736085454553377,2.5049063596237806,-2.370353311008728,-2.105189889123895,-0.3048651784215241,0.028427220466963388,2.370052762385087,0.5457520165076937,1.515127232962859,5.8911087893473315,1.1823963749306354,1.4982033052248094,1.4296115748436917,1.7465405360902067,1.5053639193018642,1.8922671900507908,2.8576205761806968,1.0475670364770413,Relax
80.80797214294415,746.1392405063291,99.54572898115786,,,,,,,159.1003150732589,160.12540924739798,0.1334144132583166,0.21323140030176357,721.0,84.5082,0.11720970873786409,114.0,0.6256790185193618,680.6,817.2,56.9620253164557,68.35443037974683,551.0,1080.0,13.166666666666666,132.8125,,,0.044755223756246895,0.04927481650227458,0.02731984884867146,0.12134988910719294,0.9082778371012491,0.368811410422575,0.4060557192495518,-3.0103421499020966,113.22576271910621,84.75557744926235,1.3359092832195865,30148.340714274967,0.7485538221502333,5.186233524664681,253.7764457927818,0.6708860759493671,0.6883116883116883,0.9056603773584906,0.3333333333333333,49.44670937682002,49.489418432796306,49.4148985442419,49.35064935064935,0.47641494382870414,0.523585056171296,78.15390244595895,81.93163130191054,0.5574588856589165,0.44254111434108323,63.28120031998601,56.38260010694531,0.5055176291918483,0.49448237080815177,71.10746367812125,70.32705668024191,0.6141399695169044,4.715659839386383,1.5100871552565818,2.442031953149792,-2.304106681568541,-1.9997572431155208,-0.302372344563666,0.029814982190727864,2.3519998642406788,0.5761533761878144,1.4663370687934267,6.025299735518874,1.1626108073509405,1.3141483418850606,1.3862638398158689,1.782524547403215,1.4759963648519718,1.8971573917940578,4.958316887898481,1.1171257022086005,Relax
81.37962688796841,742.8625,105.60659546793995,,,,,,,168.39942722173254,169.47495145035725,0.14216169946381726,0.22668990186169385,718.5,90.4386,0.1258713987473904,114.25,0.6271196833044278,678.0,815.8,57.49999999999999,68.75,487.0,1080.0,13.333333333333334,195.3125,,,0.043772383146817,0.05562391357246871,0.04136941990334555,0.14076571662263127,0.7869346174247317,0.31095911843480506,0.39515241997159634,-2.889142069967932,119.83688741180852,89.74790507545734,1.3352611106749877,33788.17329526268,0.7489171908065908,5.235734822919519,268.85499579955234,0.65,0.6666666666666666,0.9038461538461539,0.3157894736842105,50.17820498973972,50.129930259493804,50.20425357118117,50.0,0.49768982967096986,0.5023101703290301,84.54175117838341,84.93326943200913,0.49873340765488633,0.5012665923451138,63.38092164442894,63.541681099385926,0.4980648217772618,0.5019351782227383,74.71428551758001,75.00401820351465,0.5317537318014421,4.643806097300118,1.4588369740416502,2.3611141380455916,-2.097507245560573,-1.9124218565521225,-0.3057030924420983,0.031222769048309718,2.37204378428491,0.6215595396573184,1.9356536488881242,6.07192809488736,1.1660869516947088,1.5017195031772197,1.2033885278216763,1.9240757251382672,1.4941679946529176,1.9252332402622712,4.3502306311642975,1.1063374166052884,Relax
81.59000812515664,741.775,110.24586734124225,,,,,,,177.35646719445052,178.4853807983015,0.1486244040864713,0.23909739098035188,718.5,97.85159999999999,0.13618872651356992,114.25,0.6216061307782513,669.6,815.8,56.25,68.75,474.0,1080.0,13.333333333333334,210.9375,,,0.03534686314418023,0.06697977834999964,0.042836080714895565,0.14516272220907545,0.5277243970482685,0.24349821087862167,0.4614116994411953,-2.7033645208183343,126.2082231051422,89.85487505913211,1.4045784719202659,35626.993099421714,0.7119573736829758,5.258749279620271,255.89136343884653,0.7,0.7142857142857143,0.9454545454545454,0.3888888888888889,49.49463696369637,49.6973470732516,49.295920167196236,49.35064935064935,0.46217419123772124,0.5378258087622788,85.8027329072855,92.5590940828393,0.5551335137430546,0.44486648625694525,66.94842555146141,59.93168517631279,0.4934427031955446,0.5065572968044553,76.95518390004193,77.97112537827246,0.524438195235548,3.444283945615961,1.2528932088887759,1.813184973598898,-1.3264088181691225,-1.302213146631268,-0.3373270689766194,0.012645414256175885,1.1751660253994214,0.5716303079258505,1.5339303599259553,6.07192809488736,1.1289665642685578,1.0785291185620531,1.0085524978059524,1.5483160292844969,1.5126747102850475,1.9436256212179968,3.290974959855913,1.1063374166052884,Relax
82.42084659006684,732.675,104.59660606348564,,,,,,,163.91851170936326,164.93032864627335,0.14275989499230307,0.22372608825108442,710.0,57.8214,0.08143859154929577,89.5,0.6381012429452831,678.0,795.2,50.0,66.25,476.0,1080.0,11.428571428571429,296.875,,,0.04824215451020083,0.06875920640941072,0.03544159062797715,0.1524429515475887,0.7016101120038257,0.31646038088642553,0.4510487740585756,-2.6771446399911785,116.6233538091058,89.92069155222711,1.2969579281023371,32945.41916803612,0.7710350338527671,5.2247651474549075,277.32801382014264,0.6625,0.6753246753246753,0.9230769230769231,0.3684210526315789,51.582911615864425,51.78681561692452,51.39116825843373,46.75324675324675,0.4762386858456295,0.5237613141543704,80.4992036909173,84.42011851600547,0.5841812182588194,0.4158187817411808,68.72795683913535,57.98446962720896,0.5164733232133004,0.4835266767866995,74.84535338333919,72.41876527601507,0.5734991912791276,4.651583454799106,1.5726251930625827,2.3797814488846893,-2.008782719341724,-1.8035831262870963,-0.32647709889213067,0.027842853023283456,2.318443643609707,0.5815447466555232,1.3143208614948012,6.003055907333274,1.0622018145376015,0.6886706109712419,1.2602604453292763,1.518208803571132,1.434444190584103,1.9262167886925603,2.971508489959162,0.9482892142331044,Relax
82.33107821731151,732.175,99.844027096444,,,,,,,151.10638385093574,152.07192754000295,0.13636634287765084,0.2063801466192314,718.5,55.5975,0.07737995824634655,83.25,0.6607532028225801,680.8,794.2,51.24999999999999,68.75,476.0,1080.0,11.428571428571429,296.875,,,0.04320172072076976,0.07838128512907593,0.03219179503028002,0.1537748008801257,0.551173926909038,0.28094148373794625,0.5097147561269003,-2.54617009020988,107.53109119164537,92.6736192661485,1.1603204023232094,31306.89883321476,0.8618309201473888,5.202610159810388,319.4759622621342,0.65,0.6623376623376623,0.8823529411764706,0.4444444444444444,50.012416190712685,50.29853512527468,49.73265394122623,46.75324675324675,0.43153577578225727,0.5684642242177426,70.63866160128256,81.07475183196915,0.6033925987355404,0.3966074012644597,71.98733790550615,58.362855389070255,0.50478030492704,0.4952196950729598,71.31618796438168,70.63759011242142,0.44853967670290895,2.7994650792641735,1.1688083953581319,1.4318124179356797,-0.3432821843481886,-0.4040826474180388,-0.40605204382593074,0.010162611569405362,0.8499542811381571,0.5672087649962525,1.3121863889661687,5.862492001110319,1.1311900796916299,1.3566163091903396,1.1199469344803874,1.3477165892107716,1.6097888201309865,1.9643176478778681,3.2629660855568177,1.1063374166052884,Relax
83.52323415553596,720.8780487804878,93.88059006635753,,,,,,,139.76987259044998,140.63810926551088,0.1302308902666348,0.19388837380594293,709.5,56.3388,0.07940634249471458,77.75,0.6716797284450847,670.6,784.8,53.65853658536586,69.51219512195121,476.0,982.0,11.714285714285714,296.875,,,0.05090807577494964,0.12819579079804544,0.048291601887174754,0.22739546846016984,0.39711191341023205,0.2238746274043126,0.5637570162067674,-2.054196568123154,99.44616075489736,88.06849011205587,1.1291911627911966,27514.2985036529,0.8855896441202614,5.146528554607556,311.9701712661773,0.6341463414634146,0.641025641025641,0.9,0.3333333333333333,49.56389836935912,49.73504547038398,49.40227942208426,47.43589743589743,0.4363179630747259,0.5636820369252742,65.68975376723527,74.66433218076754,0.5910905002524953,0.4089094997475045,67.70917784989133,56.31630479274247,0.5043462578514487,0.49565374214855124,66.7071079987291,66.12975383860531,0.5620402284048538,2.650153701144345,1.2008604402455472,1.4485827749053493,-0.27754614842460157,-0.24589209316376093,-0.40652529528652054,0.008672226944020102,0.7281396721519077,0.562850613360101,1.3485540331370436,5.958102157030724,1.2064968682168196,1.2506803554834707,1.224611606543492,1.446623446263699,1.6679860020648751,1.9712126835718065,3.8153514604374306,1.162966830113064,Relax
84.19881369756358,716.5301204819277,94.72480517709691,,,,,,,142.41462996921453,143.2904980004736,0.13219933463981443,0.198755957214232,705.0,62.2692,0.08832510638297872,82.0,0.6651339486510155,649.0,785.0,59.036144578313255,73.49397590361446,476.0,982.0,11.857142857142858,289.0625,,,0.05460694100921406,0.12590609116083823,0.045201231243583787,0.2257142634136361,0.4337116695923523,0.2419295093865791,0.5578118513941989,-2.072218958158246,101.32168281573232,85.15324761654534,1.1898745573626888,27105.254094280404,0.8404247269699266,5.140023592828233,286.25957951495076,0.6506024096385542,0.6625,0.9245283018867925,0.2608695652173913,49.8110533774209,49.99087825739605,49.62939514425761,47.5,0.4645455103005319,0.5354544896994683,69.05866176977439,74.14217240137398,0.561586285470188,0.43841371452981204,63.813044124506774,56.38236407963431,0.5047145182485433,0.49528548175145665,66.48760548353485,65.8636193493931,0.5437898972032696,2.7562636772686853,1.1672795144147292,1.5253889005258534,-0.5199749538601068,-0.6032361016041441,-0.3700743368406638,0.009447176977574629,0.7871732841487575,0.5047142159847122,1.4198170531585341,5.98040223252568,1.2551485138270935,1.25313050192604,1.2842730279417733,1.533704630338466,1.7475066853962227,1.9710416647034623,3.1572278840267516,1.1521155598819743,Relax
84.45639861736373,715.3614457831326,98.99575974083288,,,,,,,148.72019070035924,149.63428920495372,0.13838565151139584,0.20789517184218637,696.0,65.2344,0.09372758620689654,82.5,0.6656511081288827,649.0,790.4000000000001,59.036144578313255,72.28915662650603,476.0,982.0,9.222222222222221,234.375,,,0.026838566857598865,0.09049439277232857,0.03402494459472152,0.15135790422464895,0.2965771252272061,0.17731856816519098,0.5978834949908838,-2.4024673885125636,105.80742059485178,86.59058096139302,1.221927597899207,28783.03947507499,0.8183790935888878,5.166106763271668,283.4556846420801,0.6024096385542169,0.6124999999999999,0.8775510204081632,0.16666666666666666,49.73219373219373,49.98006280798181,49.47986147098541,45.0,0.44929592297525817,0.5507040770247418,70.92275401475212,78.51967591739563,0.5854742750155474,0.4145257249844525,66.25590069062946,55.75019582840048,0.5039173803212502,0.4960826196787497,68.62900776407739,68.09340585210084,0.5651990666220813,3.4689483369145826,1.2865793756957198,1.9656069695265437,-1.1979921855489248,-1.422942264095686,-0.30425548959464255,0.019133811073956033,1.3855990517372037,0.5022814089073275,1.2272296664902032,5.856731599917361,1.2194780672110794,1.1076467416541975,1.1806758931683337,1.4012396204911188,1.4999778841723026,1.9676032486550765,2.952625062595997,1.0753078558898426,Relax
85.46067507665579,704.9759036144578,90.61052756146057,,,,,,,141.81970691089685,142.68836633933327,0.12852996406954398,0.20116958066761984,695.0,51.891,0.07466330935251798,63.5,0.6389135158655332,652.4,744.6,55.42168674698795,72.28915662650603,476.0,982.0,9.222222222222221,226.5625,,,0.020799603000716857,0.07966954949676704,0.025220955534400992,0.12569010803188488,0.2610734356111917,0.16548321364669719,0.6338569577532432,-2.5298678302215514,100.89591143497286,79.95810028925716,1.2618597874383068,25344.627218507005,0.7924810743276742,5.1108560177470554,253.46112487372176,0.6144578313253012,0.625,0.9,0.16666666666666666,49.46987951807229,49.72706006364318,49.224252109626654,45.0,0.41968844057791044,0.5803115594220893,65.36563827169951,76.86287292684226,0.6406787763616862,0.35932122363831387,64.00039228485986,47.92961077716947,0.5049345173417552,0.49506548265824474,64.68661716028524,64.05134199928547,0.48405789493067514,2.8029941214420715,1.1444521648367745,1.4454573014395455,-0.45167693258776964,-0.40978418943120665,-0.3926129975442434,0.009495325034913937,0.8082200475960467,0.5453077660633139,1.2116356770715049,5.799443798686475,1.2286049896621924,1.088419949097446,1.2048098237790748,1.248087280072107,1.499033997768696,1.9849921157142605,4.578703217945841,1.2289232638741059,Relax
81.72254523720463,739.7875,128.51643186570996,,,,,,,206.01745040995368,207.3135237058294,0.17372073989586193,0.27848192948644535,726.0,103.0407,0.1419293388429752,136.25,0.6238133304240752,639.2,822.4000000000001,62.5,77.5,430.0,1092.0,16.0,109.375,,,0.01666527380451358,0.07339650171054944,0.018433514315316826,0.10849528983037984,0.22705814876893843,0.15360366178631216,0.6764948213447478,-2.611879005116688,146.59279844407004,107.62995586821886,1.3620074194172944,49567.34651346626,0.7342103910328392,5.402165780422229,316.0921279394088,0.6625,0.6835443037974683,0.8703703703703703,0.29411764705882354,49.03569615970224,49.26251243834358,48.83388974022032,51.89873417721519,0.4297995354624438,0.570200464537556,96.11434829783714,110.705459296047,0.5683182952860448,0.4316817047139552,81.13887478834458,70.7155598031726,0.478310211794631,0.5216897882053692,88.9423547884713,92.88807543550678,0.41872016435160614,1.5670674284145907,0.7556988586329363,1.0029509468046856,-0.14580448851394134,-0.699945160653259,-0.34221987919058766,0.0018983933987504423,0.2224694787672933,0.5184183351403941,1.308332819650179,6.19692809488736,1.292743125710931,0.8059131579505631,1.037419600416504,1.0671861127270306,1.6770560080719077,1.9833721459366724,4.662480162925016,1.1063374166052884,Stress
80.73851807083432,748.7088607594936,138.1168357047603,,,,,,,218.49488053616454,219.9017872535283,0.1844733553235285,0.29182889636770476,733.0,99.3342,0.13551732605729877,141.0,0.6321284753484174,639.6,846.0,62.0253164556962,75.9493670886076,430.0,1138.0,15.8,109.375,,,0.017550583603810656,0.07218527309350159,0.026692330373021707,0.11642818707033395,0.24313246804618144,0.15074170650109323,0.6199982573798445,-2.6285192276630522,155.49404496201137,117.18818773801968,1.3268747299823975,57246.306583864396,0.7536506479502146,5.4647175820743215,353.27581448347973,0.6708860759493671,0.6883116883116883,0.8679245283018868,0.4,49.43426943426943,49.73153437985117,49.130683551839354,50.649350649350644,0.41111431280700145,0.5888856871929986,99.70329359277332,119.32836938574053,0.5919040135563489,0.40809598644365097,90.15908189279321,74.86261615499389,0.4766008942300316,0.5233991057699681,95.05105680895439,99.60841088439693,0.48204099284348584,2.554352209806032,0.4442914458356517,1.6563343694472774,-1.2150692593985735,-2.009303802800125,-0.02549890380870224,0.00873903390019827,0.7300471377193389,0.5332105484507759,1.258954938743289,6.177198469696089,1.2579959398070006,0.946630671804526,1.1068377421409707,1.1216530828868865,1.668337713546614,2.0074121830753486,3.9694727575868702,1.1171257022086005,Stress
80.85608274942444,752.3076923076923,146.79797122455187,,,,,,,235.08564341588308,236.6264075134915,0.1951302275990976,0.3124860290804172,731.5,94.8864,0.12971483253588517,136.0,0.6244446453280684,632.4,872.4000000000001,65.38461538461539,78.2051282051282,430.0,1138.0,15.6,109.375,,,0.017702857719979825,0.08981571628389075,0.014659307086187182,0.12217788109005775,0.197102004553684,0.14489412946137922,0.7351225564117229,-2.409995304689974,167.32013736060125,116.90198381941994,1.431285696734308,61449.72820322094,0.6986725307754066,5.495490076271287,326.70481955111904,0.6538461538461539,0.6753246753246753,0.8461538461538461,0.4,50.17612231132428,50.33374555008662,50.06871389611825,51.94805194805194,0.4679661843411645,0.5320338156588352,114.46083563707214,122.0448041111391,0.5207364923068418,0.47926350769315823,84.35889606384212,80.929910884702,0.48527591235130296,0.5147240876486971,100.54279248122901,103.54850237046435,0.31791352119327465,1.6162644317369779,0.6765178023829608,0.9902574762954668,-0.29940412170989994,-1.0317973471199657,-0.3058859257483417,0.002398709577069878,0.25539362849893815,0.5216844387824664,1.236762627148927,6.182838116298146,1.2198515313723017,1.10923884905992,1.075753184583275,1.36197339891516,1.6764769032254663,2.010952960150357,3.637427141268832,1.1281491162060446,Stress
79.6725956533905,760.8831168831168,146.84506461125457,,,,,,,233.1213542116502,234.6596740634806,0.19299293328098932,0.30638260862799666,742.0,108.2298,0.1458622641509434,135.0,0.62990825146775,647.8000000000001,878.6,68.83116883116884,81.81818181818183,430.0,1138.0,15.4,109.375,,,0.015778695884692842,0.08888920881937976,0.012190627655797296,0.1168585323598699,0.1775096898067198,0.1350239093890192,0.7606565564732779,-2.420364529438884,165.9294468013121,123.50386988751802,1.3435161744521322,64380.43459455913,0.7443155646472113,5.515724013988644,367.70341060577476,0.6363636363636364,0.6578947368421053,0.86,0.3333333333333333,50.624307351311415,50.77759257237422,50.47969238053225,50.0,0.45510564339365317,0.544894356606347,111.94361676010531,122.48964582091554,0.5644994750513967,0.43550052494860353,92.79238498134593,81.50324635661248,0.49410244688283567,0.5058975531171643,102.81488229789412,104.03483190739531,0.41394314248828384,2.4530911632001136,0.8706803533752325,1.4642873915531789,-0.8778002684671025,-1.4907932915386404,-0.2580167231112715,0.008521813309075539,0.6682750895236216,0.44414571092636157,1.2465324187447318,6.188864462772825,1.2689196454454899,1.2221171874325165,1.0408363930882354,1.2860466084633921,1.6713752692760342,2.0327018810208917,5.193620712591,1.302189411053486,Stress
79.15986862808295,768.1818181818181,141.37852580858458,,,,,,,233.3763901376577,234.9148479544741,0.1840430513484533,0.303803584794584,751.0,88.95599999999999,0.11845006657789613,112.0,0.6057961806898807,686.0,878.6,64.93506493506493,80.51948051948052,498.0,1138.0,12.833333333333334,46.875,,,0.0031835806074743695,0.0629429985879162,0.018234658335864816,0.08436123753125538,0.05057878841008304,0.037737481106709346,0.7461127933856608,-2.76552574647379,166.10988199001537,112.19043451422775,1.4806064590912131,58546.531686441595,0.6753989176933577,5.474471282400831,303.0931921858278,0.6883116883116883,0.7066666666666667,0.8867924528301887,0.42857142857142855,50.682761222180304,51.049792923104334,50.352291717957854,50.66666666666667,0.4414388405783096,0.5585611594216904,110.37058786953463,124.15192306202913,0.6259904510528291,0.37400954894717064,88.76457627754047,68.61154126500821,0.49924808576307184,0.5007519142369282,100.1519262630479,100.30265099876453,0.302020175726489,3.7754529477696863,0.8965000198363409,2.0430606906275974,-2.5025262060218676,-3.20863454195684,-0.1963117573830243,0.020122795620725737,1.6012477534811493,0.4322694850840083,1.0986122886681096,6.110942384850747,1.185247381616931,0.9332589365692353,0.9565308430514052,1.1294983731039254,1.6718681719478585,2.031812230790558,5.265076423001967,1.1394157346718001,Stress
79.61604882885491,760.1153846153846,132.22462005939042,,,,,,,213.89796086530993,215.28911635912553,0.17395335331397818,0.28140196237909515,740.0,77.8365,0.10518445945945946,101.0,0.6181668096529979,682.0,849.0,58.97435897435898,75.64102564102564,498.0,1138.0,13.0,234.375,,,0.013517804353646268,0.09239573403407542,0.018234755514906352,0.12414829390262805,0.14630333851410196,0.10888433444158764,0.7442368407136002,-2.381674469862682,152.2323940931973,105.05529335380551,1.4490692399526088,50242.92211326038,0.6900981488177228,5.4080449998621045,289.993853867856,0.6538461538461539,0.6756756756756757,0.88,0.375,49.27745664739884,49.989611736049866,48.60800040536131,50.0,0.3975415350290808,0.602458464970919,95.9890001921821,118.1663357083431,0.65523635526926,0.3447636447307398,85.03876272273446,61.68487250728983,0.48066821545683514,0.5193317845431651,90.67932323112107,94.25578600536267,0.2565411850539633,3.769883920699821,0.916957971226839,1.924178729096467,-2.3078767874520363,-2.8668557861358757,-0.2328244638146172,0.017026720174489116,1.5063130428439797,0.5145645762876714,1.1245877750713702,6.121878020116563,1.0811044986230884,1.2507495666716875,1.1620747581574045,1.1703259393391559,1.5445101499166458,2.00061626359347,3.4254021973057096,1.208731195935048,Stress
79.64710719551681,760.6493506493506,137.26556725384614,,,,,,,217.45888903664672,218.80836444450014,0.18045840325330637,0.285885853778757,751.0,90.4386,0.1204242343541944,121.0,0.6312253679853658,674.6,862.6,64.93506493506493,79.22077922077922,498.0,1138.0,15.4,234.375,,,0.022128420471481215,0.09874227400771483,0.033786243289045746,0.1546569377682418,0.22410280392927046,0.14308068419563133,0.638460035693214,-2.3152421161582084,154.7208782790435,112.3952299668373,1.3765786886569344,54631.946570466534,0.7264386760016274,5.444416784936401,326.59296818403095,0.6363636363636364,0.6486486486486486,0.875,0.35294117647058826,51.961099501687826,52.38696875225287,51.60259139083456,47.2972972972973,0.4495511302990943,0.5504488697009055,103.78339623144606,114.84096249451527,0.6542149472727571,0.3457850527272431,90.90925767045898,66.09231868458194,0.520207149733142,0.479792850266858,97.55892184604963,93.692692499925,0.3915449138270314,2.951856582490681,1.0134190461829893,1.5976007557606033,-1.0433842557952158,-1.4242411954243508,-0.3020968521835501,0.011715363356386328,0.9564946503033274,0.4869661066780018,1.3862943611198906,6.136916410824774,1.2045895228347094,1.174647062483446,1.0191490976789574,1.24738735042139,1.691717799543727,2.013697049447155,3.3089844544168527,1.1394157346718001,Stress
79.3358354724809,762.8051948051948,126.52948886171274,,,,,,,201.43514693581315,202.76095120444995,0.16587392131489853,0.2640715457991285,751.0,75.6126,0.10068255659121172,97.0,0.6281400777692041,690.2,823.2,58.44155844155844,75.32467532467533,498.0,1138.0,15.4,226.5625,,,0.017421655060859093,0.0748082591888806,0.031968848979276654,0.12419876322901634,0.23288411266023185,0.14027237154314032,0.6023269253570415,-2.5928269831335653,143.3736435565012,106.72871454661077,1.3433464852037245,48072.9168047705,0.7444095853262649,5.388870583531794,317.7995125521913,0.6493506493506493,0.6575342465753425,0.8958333333333334,0.3333333333333333,50.78246545254872,51.10864546687598,50.50748412128405,49.31506849315068,0.43804902092720455,0.5619509790727952,94.89815593571878,107.48444848752152,0.6178933679277538,0.3821066320722463,83.89538003080065,65.97411400132223,0.5021691111922931,0.4978308888077069,89.56588298708516,89.17816544683494,0.30354726654969955,4.161217217393122,1.0709420102976215,2.1811342933271667,-2.3771888351368258,-2.9707042865380195,-0.23320491937091256,0.026067299321311983,2.0138074622855395,0.5431394806362198,1.2272296664902032,6.084968358876722,1.1020810613262622,1.2083411425362154,0.8825860380237994,0.9152625501863696,1.5800764040148865,1.9779581341558572,4.791381235223962,1.1394157346718001,Stress
79.68036313635372,758.8717948717949,136.53393650486976,,,,,,,218.8253469494164,220.26014259722857,0.17991699971921613,0.2883561471491836,751.0,88.95599999999999,0.11845006657789613,116.5,0.6239402263414708,675.2,841.8000000000001,62.82051282051282,79.48717948717949,498.0,1138.0,15.6,226.5625,,,0.020911610014272865,0.10921415077544974,0.05231221056011305,0.18243797134983564,0.1914734479533543,0.11462312291432802,0.5986371694849923,-2.2144446382110874,155.74744045561624,111.30847169688802,1.3992415678812222,54462.68030081535,0.7146728791899979,5.443069120656706,318.1965837834134,0.6666666666666666,0.6799999999999999,0.9215686274509803,0.3888888888888889,50.07586041683302,50.61194187120693,49.60138111527386,48.0,0.4161186989589946,0.5838813010410053,100.46847502417964,119.01000621354227,0.6558187731165387,0.3441812268834612,90.14053720429773,65.30129726136794,0.49715650926178917,0.5028434907382108,95.44430554298039,95.98864777400739,0.23805918264957981,4.1702003321762815,0.9976802370780467,2.0818103374820693,-2.2051048632956327,-2.6694941644990484,-0.24002925182295667,0.02910118091890405,2.0807694625298208,0.5627733993109203,1.3766324502081533,6.080274013734044,1.1836447230646323,0.8795878182797321,1.116043083194933,1.2180473186540648,1.6523880019165578,2.0260447789216314,3.3533511992507856,1.1281491162060446,Stress
79.31914858889773,765.1298701298701,137.01780048105837,,,,,,,218.76636780869796,220.10932650397868,0.1790778347965967,0.28592056897682666,756.0,75.6126,0.10001666666666667,103.0,0.6263202239609094,674.6,847.4000000000001,63.63636363636363,77.92207792207793,498.0,1138.0,15.4,289.0625,,,0.02135583971951335,0.11016361559682061,0.036533490623703604,0.16805294594003756,0.193855653736638,0.12707804436307388,0.6555292142044791,-2.2057886037784447,155.64079737336718,108.88707292017178,1.4293780997076844,53241.42161001633,0.6996049542136581,5.433219753104451,304.71174265910406,0.6623376623376623,0.6756756756756757,0.92,0.3157894736842105,52.16107602722876,52.45564880779766,51.94264470387472,51.35135135135135,0.4685638624427214,0.5314361375572787,106.59236995832926,113.5186621955468,0.6147299097022803,0.38527009029771964,85.37259754774867,67.5863465285182,0.5165630658025363,0.48343693419746386,96.56711071939348,93.41948646759842,0.3770040976441475,3.0924978403640018,1.005404137399131,1.6560136199437692,-1.39793480212815,-1.7947087943152082,-0.2896168352802929,0.010859124976024268,0.9860292560532599,0.5337096530154795,1.3173014896329391,6.03302030692867,1.1853472815219523,1.1714020857167768,1.087099187731132,1.2860423050119236,1.572001638731666,2.0019108593964607,3.3789244145670505,1.220802572862643,Stress
79.19514774106159,764.6753246753246,136.26893316627522,,,,,,,217.46079501469006,218.89080631154724,0.17820495675616835,0.2843831728283141,762.0,80.0604,0.10506614173228347,110.0,0.626636783688158,674.6,844.6,66.23376623376623,76.62337662337663,492.0,1138.0,12.833333333333334,289.0625,,,0.014331710846177043,0.07557421918366206,0.02937128353628394,0.11927721356612303,0.189637564251214,0.12015464159239479,0.63360148115605,-2.582640070044985,154.77917348228618,112.19123515504245,1.37960129655752,54553.33749586365,0.7248471007495221,5.443791435219758,325.2859661265615,0.6233766233766234,0.6351351351351351,0.9148936170212766,0.2631578947368421,50.79027106707068,51.450510413987914,50.20817404759551,54.054054054054056,0.44135483262423075,0.5586451673757693,102.83384656814117,115.69382005967302,0.623201834440554,0.37679816555944606,88.56727666885436,68.86734167278884,0.5039838273027549,0.496016172697245,95.96604216215597,95.20443988879047,0.2825931674733519,4.792817221164451,1.2744980379630138,2.500196723226312,-2.350585942079462,-2.992111950970235,-0.24426341988365965,0.052166849294719535,3.1690365954442083,0.5021323519198044,1.2070929316621797,6.058994332902696,1.1625495023215193,0.9523344279747892,1.0969657663294345,1.327559522905696,1.5132406160487764,1.9972171558126632,3.1124102777239218,1.220802572862643,Stress
79.59437552484061,760.3506493506494,144.22385435165182,,,,,,,226.09912823687245,227.5964557427612,0.18968071438463438,0.2973616560069547,760.0,123.05579999999999,0.16191552631578945,142.0,0.6378788608178794,622.0,851.4000000000001,67.53246753246754,79.22077922077922,498.0,1138.0,15.4,289.0625,,,0.010151796091903285,0.09198745017437526,0.029708866249356612,0.13184811251563516,0.11036066411949799,0.07699614274492884,0.6976774139521107,-2.3861031223860385,160.9349972297304,125.10286714708438,1.2864213338973114,63251.034453018554,0.7773502923575,5.508037742632792,388.9950014061901,0.6753246753246753,0.6891891891891893,0.9411764705882353,0.3157894736842105,49.558891812412945,49.92625015839812,49.21277649654901,51.35135135135135,0.42201626590466035,0.5779837340953397,104.55014745725295,122.35391289206896,0.6141917394056386,0.38580826059436135,98.0435998185193,77.70572632082587,0.4944000316654264,0.5055999683345733,101.34910162085131,102.49063348191163,0.32184482769580647,3.511732589130411,0.926359812208408,1.8662966425137257,-2.3259260489683964,-2.8936591242084413,-0.23234384838565725,0.012764909542428612,1.2284669518312772,0.4209980078733646,1.1198896871153947,6.049190599108365,1.223306175939958,0.740074469030648,0.9990346027824677,1.3804709911624071,1.4840265969007098,2.0296985581041933,4.3608362529948534,1.1394157346718001,Stress
79.20743701857198,763.922077922078,134.23278741305367,,,,,,,208.03298700977817,209.4149289237526,0.1757152873211576,0.27232226037456936,766.0,85.9908,0.11225953002610965,132.0,0.6452476087686244,671.6,844.6,59.74025974025974,75.32467532467533,498.0,1100.0,9.625,281.25,,,0.009148161840138804,0.10196926176326679,0.023903679091829562,0.13502110269523515,0.08971489723420083,0.06775357079394997,0.7552098133387949,-2.283083866376578,148.07871632368432,118.09803948340785,1.2538626125498773,54939.563130469156,0.7975355433609925,5.446855311628407,376.7495363570705,0.6363636363636364,0.6486486486486486,0.875,0.2777777777777778,50.12867157689237,50.76446005836647,49.498029278148096,48.64864864864865,0.3779192954196991,0.622080704580301,91.03175270201052,116.79297924104854,0.7446708034861959,0.2553291965138042,101.91188895596275,59.67506865728833,0.5205033963820357,0.4794966036179643,96.62508243352883,92.74080498694217,0.41600841473568867,3.349759221433971,1.111272798205051,1.8062807710801108,-1.7617738046787537,-2.181721336820053,-0.2925200210128716,0.010858034459378371,1.1010826276961057,0.5188160466882299,1.0586069540544105,5.987438813365983,1.1451439127340959,1.0657710911424991,0.8837376620041069,1.2425349908846557,1.3624236845666526,1.962681144435636,4.3100042222307176,1.220802572862643,Stress
80.159056125953,754.7307692307693,133.5146932988026,,,,,,,205.7032284185598,207.05205707839863,0.17690373672572324,0.2725517983428912,760.0,89.6973,0.11802276315789474,126.75,0.6490646467984947,626.6,835.8000000000001,61.53846153846154,74.35897435897436,498.0,1067.0,9.75,281.25,,,0.006876993302587278,0.08672668771272019,0.021116049141016502,0.11471973015632396,0.07929500692298007,0.05994603799378081,0.7559875497836441,-2.4449936258057874,146.40791361875978,116.48122863095419,1.2569228135687156,53576.01004500683,0.7955938019461608,5.435940477316124,370.6869741674434,0.6410256410256411,0.6533333333333333,0.8979591836734694,0.2631578947368421,50.05197505197505,50.654702726961865,49.46871900400105,46.666666666666664,0.38732856909596947,0.6126714309040305,91.11805529092464,114.59838338163505,0.7167372770410352,0.28326272295896476,98.6134014536953,61.994142280613474,0.5150134961014681,0.4849865038985319,94.93972547429152,92.13051381272426,0.35667828662408174,3.3434870454270205,1.0191295520974335,1.7742425776234574,-1.7081704888697757,-2.161367412218569,-0.2741540447842282,0.012580989311313651,1.156832373020289,0.547369014790466,1.0854542040905983,6.00963587265293,1.200508075935558,0.7995591744271964,1.1233208438785263,1.4685789380389838,1.3452664674506702,1.9875931438013401,3.4765301078151936,1.208731195935048,Stress
80.59691816516502,752.3461538461538,125.28998331901845,,,,,,,194.17858964191876,195.42370061343397,0.16653236369789273,0.2580974045646893,760.0,74.87129999999999,0.09851486842105261,114.25,0.6452306793970615,649.4,814.0,57.692307692307686,73.07692307692307,496.0,1067.0,11.142857142857142,289.0625,,,0.017207066193902075,0.11498874408100127,0.02322279986359512,0.15541861013849848,0.14964130908135617,0.11071432294091621,0.7398647046098993,-2.1629210329657185,138.18542390832883,110.81073797877724,1.2470400110032158,48105.413830441816,0.8018988895115903,5.389164065012938,355.43603092456505,0.6282051282051282,0.64,0.875,0.2,51.18891593334581,51.691189950380064,50.66430203748329,48.0,0.4109137501679119,0.5890862498320883,88.59317129440619,106.07532080654069,0.688018161612019,0.31198183838798077,91.91402791171177,61.89370827835652,0.5193458197747627,0.4806541802252374,90.26887206272971,86.84124828863534,0.5072985140251121,4.536390383850092,1.5729440648367963,2.566364101067257,-1.826246085272242,-2.412762875830377,-0.2810109024639691,0.0462714003059857,2.8527930169853972,0.5127703418637468,1.177083904109605,5.9583538213708795,1.212151512117388,0.9271847134627971,1.1989607944658611,1.2475345882613162,1.2844516830990471,1.973729329677699,3.6638428668124248,1.1281491162060446,Stress
80.6922264562703,751.9230769230769,142.55796444525024,,,,,,,213.95769699614948,215.21496907005564,0.1895911547609466,0.2845473208132934,755.5,100.8168,0.1334438120450033,129.0,0.666290423044775,626.6,832.2,62.82051282051282,75.64102564102564,451.0,1131.0,13.0,335.9375,,,0.009120331290861906,0.10100176040707508,0.014142806091835542,0.12426489778977254,0.09029873592404272,0.07339426863965556,0.8127939764449547,-2.292617332519754,152.17996404228944,124.1769933056797,1.2255085261057688,59367.46295472195,0.8159877950238708,5.480518599879811,405.3076438407822,0.6153846153846154,0.6315789473684211,0.8541666666666666,0.2777777777777778,52.49464844393215,53.05935623228353,52.01926282975644,43.42105263157895,0.4043038975879586,0.5956961024120413,96.82900011441765,117.53409359796302,0.7710105498573818,0.22898945014261818,109.03634883304261,59.42222058790694,0.5507577401831568,0.4492422598168433,103.11348270230921,93.12696563695341,0.45266783283087697,4.156767345781374,1.4060142126714417,2.3531114431451394,-1.6267226160913584,-2.267495825214702,-0.272155342916921,0.043309539238885315,2.4874730557271953,0.5171892118242147,1.355522702453137,5.9936728919114355,1.3738067777425795,1.0145714722721901,1.2683785136677221,1.7056913066064348,1.3854648304913968,2.0144553931862896,3.2273629942348916,1.1281491162060446,Stress
80.35484569661031,752.2278481012659,135.86002877840465,,,,,,,207.75947631816942,209.0879660711672,0.1806102088899466,0.2761922160188366,758.0,111.195,0.1466952506596306,134.0,0.653929395597553,629.4,843.8,64.55696202531645,77.21518987341773,451.0,1067.0,13.166666666666666,328.125,,,0.01929132952802248,0.1507500000611835,0.02270059728870543,0.19274192687791142,0.12796901837607222,0.10008891080684376,0.7821339264532368,-1.8921324429689816,147.84751867342507,121.80117052608787,1.2138431678023855,56573.80312530749,0.8238296565201746,5.459585484756956,401.37366591304874,0.5949367088607594,0.6153846153846154,0.8541666666666666,0.14285714285714285,49.160432252701575,49.52235714827643,48.828061942330635,48.717948717948715,0.3994324567719062,0.6005675432280937,93.44788116113972,114.58524870496734,0.6593184938146122,0.34068150618538773,98.90063746639436,71.09281996282024,0.5044944685531322,0.49550553144686793,96.21289566572055,95.35189633941528,0.46578919773103966,4.399370944094846,1.4441307272908683,2.4356677178210644,-2.012462069214145,-2.528007263438759,-0.2746184617914276,0.04083941380785339,2.5590133095758563,0.500021890701158,1.2791962255635234,6.06637710890921,1.3557337497946234,1.0069574920078836,0.9760135817121129,1.2098906246023888,1.372201558869227,2.009736352785804,5.47077288844321,1.1969203952235006,Stress
80.04033792271193,754.9350649350649,129.4510004497066,,,,,,,198.68842972167042,200.0041591672796,0.17147302657194924,0.2631861188468712,758.0,77.09519999999999,0.10170870712401055,105.0,0.6515276235815343,653.6,815.6,58.44155844155844,72.72727272727273,451.0,1067.0,12.833333333333334,328.125,,,0.02105488665844613,0.11859903608637255,0.030459878612068874,0.17011380135688756,0.17752999816214704,0.1237694207671861,0.6971746862417093,-2.1320069198851606,141.424297212697,116.58119789123107,1.2130969639259006,51796.73863620419,0.8243364131122192,5.42127252536551,384.40850602393294,0.5844155844155844,0.6052631578947368,0.8478260869565217,0.21052631578947367,50.47112603787666,50.95782817719227,50.01001951075628,48.68421052631579,0.40906001781846174,0.5909399821815384,90.45389249041008,108.71899558034924,0.6771923288276569,0.32280767117234305,95.93664537066591,66.23696684463644,0.5175422594026,0.48245774059739993,93.23557955963909,90.01987496319205,0.5636693906765975,4.102039084586486,1.5205068535119626,2.420181983739058,-1.6576324802812223,-2.271286471800728,-0.28067611944321846,0.03685423806930411,2.293441014996818,0.5794163106746066,1.4039939382192914,6.049190599108365,1.2744780503012276,1.0535988199476847,1.3239191902549885,1.6735394515074329,1.4063197724758085,1.9692603694018254,4.635357035802234,1.220802572862643,Stress
