PPG_Rate_Mean,HRV_MeanNN,HRV_SDNN,HRV_SDANN1,HRV_SDNNI1,HRV_SDANN2,HRV_SDNNI2,HRV_SDANN5,HRV_SDNNI5,HRV_RMSSD,HRV_SDSD,HRV_CVNN,HRV_CVSD,HRV_MedianNN,HRV_MadNN,HRV_MCVNN,HRV_IQRNN,HRV_SDRMSSD,HRV_Prc20NN,HRV_Prc80NN,HRV_pNN50,HRV_pNN20,HRV_MinNN,HRV_MaxNN,HRV_HTI,HRV_TINN,HRV_ULF,HRV_VLF,HRV_LF,HRV_HF,HRV_VHF,HRV_TP,HRV_LFHF,HRV_LFn,HRV_HFn,HRV_LnHF,HRV_SD1,HRV_SD2,HRV_SD1SD2,HRV_S,HRV_CSI,HRV_CVI,HRV_CSI_Modified,HRV_PIP,HRV_IALS,HRV_PSS,HRV_PAS,HRV_GI,HRV_SI,HRV_AI,HRV_PI,HRV_C1d,HRV_C1a,HRV_SD1d,HRV_SD1a,HRV_C2d,HRV_C2a,HRV_SD2d,HRV_SD2a,HRV_Cd,HRV_Ca,HRV_SDNNd,HRV_SDNNa,HRV_DFA_alpha1,HRV_MFDFA_alpha1_Width,HRV_MFDFA_alpha1_Peak,HRV_MFDFA_alpha1_Mean,HRV_MFDFA_alpha1_Max,HRV_MFDFA_alpha1_Delta,HRV_MFDFA_alpha1_Asymmetry,HRV_MFDFA_alpha1_Fluctuation,HRV_MFDFA_alpha1_Increment,HRV_ApEn,HRV_SampEn,HRV_ShanEn,HRV_FuzzyEn,HRV_MSEn,HRV_CMSEn,HRV_RCMSEn,HRV_CD,HRV_HFD,HRV_KFD,HRV_LZC,Labels
105.19507591127127,571.2038834951456,67.15220628021106,,,,,,,87.30889494922555,87.73877811885214,0.11756258705615356,0.1528506676372545,567.0,29.651999999999997,0.05229629629629629,38.0,0.7691336182786805,539.2,596.6,11.650485436893204,44.66019417475729,458.0,1125.0,6.866666666666666,148.4375,,,0.06263109858295987,0.11719970524393578,0.02588696588155001,0.20571776970844566,0.5343963831018301,0.30445157300569636,0.5697111407052368,-2.1438759168258703,62.04068498086222,72.36834557507542,0.8572903593118731,14105.06530047593,1.166465934368697,4.856345211057268,337.6608393597884,0.5436893203883495,0.5544554455445544,0.8928571428571429,0.05714285714285714,49.323181049069376,49.00709371562127,49.76199782251798,56.43564356435643,0.5579013028436199,0.44209869715637984,46.340592303611146,41.2517626386083,0.4388724271769939,0.5611275728230061,47.94218158582603,54.210005221040355,0.4892955026284245,0.5107044973715754,47.14818803653975,48.168623536786384,0.8928797514981771,2.3644115773503307,1.289620517729538,1.3149775292924155,-1.1451919382178115,-0.6119101249092922,-0.48927555092109054,0.0023203845335535334,0.30572467173714113,0.6885506005943083,0.8619367311353237,5.919320430011822,0.7895134009310623,0.9752199903146256,1.0394732747317275,1.1159064858864218,1.1146224460978993,1.8512144127965686,1.725795155414079,1.1035971743894633,Relax
103.48484283379187,579.9901960784314,34.01004368195226,,,,,,,29.47998146082682,29.626987964381126,0.0586389975415259,0.05082841341138856,572.0,25.2042,0.044063286713286715,39.5,1.1536657079362487,555.0,604.0,7.8431372549019605,45.09803921568628,496.0,684.0,6.375,117.1875,,,0.02915392178049005,0.048332175761486046,0.008319872108621038,0.08580596965059713,0.6031990350354066,0.33976565848745893,0.5632728813425827,-3.0296577752788303,20.949444095746124,43.5420179451145,0.4811316765831403,2865.7013506343364,2.0784330956999426,4.164201038336536,361.99668460274717,0.5392156862745098,0.5544554455445544,0.9107142857142857,0.027777777777777776,50.08865248226952,50.07616619183637,50.100239857928756,55.44554455445545,0.5612012395187751,0.438798760481225,15.69394787808345,13.877319625922004,0.45632369076521295,0.5436763092347867,29.413388595730723,32.105449662778604,0.47603797397634245,0.5239620260236575,23.57379295619886,24.73196209411225,1.1447385183516636,1.1203024927968865,1.1934141892992467,1.5842660203614791,-0.9116106031001063,-1.6244861136157498,-0.15111937751164606,0.000709930924587996,0.08163985697601352,0.714251116008858,2.178532444324067,5.771696881374169,1.2568775457163306,1.3904551124755002,1.3395823583162578,1.7925733009036386,1.7423097451534326,1.7772610323651328,2.816323402558954,0.9158230861529503,Relax
102.8949234441805,583.2772277227723,31.206768115869092,,,,,,,25.786818338057916,25.90874428263613,0.05350246269292285,0.04421022647967017,576.0,28.1694,0.04890520833333333,37.0,1.2101829588573962,559.0,602.0,5.9405940594059405,37.62376237623762,530.0,684.0,5.9411764705882355,85.9375,,,0.03943221253563157,0.02696199057786284,0.008275291031551741,0.07466949414504614,1.4625111755660731,0.5280899915972934,0.36108441454670814,-3.6133271611732014,18.3202487742802,40.05974074158279,0.4573231986811992,2305.628722430605,2.1866373778626125,4.0697594837003646,350.38450581212265,0.48514851485148514,0.494949494949495,0.8163265306122449,0.03125,51.652892561983485,51.71309844338442,51.59277167153894,51.515151515151516,0.5707711742059672,0.42922882579403265,13.845102696869702,12.006311471535092,0.4899466714083846,0.5100533285916151,28.040292527905358,28.609872827964878,0.5039339298308623,0.4960660701691377,22.112721154771677,21.939420438833817,1.1893968938920556,1.4710070605145225,1.2195677420606872,1.6870791985211757,-1.5665029642195076,-1.9050621369412433,-0.18218272433242816,0.001132059132862076,0.12523036984196337,0.7707679045286655,1.7391157357426332,5.7374815970122786,1.2139383277509366,1.329338181072885,1.1529007434117828,1.5658253047783097,1.7836155034989196,1.708056466837566,2.249248426360711,1.0547661754854327,Relax
102.64237318657102,584.8712871287129,34.246653374114274,,,,,,,25.880494585691363,25.995143291535722,0.05855417102494484,0.044249897636017534,580.0,29.651999999999997,0.05112413793103448,41.0,1.3232611633723699,557.0,613.0,4.9504950495049505,41.584158415841586,509.0,684.0,5.9411764705882355,62.5,,,0.04282293516253828,0.015386804482679265,0.007809633677504296,0.06601937332272184,2.7830947751850315,0.6486419517072263,0.23306498847639923,-4.1742449886439426,18.381342099360896,44.59330021698803,0.41219963559365447,2575.1154526023083,2.4260089375377274,4.117766814913405,432.73497952286414,0.44554455445544555,0.45454545454545453,0.8,0.03125,52.2410358565737,52.29506553083853,52.186444932287536,53.535353535353536,0.5988504031054045,0.40114959689459534,14.233088494097409,11.649121005553173,0.4509201754193476,0.5490798245806523,29.944664252112048,33.0436000924643,0.47242665753535984,0.5275733424646402,23.444228770131524,24.774800980761956,1.2474626681799537,1.3352305844058279,1.3607937928509606,1.5722849776538617,-0.9510250003635292,-1.1458232850870687,-0.3416069948719653,0.0004618780242937057,0.07811178743379668,0.6481584413795134,1.8458266904983307,5.887178779970338,1.1521531576602546,1.1184645185486142,1.2530680590859724,1.3881729151364735,1.7311995263074653,1.6927916880443397,2.2677595332676153,0.9888432895175933,Relax
101.75259089168442,589.54,38.5362010047538,,,,,,,35.04729848808794,35.21188916735769,0.06536655868092717,0.05944855054464149,585.0,35.5824,0.06082461538461539,46.25,1.0995484007947627,557.8,625.0,8.0,49.0,509.0,691.0,7.142857142857143,62.5,,,0.037251979827605135,0.02064007045488204,0.004000495977859809,0.06189254626034698,1.8048378230605235,0.601881520125333,0.33348232868075783,-3.8805209248628745,24.898565608627752,48.22889576086209,0.5162582558822137,3772.519728275545,1.9370150280524594,4.283601629544953,373.68038350066166,0.53,0.5408163265306123,0.8679245283018868,0.0967741935483871,51.961180752122935,51.925912201111515,51.99449552847312,52.04081632653062,0.5767538629803542,0.4232461370196459,18.916438159787408,16.204685641341328,0.43588163453275336,0.5641183654672467,31.841359632277513,36.22366910019012,0.4655445987758985,0.5344554012241016,26.188774464310974,28.06016785244488,1.198942609723196,0.3713116647636565,1.0509573786465463,1.0251656685617567,1.0,0.9402700617851769,-0.5694610822453052,0.0004723975198690766,0.019430149328321274,0.7222191343853059,1.8513515664303006,5.992662034987085,1.1238114647914281,1.3487846048023218,1.2886974768036106,1.8117409295646543,1.8151686323564842,1.7234611168119305,2.74781445037772,0.7972627427729669,Relax
101.26624833744492,592.62,36.384806463881894,,,,,,,27.628853312317094,27.767558623228922,0.06139652131868971,0.04662153371860061,589.5,31.875899999999998,0.05407277353689567,43.25,1.3169133750354145,561.0,619.8,6.0,46.0,509.0,684.0,8.333333333333334,101.5625,,,0.037366146237316475,0.020139460768661847,0.004358447235028669,0.061864054241006994,1.8553697473102326,0.6040041619604698,0.32554382372360385,-3.9050741661980273,19.634628999480164,47.767234793858194,0.41104805593655047,2946.4744081713234,2.4328055699510722,4.176272783311424,464.8335794706355,0.5,0.5102040816326531,0.8,0.1,50.741427247451334,50.73536873618059,50.74524492165446,52.04081632653062,0.5468824432329432,0.45311755676705656,14.521096545989877,13.217760160990567,0.44137419250360693,0.5586258074963933,31.734639493035495,35.70183995396664,0.4566260463382461,0.5433739536617539,24.67741466048345,26.919607721622896,1.2682733497686987,0.38300975692659023,1.319216584354565,1.410835757454854,0.2585754975232888,-0.7414245024767112,-0.2607915426607543,0.00040174030290340986,0.018324444834017906,0.6727456538405994,1.6916760106710724,6.033660689688187,1.1404167063151764,1.003342162256959,1.2639346070098325,1.570095384343315,1.8276131525851633,1.695504654223413,3.0779953743624753,0.9301398665684615,Relax
100.59491304698481,596.6969696969697,35.79831672745914,,,,,,,27.671174126715698,27.813254200006746,0.059994131938761436,0.046373914284780764,595.0,32.6172,0.05481882352941176,44.0,1.29370429182103,568.0,624.6,6.0606060606060606,43.43434343434344,509.0,684.0,7.071428571428571,117.1875,,,0.02280267913387713,0.027354241327332232,0.0037199086584660374,0.0538768291196754,0.8336067106015036,0.42323721544981885,0.5077181002350911,-3.598883686183533,19.66694065168999,46.576061191564335,0.4222542685780391,2877.7259865409205,2.3682413048600943,4.166019548555184,441.2134077262156,0.5050505050505051,0.5104166666666666,0.7551020408163265,0.10714285714285714,49.76569821930645,49.73887389036642,49.79153967377098,52.083333333333336,0.5369812628268343,0.4630187371731655,14.411836486993428,13.382555193428296,0.4507821499005146,0.5492178500994853,31.271312813632978,34.51716197824292,0.4638258414206892,0.5361741585793108,24.34744376742578,26.177540512215934,1.2489763445775044,0.7876284778959608,1.3160332951207017,1.4511649663884176,0.24104373243715038,-0.16569255069190714,-0.3284322176507618,0.0003739210426506815,0.038798877076100594,0.6331295022010681,1.7414976344471669,5.972593488679067,1.1646753606244247,1.3304469032839434,1.0424196616091663,1.5772070315366946,2.009716583574068,1.7106856352712174,2.660674391540778,0.8035583781914678,Relax
99.46716244370548,603.8144329896908,74.10920010038497,,,,,,,69.86184282806555,69.89490152201324,0.12273505907012705,0.1157008494847594,598.0,28.1694,0.04710602006688963,39.0,1.060796524975335,572.2,622.4000000000001,7.216494845360824,44.329896907216494,509.0,1244.0,5.705882352941177,109.375,,,0.03669372383496988,0.02911814034344758,0.0037327956731646023,0.06954465985158206,1.260167146739748,0.5276282019824293,0.41869699852712955,-3.5363939195250627,49.4231588365815,65.54814045497601,0.7539978784070845,10177.491487896497,1.3262636787687332,4.714610857784427,347.7364715850644,0.4948453608247423,0.5052631578947369,0.7291666666666666,0.10714285714285714,62.088115512773044,58.49326825192139,67.0346074435313,50.526315789473685,0.9286045097055778,0.07139549029442212,47.85355951122901,13.268879300631868,0.7488943342843954,0.2511056657156047,56.72449629710573,32.84646460343794,0.8144269700513541,0.18557302994864566,52.47681220336796,25.049484973145038,1.1756241376725822,1.003395706603036,1.2838229593213548,1.6424887887993465,-0.31012055975034514,-1.2029333189621356,-0.14254797273127334,0.0008623279184767878,0.09075331744615396,0.9162118526383178,1.204906947317733,5.970845316324716,0.7323190099404483,1.1098374382546574,1.342193142011317,1.3636095547316371,1.2377925379330394,1.782715900526457,1.4515117083402451,0.8845244015302336,Relax
97.64379197358816,616.978947368421,106.96678535458072,,,,,,,152.3877682587865,153.20480361540578,0.17337185622106305,0.24699022374873694,602.0,31.1346,0.05171860465116279,45.0,0.7019381317595557,576.6,632.6,12.631578947368421,52.63157894736842,448.0,1331.0,6.785714285714286,195.3125,,,0.007553431049489662,0.011350392664092993,0.003703012804484473,0.02260683651806713,0.6654775101644692,0.33412154077608536,0.5020778849363504,-4.4785029396978215,108.3321555468067,106.73630289206898,1.0149513577995244,36326.15344129866,0.9852688922630344,5.267189523027878,420.6558356588821,0.47368421052631576,0.4893617021276595,0.6956521739130435,0.07142857142857142,50.126829268292674,49.46307689590722,50.77410897726738,51.06382978723404,0.5535805826363537,0.44641941736364643,80.60240264302271,72.38175377517383,0.4396807104739791,0.560319289526021,70.77516037515689,79.89690249902252,0.49747578419206573,0.5025242158079339,75.84810689119779,76.23199232772353,0.4805207177506384,2.1997754401837595,1.1722514800655786,0.9208699077949256,-0.31991267509554433,-0.01542542522872603,-0.6142760154871325,0.006048209856571833,0.4183760245081491,0.7694285482802643,0.8657052350860488,6.074912976660907,0.6087005789883448,0.9520022064925943,1.0627587621207202,0.9637527098652781,1.0086922052797962,1.8554708431537412,1.7558080023173122,0.9681892475435081,Relax
96.96200347505625,621.3789473684211,104.317965135177,,,,,,,152.08364859580652,152.89907110156025,0.16788139600958504,0.2447518526977625,603.0,26.686799999999998,0.044256716417910444,35.5,0.6859249242002563,582.0,631.2,12.631578947368421,46.31578947368421,448.0,1331.0,5.588235294117647,179.6875,,,0.01797577017242423,0.060654929576812816,0.031044320720734542,0.10967502046997159,0.29636124050988943,0.1639003129007475,0.5530423365037784,-2.802554367804973,108.11597001303731,101.51155276280035,1.0650607450136178,34479.04218765876,0.9389135827996496,5.244525302775945,381.2423028003062,0.5368421052631579,0.5483870967741935,0.7843137254901961,0.1,50.110909457551934,49.4151187432268,50.7754305759257,50.53763440860215,0.553246829705354,0.44675317029464623,80.41729204726464,72.26429984617621,0.44150423082849327,0.5584957691715069,67.45014782408248,75.86219679671966,0.5008925607942252,0.4991074392057747,74.21746189983065,74.08509274841425,0.3647809848319496,2.208473351048725,1.0959212267010159,1.0027112623317982,-0.23103029168290057,-0.29841749563387243,-0.5422056097371317,0.0056163508679043074,0.4541235858030136,0.7577145004744823,0.7764001638637298,5.911652187141677,0.5749914264253867,0.6889015628933958,0.8444676719045217,0.8388558850202238,0.8473840646912599,1.8660726069316973,1.730113857637034,0.8298764978944355,Relax
98.66640315358683,610.4329896907217,104.34207636588243,,,,,,,149.5857822455062,150.3709094760907,0.17093125392641012,0.24504865361437042,595.0,25.2042,0.04236,35.0,0.6975400656369335,574.2,616.6,7.216494845360824,36.08247422680412,448.0,1331.0,6.0625,164.0625,,,0.022683405399632633,0.06867729067750794,0.0392245063973292,0.13058520247446978,0.33028975336473965,0.17370578725462696,0.5259193949707646,-2.67833669222387,106.3282897837322,103.41374462204908,1.0281833442192336,34544.345253056905,0.972589184236752,5.245347075524786,402.31635808330606,0.4948453608247423,0.5,0.723404255319149,0.0625,49.81485515138313,48.96598210175539,50.60970319335431,51.06382978723404,0.5530637260036488,0.44693627399635116,79.07454843706864,71.08401256334129,0.44138365888365094,0.5586163411163492,68.70469080712462,77.29209557161579,0.49877532209736836,0.5012246779026315,74.07131276489201,74.25296249967758,0.3943852968726698,1.6614456888207965,1.0362704570083516,0.7710842135778204,0.10768057437653411,0.015728429787029596,-0.6596117436849507,0.006715391571807457,0.3192030461336716,0.639216581745049,0.6523251860396901,5.78527830601544,0.5149971043107225,0.6231090526537907,0.8609860749019338,0.8055364724516243,0.7544260348109123,1.8471570482862532,1.6814567137208438,1.020605078688731,Relax
98.8531713148721,609.340206185567,105.02230780866056,,,,,,,149.72196454317137,150.5078595604684,0.17235414099144036,0.2457116123690932,593.0,29.651999999999997,0.05000337268128161,39.0,0.7014489031659616,572.0,618.8,7.216494845360824,40.20618556701031,448.0,1331.0,7.461538461538462,164.0625,,,0.017334591117939682,0.05755970026434097,0.029518134121220813,0.10441242550350147,0.3011584674404342,0.16602038535498218,0.551272513657014,-2.854932604336831,106.42512811707975,104.71132833032802,1.0163668994948216,35009.64631186577,0.9838966622162169,5.251157833249505,412.1005057617445,0.4536082474226804,0.4631578947368421,0.6818181818181818,0.0625,49.87184963690729,49.064746145348735,50.637658185520465,50.526315789473685,0.5527467472118959,0.44725325278810407,79.12385361271475,71.17395295294035,0.445610447436096,0.5543895525639041,69.89906253162273,77.96527007522033,0.5000481866642305,0.49995181333576966,74.6540794375164,74.64688512205119,0.4327941371983882,3.5563034292661175,1.279097478766218,1.6402842015565833,-1.433730422023885,-1.3137058079769353,-0.39843759679839796,0.0075314186428417475,1.038204609848263,0.6544188353274998,0.6819460678051248,5.859970187436433,0.5418447264595762,0.7309535983517518,0.9156161202596713,0.8524333974469671,0.8358003029820217,1.8570153007246326,1.6980819680239394,1.020605078688731,Relax
98.36514089256441,612.4479166666666,104.83710369617957,,,,,,,150.62424492057957,151.42302824419667,0.17117717416163347,0.24593804766350266,598.5,28.9107,0.04830526315789473,38.5,0.6960174555660517,576.0,623.0,7.291666666666667,43.75,448.0,1331.0,5.647058823529412,171.875,,,0.015922994697966996,0.0585848131177616,0.028710650240881236,0.10321845805660983,0.2717938976089266,0.15426499288755197,0.5675807817786906,-2.837279777800338,107.07225009927356,103.64513926671631,1.0330658133782622,34863.88187997476,0.967992539342549,5.249345851461893,401.3108861972035,0.4583333333333333,0.46808510638297873,0.7045454545454546,0.058823529411764705,50.293870696893364,49.626928383767094,50.92475916137317,48.93617021276596,0.5526908201443121,0.4473091798556878,79.60106649558185,71.61131789782834,0.4412305442307298,0.5587694557692705,68.84647737399867,77.47565712408323,0.49877310100555633,0.5012268989944435,74.41830162682616,74.60113369739209,0.36391967725223723,1.9223202065151723,1.0060736184167016,0.9037979382700784,-0.2847135080864991,-0.44214982360700916,-0.5532042891709654,0.004813154375380734,0.33731451510787464,0.6971001871160807,0.7310921121240687,5.815438511336498,0.5573732528027562,0.5584331575417824,0.8529533007814235,0.7763023982020216,0.8159585058434873,1.905726337354298,1.6859347417546766,0.9603070313551686,Relax
98.84051465518804,606.3571428571429,79.72313560388517,,,,,,,74.44267150100261,74.45231441663266,0.1314788430267867,0.12277033820403303,596.0,26.686799999999998,0.04477651006711409,39.5,1.0709332966753007,576.0,624.2,2.0408163265306123,37.755102040816325,539.0,1329.0,5.764705882352941,78.125,,,0.009169449136681513,0.03543236058580185,0.005501530372616997,0.050103340095100354,0.2587874187630563,0.18301073579679772,0.7071855991745909,-3.340129735572827,52.6457363990339,67.6504297741369,0.7782025417251767,11188.803262975527,1.2850125081615982,4.755753747510684,347.72659376909485,0.41836734693877553,0.42708333333333337,0.6097560975609756,0.06060606060606061,35.438455349959774,40.06013448100431,29.21962570466676,48.95833333333333,0.03743865641266049,0.9625613435873396,10.238051979421344,51.9124362909955,0.18555411401066205,0.8144458859893376,29.14109413618564,61.052250418566864,0.12933600227305678,0.8706639977269431,21.840570915012343,56.666914168843114,0.9549151210063347,2.461939526528708,1.1687711533947045,2.1084671713095675,-1.6490167594870844,-2.39740175997529,-0.11831068237495738,0.012423312790969402,0.7458580257592742,0.6818623859163893,0.7690392745071689,5.7384414463506435,0.6361783003575647,0.6228445607456186,0.9315709302836931,0.8466755652640326,1.0678752765298927,1.8976383798550525,1.334391028071869,0.9449585491593154,Relax
100.76552510782066,595.5858585858585,26.369048840549944,,,,,,,21.254531329596904,21.3637212126581,0.044274135224029385,0.035686762912845234,593.0,25.2042,0.04250286677908938,36.0,1.2406318648782004,575.0,622.0,0.0,35.35353535353536,539.0,642.0,6.6,54.6875,,,0.009791845205394915,0.05522734970957249,0.003916730890000273,0.06893592580496768,0.17730065369582104,0.1420427025684377,0.8011403207352397,-2.8962969826485905,15.106432140849432,34.236925276490076,0.4412321497579914,1624.8247724923076,2.2663806355644835,3.917776641773299,310.3756178716212,0.42424242424242425,0.4329896907216495,0.6666666666666666,0.06060606060606061,49.82935153583619,49.82627991491867,49.832423184235495,50.51546391752577,0.4716750993856161,0.5283249006143839,10.374930132667494,10.980301011779156,0.48370231615551984,0.5162976838444804,23.811340116869676,24.600551502491122,0.4817423492069543,0.5182576507930459,18.365988857382266,19.049332593768167,1.022722447586188,0.9911025622065508,1.170332231175987,1.294793688382651,-0.014690471545447892,-0.42967661812529334,-0.37442121335094924,0.0001762696787206382,0.05368240389072416,0.5797919153144875,1.6094379124341005,5.660929317241962,1.2791939150640663,1.3859948407394842,1.3196821288322338,1.664238491923128,1.9718929533713145,1.8688922260282381,3.907159633958093,1.0044479727393347,Relax
100.53922320459253,596.969696969697,27.563083320850257,,,,,,,21.880006715665125,21.989401268484638,0.046171662415637485,0.03665178789933752,593.0,26.686799999999998,0.04500303541315345,40.0,1.2597383391622223,575.0,622.4,0.0,37.37373737373738,539.0,658.0,7.071428571428571,54.6875,,,0.019648159824777064,0.11320711582331779,0.008288881875832705,0.14114415752392756,0.17355940641966291,0.13920632755518908,0.8020673176225964,-2.1785362545586855,15.548854751177558,35.85504514808213,0.433658769273904,1751.4532639509093,2.305960517469412,3.9503686629891646,330.7212738542424,0.40404040404040403,0.41836734693877553,0.6341463414634146,0.0,50.9922822491731,51.009606138091335,50.97380888969154,47.95918367346938,0.4801560235314179,0.5198439764685823,10.775832065368824,11.212336725471673,0.46370747794992395,0.5362925220500759,24.415876721693095,26.257365185450208,0.4663117627273902,0.5336882372726098,18.871322062721863,20.18868149889256,1.0988144831041533,2.2579299112573032,1.2277508664589911,2.2277794387328047,-1.5480302153633474,-2.5621783223014907,-0.05710380234213781,0.013114273623285898,0.7090165181339454,0.4776802112279195,1.5533484457830569,5.7072938674013844,1.2467540344141592,1.4699428349804697,1.2783716274354693,1.864817538831554,2.05206954552891,1.8532281468814855,2.9849560053343276,0.9374847745567124,Relax
99.75359637425126,601.6632653061224,24.768180400705187,,,,,,,21.679721153150254,21.78642721175092,0.04116618352643367,0.03603298124262207,602.0,30.3933,0.05048720930232558,40.75,1.1424584396513862,579.4,625.0,0.0,36.734693877551024,547.0,658.0,7.0,39.0625,,,0.04305366074683758,0.07834140152706436,0.01703819303293293,0.13843325530683487,0.5495645968493934,0.31100663385694355,0.5659146088374648,-2.546679060592197,15.4053304192562,31.193796537771135,0.49385878376819553,1509.694682929033,2.0248703331140385,3.8858592354494292,252.65357274611273,0.40816326530612246,0.422680412371134,0.6585365853658537,0.0,51.377178189994375,51.45202920927886,51.305111596643826,47.42268041237113,0.483341010287118,0.516658989712882,10.713115015406737,11.07620384728751,0.513298518509729,0.48670148149027076,22.34875016160667,21.762038246771564,0.5074220473907395,0.4925779526092607,17.52480338148259,17.266565963164403,1.0399153470620672,1.0308683892987704,1.1718091029972655,1.2702844240919478,-0.21208944335790214,-0.472461861985392,-0.4044734302487747,4.168547278224132e-05,0.04551524886091234,0.4977259864550483,1.7730673362159026,5.671815680912064,1.3280829572476442,1.6110151873319467,1.1343596471430615,1.543049147949927,1.9216105219202868,1.8516302638069273,2.5668146447714824,0.9449585491593154,Relax
99.99934535148753,600.0816326530612,24.493918230790573,,,,,,,21.025757399599286,21.13494219975398,0.040817643630415526,0.03503816190247466,599.5,27.428099999999997,0.045751626355296074,36.75,1.164948199737974,579.4,623.0,0.0,33.6734693877551,547.0,658.0,6.533333333333333,101.5625,,,0.03452208268959725,0.08309913764304412,0.014291815400796982,0.13191303573343835,0.4154325022948893,0.2617033449170052,0.6299539479249472,-2.487720954514602,14.944660949431766,31.43120146061445,0.47547215044128993,1475.6960730743633,2.1031726023740633,3.875967031555751,264.4209670866558,0.4489795918367347,0.4639175257731959,0.7555555555555555,0.0,50.11655011655011,50.11793304970639,50.11486671096716,51.546391752577314,0.49946364441956986,0.5005363555804301,10.56182197034836,10.573157837971902,0.44015962159278105,0.5598403784072189,20.852881828304273,23.517604995247904,0.45109462909880454,0.5489053709011954,16.528683611808834,18.232792043172868,1.0875450291621693,0.5368698840812616,1.24244494691676,1.3559799712028,-0.10491276347771716,-1.1133944104804403,-0.28852413284397366,0.00016776439912645838,0.022838831930243428,0.4888377732130684,1.85238409104449,5.823793772642484,1.3217334031233043,1.108334375022341,1.2356080828481293,1.617407590437309,1.896156074185215,1.8371780149462398,3.4353644094591007,0.9449585491593154,Relax
101.3806706230188,591.959595959596,28.473015937370935,,,,,,,19.609972473416764,19.70733693250248,0.04809959350555803,0.03312721443703945,591.0,29.651999999999997,0.050172588832487305,40.0,1.4519661348820807,567.6,618.4,0.0,29.292929292929294,532.0,658.0,8.25,117.1875,,,0.045363966249507094,0.046875632649252034,0.016901916079943256,0.10914151497870239,0.9677515520471794,0.4156435455230698,0.42949406244176863,-3.0602572982652627,13.935191584100593,37.91020539998944,0.36758417521273773,1659.6593388130827,2.720465317695612,3.9269890639919396,412.5335959095526,0.47474747474747475,0.489795918367347,0.8125,0.0,48.865069356872624,48.8557630420761,48.875977674939044,53.06122448979592,0.4998407896831714,0.5001592103168285,9.853828603356662,9.856966765411812,0.41436174386837815,0.5856382561316219,24.40315416494223,29.01154494802803,0.42453983884300167,0.5754601611569985,18.609297022486732,21.665981792730783,1.2108043180851973,0.6137719332707565,1.286547858280219,1.3152214271195248,0.4275170740131564,0.002034215593382349,-0.45328302373406687,3.3551461934498544e-05,0.01655654114726818,0.5714088804856678,1.7197859696029658,5.964968362394587,1.170989893974102,0.0,0.9767378208731632,1.5162287122358526,1.9183356039692259,1.7497073622929487,2.939453862640328,1.0714111709219571,Relax
101.93034954215862,588.93,30.442943817620996,,,,,,,19.710018987429933,19.781073475984474,0.051691956289577706,0.03346750715268357,586.5,29.651999999999997,0.050557544757033245,42.5,1.5445415774097422,562.0,617.2,0.0,30.0,532.0,672.0,9.090909090909092,125.0,,,0.02518124868296077,0.012442982684348385,0.007937678732516083,0.04556191009982524,2.023730910968431,0.5526820238174641,0.2731005494959728,-4.386598454787427,13.987331194017973,40.23565913883899,0.347635194585794,1768.055327881349,2.8765787111730625,3.954465961259658,462.96416203520045,0.46,0.4747474747474748,0.7659574468085106,0.0,46.63705583756346,46.59284968539797,46.67947022837098,55.55555555555556,0.4984659386375454,0.5015340613624546,9.889955737504385,9.920346027539688,0.3789336881781241,0.6210663118218759,24.768102070709226,31.708821897884615,0.39185569334899123,0.6081443066510087,18.858288690584658,23.493218717939538,1.304134422199052,1.0168165526055866,1.4395263442290624,1.5010389454582427,-0.008124828806344908,-0.19837055226189904,-0.43950472081561365,7.09949748014451e-05,0.04691251896929059,0.5941227224267935,1.1882244473577965,5.9736606896881845,1.1137314186117961,0.7449959791464629,1.1801126152917745,1.5197393719659238,1.845121015441047,1.6895815526612012,2.37725139988927,0.8637013046707142,Relax
102.5577926930668,585.1188118811881,28.456383160448507,,,,,,,19.63262590689284,19.731439303043683,0.04863351268601281,0.03355322971717984,584.0,28.1694,0.04823527397260274,36.0,1.4494435586661754,559.0,610.0,0.0,33.663366336633665,532.0,672.0,7.214285714285714,93.75,,,0.03816325348918349,0.020842841692266807,0.004526933870782311,0.0635330290522326,1.8310004966042115,0.6006836767975948,0.32806308786460064,-3.870744713798446,13.952234533752952,37.916439226757085,0.3679732279266103,1661.9623698117,2.7175890094902315,3.9275912962160535,412.1651940865574,0.48514851485148514,0.5,0.8,0.0,49.813664596273284,49.81516859314082,49.81247005525492,53.0,0.5054483188044833,0.4945516811955168,9.919371925376092,9.811866655877834,0.4270413266597334,0.5729586733402666,24.77778603523892,28.700482275186296,0.4363919438603891,0.5636080561396108,18.872368958374306,21.44749880639943,1.154207895639631,2.2024217632013734,1.296292241199851,2.041706027569041,-2.247756600241164,-2.6572095567589065,-0.16154811997240753,0.0030044106743347776,0.3493785255782366,0.6181175935289853,1.6211339521972918,5.739459131073862,1.17014899100704,0.8532233553563366,1.3579129779868047,1.8015109806715082,1.8247695291700483,1.7253885116361827,3.1035059292716576,0.9229204035497537,Relax
103.3716442812181,580.7450980392157,30.199890588782793,,,,,,,37.013511046643494,37.1980703215041,0.05200197245012906,0.06373452168879797,578.0,23.7216,0.04104083044982699,30.0,0.8159153167265233,558.0,597.8,4.901960784313726,33.33333333333333,497.0,702.0,6.375,117.1875,,,0.03545947442475462,0.021212662984912135,0.006016439425901964,0.06268857683556872,1.6716182428380524,0.5656449103600538,0.33838163275827204,-3.853156965014085,26.30300777138961,33.60452144259964,0.7827222838545149,2776.8537108777305,1.2775923474102477,4.150523110982472,171.73151773379553,0.5196078431372549,0.53,0.8301886792452831,0.05555555555555555,50.14005602240895,50.10242845416616,50.179014984081036,55.00000000000001,0.5407675074076749,0.45923249259232507,19.34244038377784,17.824701961042717,0.4277248808536068,0.5722751191463931,21.977585184994055,25.42143998325957,0.4706703236618361,0.5293296763381637,20.70198360741876,21.954152350096194,0.805267863192621,2.944970839656732,1.1370144362675854,1.567868429637749,-2.256857643414241,-1.6392416768766496,-0.3536983838453272,0.002301774554488967,0.4622172521258342,0.7238330560085555,1.4522523289116878,5.750473381017498,1.1384631022468177,1.5717019488678428,1.5224121777909287,1.718632295966394,1.6534531359225444,1.8092484973288603,2.758568094578835,1.0466549556033717,Relax
104.31915646994064,575.3786407766991,29.3895794874327,,,,,,,31.436365852929242,31.591594283187476,0.05107867655246977,0.05463596252112095,573.0,25.2042,0.04398638743455498,33.0,0.9348911265674871,552.4,592.0,4.854368932038835,31.06796116504854,497.0,678.0,6.0588235294117645,109.375,,,0.031088877221528893,0.021388250060846273,0.00838539839713092,0.060862525679506084,1.4535493615927357,0.5108049144269622,0.3514190353103967,-3.8449135703216633,22.338630546136027,35.201528272227705,0.6345926339726596,2470.403744477542,1.575814067900264,4.0997380468933,221.88425385186113,0.5145631067961165,0.5247524752475248,0.8113207547169812,0.02857142857142857,50.0747384155456,50.10985485496163,50.03969504857443,54.45544554455446,0.4643307110048511,0.5356692889951488,15.221955222377947,16.349523867473,0.4898999127139304,0.5101000872860696,24.638553072443717,25.141386103332106,0.482559165342399,0.5174408346576009,20.478845405633894,21.206086695685865,1.0450003577704787,1.3403225378773258,1.303041691101504,1.1765649776759373,0.11766273302164265,0.37246341174700914,-0.5943628938940834,0.00028813695712905454,0.09562484596122414,0.6746427245048845,1.5132940518811975,5.720006594934338,1.108671389232294,1.186669135615711,1.3554432846462343,1.8523229575591675,1.7756879142165014,1.732212332468639,2.53479070858668,1.0386796935430243,Relax
104.72683805547359,573.1553398058253,29.65711146458157,,,,,,,32.299153148614394,32.45817164030962,0.05174358399003814,0.05635322731104061,573.0,23.7216,0.04139895287958115,32.5,0.91820089920388,548.0,590.0,5.825242718446602,32.038834951456316,497.0,678.0,5.722222222222222,109.375,,,0.03945624510950076,0.032156172813462454,0.008410602466572081,0.0800230203895353,1.2270193140951795,0.4930611831125097,0.40183652975022616,-3.4371508463094913,22.951393271779818,35.167455857166225,0.6526316081833629,2535.7117223803048,1.5322579958754323,4.1110699883134885,215.54246172695701,0.4854368932038835,0.49504950495049505,0.74,0.03125,50.43731778425655,50.451184185032275,50.42163317533277,55.44554455445545,0.4853491213231839,0.5146508786768162,15.989786343998867,16.465385233607172,0.4413279947174638,0.5586720052825365,23.362627764172704,26.285691457871934,0.45447748293525125,0.5455225170647486,20.01856192854554,21.932242091376917,0.8263285560143157,2.756913385394259,1.2242476236090145,1.3960080541912074,-1.4156379338494816,-0.513031489775627,-0.43769828552026496,0.001342998803335868,0.39696931223667214,0.6842958080617159,1.4635860354215373,5.688500648353401,1.1259845368257668,1.3332855423782966,1.3830404455325433,1.8798467211929757,1.726756501711468,1.7672778900600505,3.0703330151386954,0.9737622126965852,Relax
102.93769258807949,583.1782178217821,36.37674972825471,,,,,,,36.75363927558739,36.938795953098506,0.06237672913114762,0.06302299734867535,578.0,26.686799999999998,0.04617093425605536,35.0,0.989745517593328,557.0,603.0,8.91089108910891,41.584158415841586,497.0,686.0,6.3125,117.1875,,,0.010405646580004237,0.04995587593481769,0.03540618954287281,0.09576771205769474,0.2082967495872057,0.10865506083861971,0.5216358923216422,-2.9966151444734987,26.11967310730215,44.58972284998398,0.5857778752108018,3658.9155264700394,1.7071317342604202,4.270322492989963,304.4821235963385,0.4752475247524752,0.48484848484848486,0.7083333333333334,0.03333333333333333,50.0205676676265,50.05239908423613,49.98828696521699,53.535353535353536,0.46436635253880953,0.5356336474611906,17.799103370902728,19.116204982404142,0.4236464522678122,0.5763535477321879,29.022616281239724,33.85160451190316,0.434049312404858,0.565950687595142,24.074055917274947,27.489638238430818,0.8948226657674017,1.2899246883383877,1.132105982996007,1.0674355558783823,0.007638326292262576,0.1796386857409491,-0.5501350409851676,0.00017257410023775263,0.08211700860153688,0.7207115377864688,1.2498432583920331,5.853417299433535,1.0686745896158247,1.365885289636535,1.326117856987242,1.684265739214811,1.7806849655060808,1.7824600234209185,2.9633454254488827,1.1206890614532723,Relax
103.8203319660932,578.3137254901961,34.86124700034335,,,,,,,35.94371287234396,36.119956909286486,0.060280857022360836,0.06215261939681094,575.0,26.686799999999998,0.04641182608695652,34.0,0.9698844168980247,554.0,594.8,8.823529411764707,36.27450980392157,497.0,686.0,6.375,101.5625,,,0.03132358739475398,0.01498340779263349,0.007168263611327946,0.05347525879871542,2.090551617379996,0.5857585002563173,0.28019327309909947,-4.200811837269983,25.540666466722364,42.178227455490926,0.6055414844939715,3384.3122264076983,1.6514145200731585,4.236440532872168,278.61494900378426,0.5196078431372549,0.5204081632653061,0.7450980392156863,0.034482758620689655,48.99184899184898,48.960220317629535,49.02200624811206,55.10204081632652,0.45676580808816203,0.543234191911838,17.262966141425405,18.826178581963998,0.42499428763568503,0.575005712364315,27.49665539632977,31.983383393609515,0.43351963479392375,0.5664803652060764,22.95730883601681,26.242730548693068,0.9263204559717593,1.1941749338950145,1.1453172644484804,1.0462918711149751,0.03881695773188554,0.1475916875629122,-0.5829236910965099,0.00028347944402009646,0.07080444281391686,0.7789312145315939,1.5564453822935902,5.804490783020703,1.044767741437064,1.4271342650922587,1.0510788378084484,1.4127301756524904,1.718356615205437,1.746766161348562,2.9728637364118633,1.1120708903285825,Relax
104.04212586777506,577.0,36.45383865851684,,,,,,,36.11921980352962,36.29747909888767,0.06317822991077442,0.06259830121928876,573.0,28.1694,0.04916125654450262,37.0,1.0092642880108535,549.4,597.0,8.737864077669903,37.86407766990291,497.0,686.0,6.866666666666666,93.75,,,0.027686115081002032,0.015872251425170462,0.004202004281462989,0.04776037078763548,1.7443092564106542,0.5796880263787566,0.33233099248215164,-4.143182887765534,25.66619361080045,44.992398352745425,0.5704562226173102,3627.8596966638243,1.752982893957927,4.266620592830848,315.4836186820142,0.5339805825242718,0.5353535353535354,0.7547169811320755,0.034482758620689655,50.18836333193805,50.22473484894221,50.15026740944296,52.52525252525253,0.46370679872847925,0.5362932012715209,17.477708574916306,18.79593383455239,0.4503547743302369,0.549645225669763,30.193713494872576,33.356492245463684,0.4536330094442008,0.546366990555799,24.669116640448976,27.07344366380596,1.0046390513025516,1.2157746726104701,1.325954351609281,0.9118248099487891,0.9206218309227356,1.6319566189352837,-0.840630176783735,0.0008674932503853972,0.12025369437397482,0.761092785385479,1.4775857813292974,5.989661328049069,1.0459117821287165,1.219059229827777,1.1923339483465738,1.5402072709861712,1.729728741525878,1.691625156653054,2.8453208868589708,0.9737622126965852,Relax
103.6640488235247,578.8333333333334,34.771982386339545,,,,,,,25.48946588862012,25.61616135903811,0.060072529317027716,0.0440359330065421,575.0,31.1346,0.05414713043478261,41.75,1.3641706946030454,552.0,606.4000000000001,3.9215686274509802,36.27450980392157,522.0,686.0,7.846153846153846,70.3125,,,0.034536453443636116,0.014493144331894484,0.004335927237955417,0.053365525013486015,2.3829510458702274,0.6471678754197284,0.2715825306362472,-4.234079546059925,18.113361404944655,45.90021031466732,0.39462480195121385,2611.9424311957655,2.5340525862934147,4.123933710555051,465.25418663717755,0.5,0.5050505050505051,0.72,0.0,49.610389610389625,49.62108370179476,49.59899604761935,52.52525252525253,0.48604867344295266,0.5139513265570473,12.628341142050289,12.985761433200596,0.44174446301986864,0.5582555369801312,30.507051330219074,34.295030632236966,0.44771441174476445,0.5522855882552354,23.34689680519256,25.93047556511519,1.22855600549311,1.100895126344958,1.384628359193142,1.361812655926958,0.057458128435678546,0.11341552656176912,-0.5207246836871134,6.252627235401737e-05,0.05274537740047746,0.7935887264408366,1.8672670217361997,6.059392743805016,1.050951127696012,1.1924676656544586,1.150036254515335,1.2713093249528742,1.7049709150848669,1.6257338132400303,3.162864391948648,0.9812390208781611,Relax
102.8126410064195,583.6862745098039,33.93090836418836,,,,,,,26.15055420346794,26.28088941635826,0.058132099118973615,0.044802414148645026,580.0,32.6172,0.056236551724137926,43.0,1.2975215783261922,556.0,610.0,3.9215686274509802,38.23529411764706,522.0,686.0,7.285714285714286,101.5625,,,0.03386667616156337,0.012120271700889512,0.0036431029937865718,0.049630050856239456,2.7942175717956785,0.6823824593624344,0.24421235706563374,-4.412875881027097,18.58339512192069,44.493766389515194,0.417662891453932,2597.6109356571437,2.3942754323202773,4.121544213915722,426.12132703125565,0.49019607843137253,0.494949494949495,0.6938775510204082,0.0,49.82526210683974,49.82660752123195,49.8225618992423,50.505050505050505,0.48531178965961563,0.5146882103403841,12.946041866145807,13.332104110004542,0.45897057074672415,0.5410294292532756,30.143355116194567,32.727257597662216,0.4628831087146829,0.5371168912853173,23.197218126976054,24.98818110491177,1.2225704979622638,1.0388993016666292,1.334806361651741,1.3503499554942855,0.05656138603270655,0.13068700796353294,-0.4850384018762847,7.83902926246074e-05,0.044227038314641295,0.710841641080846,1.8137383759468302,6.047185758532111,1.1293459794320304,1.0181378790320155,1.0938659212948894,1.1566015004941512,1.8202747680039968,1.6790223982374461,2.8013752435731334,1.1120708903285825,Relax
103.04807382972102,582.049504950495,36.14840971263432,,,,,,,25.937810239108465,26.04545172492801,0.06210538692187161,0.04456289373756026,579.0,32.6172,0.05633367875647668,42.0,1.3936569579081326,554.0,609.0,1.9801980198019802,33.663366336633665,522.0,721.0,8.416666666666666,109.375,,,0.039213684215718164,0.0176259334941799,0.005401938899868991,0.06224155660976706,2.2247720512883227,0.6300241567153332,0.28318593644256645,-4.038383967477571,18.416915533763454,45.765773347568484,0.40241678850035073,2647.9365507135567,2.4849857873142103,4.129877684383108,454.9091852566047,0.48514851485148514,0.489795918367347,0.7083333333333334,0.0,46.95019585898153,47.32748930094303,46.52992252295584,48.97959183673469,0.33118301945687245,0.6688169805431275,10.60803012016383,15.074897188787897,0.4538670375230592,0.5461329624769409,30.83224347787212,33.821276915903425,0.4367425607615804,0.5632574392384193,23.055992072659667,26.18330859034766,1.2323560383853187,1.0589254652658378,1.3642285239332208,1.1343096447694605,0.5545274813373826,1.3124538721468149,-0.7171247049064405,6.062268030268926e-05,0.04783915141569359,0.7687899280952264,1.5453590557495782,5.999505294504461,0.9995518552440126,0.9899224472932997,1.0398597329182209,1.3794504800488105,1.8900999559514202,1.648511370637168,1.910715103607236,0.9229204035497537,Relax
103.37346977344893,580.6176470588235,31.636563668412002,,,,,,,18.39366012171768,18.475431907222518,0.05448777492153427,0.0316794713610456,580.0,32.6172,0.056236551724137926,43.75,1.71997109107492,554.0,607.0,0.0,29.411764705882355,522.0,665.0,7.846153846153846,109.375,,,0.05671128773305173,0.020321709635262596,0.004805250202049266,0.08183824757036359,2.7906750342818247,0.6929680121057334,0.24831555218469484,-3.8960655242174247,13.064103186947351,42.797229715101054,0.3052558138438962,1756.4877793042956,3.275940881870924,3.9516152425133066,560.8047778180827,0.47058823529411764,0.48,0.7291666666666666,0.0,52.00789993416722,52.0013387342972,52.01061487742148,49.0,0.520499839044804,0.47950016095519593,9.430270409696638,9.051243008559654,0.5194496073785335,0.48055039262146637,30.845184265351598,29.66778520421831,0.5195392159210718,0.48046078407892795,22.807404415709975,21.932880327531482,1.3779254844057238,0.6037022957161824,1.4917475478991458,1.6077355810602878,0.5151548289632117,-0.3073636636506052,-0.3078721350172382,0.0002814110013597988,0.03233817092043103,0.6506931742714168,1.509354453877118,5.96875438598309,1.0692453373661077,1.2860368384587075,1.1464729409997259,1.366888640328645,1.897459585898849,1.6122386587135284,2.3300911958506845,0.7849912167025288,Relax
102.956955402329,582.990099009901,30.382723725665205,,,,,,,18.96180371167258,19.05329844982705,0.05211533399497615,0.03252508703642761,581.0,31.1346,0.05358795180722891,40.0,1.6023118996302073,558.0,607.0,0.0,29.7029702970297,523.0,666.0,6.733333333333333,109.375,,,0.05905036476998511,0.01790968120157004,0.0022869140740010875,0.07924696004555623,3.297119814997517,0.745143595868399,0.22599833723936422,-4.022413863091946,13.472716537843839,40.52338083056982,0.33246773249679995,1715.183997678687,3.0078106903491006,3.9412808261133057,487.5466322851029,0.42574257425742573,0.43999999999999995,0.6818181818181818,0.0,51.23966942148759,51.34126159706772,51.14326930690682,49.0,0.5016826588791546,0.4983173411208455,9.544684913657973,9.512617883101317,0.547684921037745,0.452315078962255,29.989626918774306,27.253746003295056,0.5431044358150613,0.45689556418493865,22.253974171238298,20.41147434902756,1.44287586918068,0.853389395672375,1.5727143274584165,1.8238719190312471,-0.16178479167853155,-1.075685836022072,-0.205694032704793,0.0002915981451846813,0.05310366000650914,0.6448090342628041,1.5093544538771178,5.9053491063428085,1.1355704469215882,1.1847092442362293,1.051635390183527,1.481094214866082,1.951407154855238,1.5788715287042339,2.0863600444464736,0.9229204035497537,Relax
103.78120452683591,578.0873786407767,32.40192042121387,,,,,,,17.440374613713626,17.52448158614495,0.05605021250835579,0.030169097714466915,577.0,31.1346,0.053959445407279025,41.5,1.8578683737524628,549.4,603.0,0.0,25.24271844660194,518.0,666.0,7.923076923076923,109.375,,,0.05407760914659992,0.016618331358981824,0.003161206569202277,0.07385714707478402,3.254093806317818,0.7321919582385664,0.22500640787214457,-4.097248894175125,12.391679766341877,44.06955914785966,0.2811845638111791,1715.6107557678113,3.556382990751652,3.9413888702823625,626.9129222534879,0.42718446601941745,0.4411764705882353,0.6888888888888889,0.030303030303030304,49.085985104942445,49.02376572899937,49.14611060521813,50.98039215686274,0.4700402900886383,0.5299597099113618,8.496650475742232,9.021975371500433,0.49583928055956006,0.5041607194404398,31.031957401337593,31.29127136004976,0.4939485446202335,0.5060514553797666,22.750554382974514,23.027588919948077,1.4051140711652461,0.4907877467706736,1.4791772454187635,1.6482202166751798,0.4357818585022173,-0.5596426857469767,-0.1555680691527049,0.00025205378288428346,0.023809020106636318,0.7123307600508904,1.562917896799207,6.074660235837064,1.0085523867459516,0.9903114706839481,0.9542111980225608,1.425988836622028,1.9469850400949675,1.580881244075536,2.3124478289828745,0.8439272510037072,Relax
103.6053665040976,579.2058823529412,33.09283019930274,,,,,,,17.8672220493947,17.954612744692692,0.05713483099458148,0.030847791077002987,577.0,36.323699999999995,0.0629526863084922,47.0,1.8521530715752113,549.2,607.8,0.0,24.509803921568626,518.0,666.0,8.5,117.1875,,,0.04710019246249094,0.008930894622343482,0.0015403929518042565,0.05757148003663868,5.273849312324745,0.8181167555969765,0.1551270632031664,-4.718238707438176,12.695828425350612,45.207373664739315,0.2808353460102253,1803.1015828294155,3.560805340947324,3.9629903045818766,643.8986303824206,0.4411764705882353,0.45544554455445546,0.717391304347826,0.030303030303030304,50.85091899251191,50.83159298644847,50.86816330593679,52.475247524752476,0.5454517259560215,0.4545482740439786,9.377366368016128,8.560373823613078,0.48560139773291183,0.5143986022670882,31.502806190289693,32.42344577308852,0.48997741296954284,0.5100225870304569,23.241792076590766,23.712442259290917,1.466931185748289,0.26640867062324824,1.4585641800890916,1.385074539877704,1.0,0.5892760014684697,-0.7758530345107112,8.495669420224712e-05,0.006131927994794073,0.6953439178325285,1.6094379124341003,6.069388332125153,1.0041218541373993,0.772760613339579,0.8360097419555517,0.969530363438116,1.9079372573942404,1.4976160031978796,2.6141554743922417,0.8504071514277396,Relax
104.58722300277739,573.7961165048544,33.88832849669661,,,,,,,21.041508929713565,21.144500123179412,0.059059877754348504,0.03667070641377468,570.0,35.5824,0.062425263157894734,47.0,1.6105464969216885,542.8,605.2,4.854368932038835,28.155339805825243,518.0,666.0,8.583333333333334,39.0625,,,0.03845000413691523,0.007846313487008,0.002191115873157739,0.04848743349708098,4.900391018098004,0.7929890564166484,0.16182158800961,-4.847711476983015,14.951419421899951,45.730204478339594,0.32694844889621666,2148.0057550274114,3.0585861574692172,4.03900555057092,559.4790815827452,0.4854368932038835,0.5,0.7843137254901961,0.1,49.4026284348865,49.38826909275529,49.41809278419667,52.94117647058824,0.504672276350753,0.49532772364924704,10.621992876728328,10.523194560701434,0.48954841295541945,0.5104515870445805,31.996388900449585,32.67235374076893,0.4910090719659194,0.5089909280340807,23.838997832774776,24.271591652838858,1.445304740746291,0.10720178534257663,1.4701395172091596,1.45425499294549,0.8019724793393364,0.005321535913790143,-0.6481740645727926,5.3358979915733456e-05,0.0016422242134424244,0.720860814333713,1.824549292051046,6.004319337799816,1.0095129197932622,1.2179936903792938,1.5212051249139014,1.7848153925026444,1.8496285411892888,1.5436964581719002,2.649964189661091,0.7140922893108291,Relax
104.70829562473916,573.0970873786408,32.9257973128726,,,,,,,21.05105837775216,21.154003078458885,0.05745238989692993,0.0367320980011261,570.0,29.651999999999997,0.05202105263157894,39.0,1.5640922523719887,543.4,602.0,4.854368932038835,27.184466019417474,518.0,666.0,7.357142857142857,70.3125,,,0.03364713709299532,0.007898346006081679,0.0019148641979127579,0.043460347296989756,4.260023182966057,0.7742031342516644,0.1817368359278793,-4.841101907748123,14.958139026019376,44.3069613482767,0.3376024572852177,2082.0895499466865,2.962063748117707,4.025469514392477,524.9601759959314,0.49514563106796117,0.5098039215686275,0.7884615384615384,0.09375,49.37906564163216,49.37088338279166,49.38864499095459,50.98039215686274,0.5000995553195724,0.4999004446804273,10.578560421629183,10.576454327354412,0.5137055625284083,0.4862944374715915,31.75624183186656,30.89737737468495,0.5123133562783502,0.4876866437216501,23.66817310100265,23.092307320537582,1.3458597597547886,0.40096491848538585,1.0284545664905629,1.2289370257332557,1.1577037718654912,-0.3153955871598937,0.0,6.24062723716966e-05,0.008684606599659668,0.6811082239388817,1.6506808709681497,6.062571764984282,1.045367069404474,1.1975109246852835,1.3910753304611387,1.8409019991769981,1.79588087603936,1.5818224338152604,2.7707152146624305,0.9737622126965852,Relax
106.56960135548066,563.1333333333333,26.964031122200073,,,,,,,19.744522122506634,19.839799018471766,0.04788214358150836,0.03506189556500527,558.0,25.2042,0.045168817204301076,34.0,1.3656461754252323,539.0,585.0,4.761904761904762,23.809523809523807,518.0,635.0,6.176470588235294,70.3125,,,0.023026952592596288,0.006864588157876606,0.001882552741573122,0.03177409349204602,3.3544550762560412,0.7247084042967459,0.2160435563518126,-4.981379233131091,14.028856423339596,35.62897973787715,0.3937484745998922,1570.2743236952194,2.5396923785321346,3.9029456393518944,361.9465931806498,0.4857142857142857,0.5,0.75,0.08571428571428572,49.62453066332916,49.61583922126188,49.63372011423838,49.03846153846153,0.5113703630623521,0.48862963693764805,10.032229615990712,9.80662545999496,0.5209048244260148,0.47909517557398523,25.714765963252287,24.66120452486502,0.5196249995347304,0.4803750004652696,19.517874110834914,18.766258438083018,1.238411293413653,0.49873326835144516,1.5272325213391378,1.483019181298258,0.03587943938273774,-0.9641205606172623,-0.5886512748327903,0.0004242955084827037,0.032243440657596226,0.6958742800993702,1.5198257537444133,5.894825517501289,1.0961446930279335,1.5935728706953323,0.9987707597421688,1.2909000411278468,1.782714709905768,1.6597954988408752,2.9545451217173406,0.9591779310951603,Relax
105.66943761862883,568.3173076923077,47.57625752473334,,,,,,,48.4467478644416,48.683402430266945,0.08371425061453798,0.08524594836142332,564.5,42.2541,0.07485225863596102,57.75,0.9820320170479974,534.0,603.2,25.0,50.96153846153846,449.0,691.0,7.428571428571429,125.0,,,0.05820183000942908,0.023137168163458167,0.005443103623951791,0.08678210179683904,2.5155122527635214,0.6706662872222464,0.2666122124769847,-3.7663149431212655,34.424363989675406,58.15124909060543,0.5919797859550501,6288.90226800383,1.6892468691083506,4.505544955637001,392.92726184418024,0.5288461538461539,0.5436893203883495,0.7857142857142857,0.21739130434782608,50.23148148148149,50.27707762487814,50.18873865827369,47.57281553398058,0.46636608066184065,0.5336339193381591,23.50886357667394,25.147213621814572,0.5878308072259858,0.4121691927740142,44.58463538482011,37.3333370916703,0.5563103924992241,0.4436896075007761,35.64026079494944,31.828920900192813,1.1001896387911865,1.6109358284270865,1.3662491025971626,1.7846927402352923,-0.9449830109504518,-1.688240582641538,-0.2402481028392689,0.001154255626167336,0.19504625085889893,0.591609414666765,1.5998684614179497,6.0679932036140025,1.0514667547032315,1.0661724206167726,1.037281790689357,1.3662707802878178,1.6593986923318045,1.7458607707092333,3.181717600627925,1.159691489678266,Stress
104.42476646797631,574.757281553398,46.79753345675002,,,,,,,44.77843055687922,44.999550246895026,0.08142138422373738,0.07790841802970541,571.0,40.0302,0.07010542907180385,54.0,1.0450909706919285,536.8,613.0,22.330097087378643,54.36893203883495,476.0,691.0,6.4375,101.5625,,,0.05551192576000262,0.037867764743622696,0.007443215033607671,0.100822905537233,1.4659414448102954,0.5505884348820176,0.37558692185912523,-3.2736550632724817,31.81948712992425,57.28926972095352,0.5554179218012669,5726.85693939175,1.8004460438671408,4.464886444252217,412.58495610051335,0.5533980582524272,0.5686274509803921,0.8275862068965517,0.25,50.04574565416286,50.07452336667485,50.020078748738875,48.03921568627451,0.47530082485417147,0.5246991751458284,21.93701605203695,23.048807447511795,0.6161992961867793,0.3838007038132206,44.97113878951893,35.49164832934628,0.5829810955285927,0.41701890447140744,35.38104010125692,29.924109225559782,1.1899187377712275,1.5480240845239368,1.2693476704085178,1.9451071409402911,-1.04774084602092,-2.010093567835111,-0.06346966608107428,0.001883541912595815,0.213337232566464,0.6493571665523188,1.5493339883643946,6.040584750358161,1.1289943509141913,1.1061550539327965,1.152562215957209,1.3314863812986426,1.7602031593455914,1.7338709443383833,2.544064918589779,0.9737622126965852,Stress
104.64199370278814,573.6893203883495,45.58810240519065,,,,,,,42.353090958340815,42.56134928227283,0.07946479180461392,0.07382583125248103,571.0,40.0302,0.07010542907180385,52.0,1.0763819445912894,536.8,603.8000000000001,21.35922330097087,50.48543689320388,476.0,715.0,6.4375,101.5625,,,0.04792074089641141,0.020647630365572843,0.0012878134925688178,0.06985618475455307,2.3208833191973848,0.6859913845107042,0.29557340467591275,-3.8801547184321428,30.09541869394431,57.34059551826645,0.5248536123828205,5421.41260823401,1.9052931644311801,4.44108257141322,437.0025787414649,0.5242718446601942,0.5392156862745098,0.7818181818181819,0.2,49.54633830200908,49.57241037986454,49.52348520292859,50.98039215686274,0.4568881650142649,0.5431118349857351,20.34297504455448,22.179622259280173,0.593665861310833,0.40633413868916707,44.18076554343983,36.55138643588008,0.5641241755174593,0.435875824482541,34.393143776541905,30.231932570953806,1.273028611478287,0.4216483768431243,1.2233726816238981,1.3179260371984345,1.016661898639561,0.3530632910512326,-0.2757530663761688,0.0008024815106111426,0.03552634404340842,0.6746726303857655,1.504077396776274,6.0138382697546335,1.0701059022756967,1.0879145516779123,1.1294358597225649,1.4106310345483848,1.681383162465627,1.67067121151275,3.260109840408352,1.0386796935430243,Stress
104.41707323737279,574.6504854368932,43.00494926780808,,,,,,,32.9202839908652,33.08050691685575,0.07483670571532265,0.057287490092062986,574.0,40.0302,0.0697390243902439,52.0,1.3063359137406347,538.8,603.2,14.563106796116504,47.57281553398058,476.0,715.0,6.4375,101.5625,,,0.053167240359313334,0.029706753409127856,0.00034259632945922436,0.08321659009790042,1.7897358094667082,0.6389019340586363,0.3569811425123194,-3.5163808715093827,23.391450765997188,56.332581477983034,0.4152383958320724,4139.679172273432,2.408255137379956,4.323936794292744,542.6529149849104,0.4563106796116505,0.47058823529411764,0.7291666666666666,0.08,49.21135646687697,49.19052179786359,49.23760445584636,51.9607843137255,0.4921025492572958,0.5078974507427041,16.4102720788831,16.671550439578375,0.5828152343630834,0.41718476563691687,43.00560891604516,36.3851252263033,0.5694729160623686,0.4305270839376315,32.54826744961084,28.300335084528406,1.3863512419692536,1.309790650531708,1.572968990349775,1.7545442824182915,-0.27730825175044416,-0.472105148095217,-0.36137075265058105,0.0005747181076040958,0.10221519068810378,0.660532101556532,1.6283063967384825,6.035825284380753,1.0815091772613008,1.2026293380577844,1.1044684852125937,1.4904591856415068,1.7625071814922921,1.6414465302063916,2.6872137550612254,1.0386796935430243,Stress
104.28443914348362,575.6213592233009,44.803736824382376,,,,,,,36.14621722404494,36.32298649202012,0.07783543141074035,0.06279512850742346,574.0,40.0302,0.0697390243902439,53.0,1.2395138486186694,538.8,612.2,18.446601941747574,52.42718446601942,476.0,715.0,7.923076923076923,101.5625,,,0.05261274704506508,0.029473286661807815,0.0008487667484701453,0.08293480045534304,1.7850994240571727,0.6343868527590522,0.35537900254161653,-3.524270962770442,25.684230061454787,58.19008008506894,0.4413850268620808,4695.321977327569,2.2655956571731855,4.378635488924324,527.3407709251682,0.46601941747572817,0.48039215686274506,0.7551020408163265,0.12,50.634696755994355,50.64955104873516,50.61804881178104,50.98039215686274,0.5036317795719903,0.4963682204280097,18.228201412445312,18.09627717307492,0.5869907206273904,0.4130092793726096,44.58251586633207,37.39631932871182,0.5733975964428841,0.42660240355711593,34.05780415488075,29.376520784971607,1.374249334036794,0.26332063922885074,1.4327080607360945,1.341210910824954,1.0078427766820302,0.40363737741558237,-0.8474742814657255,9.190478241451887e-05,0.006833162586696265,0.6273705129307157,1.6739764335716716,6.213152104832117,1.1409850916922757,1.2566479852517507,1.0691665297540138,1.5809596000317765,1.770777455892789,1.651356705047091,2.5711621539700746,0.8439272510037072,Stress
104.22058941182414,576.0873786407767,40.52452822870548,,,,,,,31.420300668797665,31.558188144802006,0.07034441255130297,0.05454085931014644,573.0,37.065,0.06468586387434555,48.0,1.2897562202181243,545.4,603.6,12.62135922330097,44.66019417475729,474.0,715.0,6.866666666666666,101.5625,,,0.05633894354765459,0.02010840530695448,0.0018358471215218,0.07828319597613087,2.801760889918496,0.7196811888573476,0.25686745483776213,-3.906617376852338,22.31500883915041,52.10262523703534,0.42828952932084813,3652.637235514778,2.334869128334122,4.269576652023876,486.6112446844645,0.44660194174757284,0.4607843137254902,0.723404255319149,0.07407407407407407,52.15798045602607,52.36416247919162,51.96630250885141,51.9607843137255,0.5531490198415063,0.4468509801584937,16.605647375289987,14.925060326262479,0.5578122485956094,0.4421877514043907,38.91379882416423,34.64678654166108,0.5570887794888063,0.4429112205111936,29.91681185955483,26.675431049994312,1.3661058443441785,1.1520371723361662,1.5366824303128295,1.8077109396599085,-0.5384721577773846,-1.2581650242876368,-0.26473978804219306,0.00026776315732353616,0.08032128987984265,0.6817513474351515,1.4094614204014249,6.1182546532707835,1.09651047124471,1.265359884222576,1.0889699579729237,1.147532864592363,1.7707783349943822,1.6278872809145775,2.0078194274276466,0.8439272510037072,Stress
103.00794493663003,582.7821782178218,40.413761012901546,,,,,,,28.53559181092973,28.67889802484035,0.06934625409529326,0.04896442080331464,576.0,35.5824,0.061775,49.0,1.4162580289441282,549.0,615.0,7.920792079207921,39.603960396039604,496.0,715.0,8.416666666666666,78.125,,,0.058048707492030796,0.028771496919922188,0.0018504339360647976,0.08867063834801778,2.017576897496642,0.6546553467247985,0.3244760323817537,-3.5483700721875118,20.279043270322095,53.56207764469336,0.37860822735152494,3412.359267967972,2.6412526927776816,4.240024859269138,565.8839272392544,0.46534653465346537,0.4747474747474748,0.723404255319149,0.1111111111111111,50.36866359447004,50.38028580911035,50.3564265937516,55.55555555555556,0.5665741513975538,0.4334258486024463,15.264502956370722,13.350935351033451,0.4863856045432179,0.5136143954567822,37.354916596606046,38.38627837752401,0.4964393385468607,0.5035606614531394,28.53414484827296,28.738074417262563,1.4164344871275822,1.2156023604592257,1.6344575921221998,1.5189191083246563,0.16738158336828768,0.3937783841627658,-0.5950462812147681,0.00016745209970768038,0.07319625222776203,0.7041718894202491,1.4832866271072,6.101135616350901,1.042316051305335,1.1910411845405244,1.2178861308058178,1.3898006254598876,1.811420676821588,1.5481964359190408,2.2371635226667177,0.8569975175819141,Stress
104.04464480153791,576.8349514563107,41.026317972969366,,,,,,,29.516363025862617,29.660448175698633,0.07112314860497264,0.05116951209586713,571.0,37.065,0.0649124343257443,49.5,1.3899516663696532,543.8,603.6,8.737864077669903,39.80582524271845,496.0,715.0,10.3,132.8125,,,0.03703714786622336,0.008459999448773646,0.0018780136429050903,0.0473751609579021,4.377913744615224,0.7817841062141158,0.17857457954161382,-4.772406170520787,20.973104038068662,53.738000200061805,0.3902844162415359,3540.740385119222,2.562233997529454,4.25606419445965,550.757324287372,0.46601941747572817,0.48039215686274506,0.7346938775510204,0.06666666666666667,50.70733863837313,50.77463449449293,50.64531699199528,53.92156862745098,0.5831945444724526,0.41680545552754766,16.017471896045084,13.541099886590226,0.5166861151851384,0.4833138848148615,38.627348343835095,37.35907688133988,0.5254785238805256,0.4745214761194742,29.568830261075377,28.09859437378032,1.1858042696335285,1.9056365998198967,1.4201319694481187,1.3814605909066164,-0.6758828784967257,0.36439995221128596,-0.5202931548151191,0.00010438917250058247,0.14537595865337277,0.7183852272752032,1.6602963296675914,6.09407771156522,0.9979480552484391,0.8072280618953591,1.1960532980756142,1.5760098438207055,1.9284435655284016,1.6190230343625547,2.0486650284934806,0.9088447318501461,Stress
105.37998896918896,569.4174757281553,36.89001253643228,,,,,,,26.0435156206368,26.170344192656398,0.06478552926261764,0.045737120356787564,565.0,37.065,0.06560176991150442,47.5,1.4164759118465846,539.4,597.4000000000001,5.825242718446602,33.00970873786408,496.0,673.0,9.363636363636363,31.25,,,0.04666355869686207,0.011954186672936285,0.0024848162790104935,0.061102561648808854,3.903532709800004,0.763692346731125,0.1956413340187567,-4.426673712762878,18.505227844613323,48.9996221246211,0.377660623536011,2848.636536511833,2.6478799686265075,4.161607150195626,518.9804715762097,0.47572815533980584,0.4851485148514852,0.7755102040816326,0.06451612903225806,50.78720162519045,50.787065718491,50.784800852032106,50.495049504950494,0.5615541390225923,0.43844586097740773,13.868191398782587,12.254116301742597,0.5265557429647109,0.47344425703528925,35.556164579904724,33.71531000483886,0.5309249097908675,0.4690750902091324,26.986733521366926,25.36617329298037,1.2716291931487402,2.5728248015651154,1.5488552525449886,2.018511756839761,-1.4355704289568134,-1.0021189150109215,-0.3174549219173151,0.0036472436629955613,0.4399023850990637,0.6529187287150511,1.3068301897656436,5.967674313422948,1.003994813446962,1.094054260298904,1.1153747390813378,1.376910284055045,1.7549636021944084,1.5906880369405527,2.486580217394611,0.9737622126965852,Stress
104.41293232652359,575.4077669902913,72.58834197075188,,,,,,,84.85980364406817,85.2784520588654,0.12615113339611325,0.14747768193664298,563.0,34.099799999999995,0.06056802841918294,45.5,0.8553913496572877,537.2,595.6,7.766990291262135,32.038834951456316,496.0,1197.0,8.583333333333334,117.1875,,,0.037858540962270405,0.04682493522154404,0.010318661029336037,0.09500213721315048,0.8085124044090889,0.3985019924060183,0.49288296658511793,-3.0613394140689794,60.30097173991561,83.58176432630204,0.7214608620189144,15833.82052325738,1.3860765741354701,4.906555827854817,463.40290223039597,0.47572815533980584,0.4851485148514852,0.7551020408163265,0.03225806451612903,50.44334975369457,50.27204112186949,50.70026148024158,51.48514851485149,0.5679075206835474,0.4320924793164528,45.442815768287225,39.63827782973083,0.4542703573126212,0.5457296426873789,56.33375928409431,61.74478838589708,0.49317134625266845,0.5068286537473317,51.17881368314811,51.882617330499734,1.1008661374987763,2.8140150228608913,1.6165150940466961,1.6316047543784569,-0.7279541774112541,0.02646431691301121,-0.49463767598638486,0.005508211656148988,0.5351513011459675,0.7198389108012231,0.8979415932059585,5.94092783281942,0.6385193563694416,0.9276543576419604,1.0923391464092789,1.207527050868807,1.1095948083426508,1.6792842389717744,1.4909653863187047,0.7790097701572681,Stress
104.39073861381122,575.4117647058823,71.86074996111432,,,,,,,83.88977917186902,84.30665736018435,0.12488578504793943,0.14579086545918762,561.0,31.875899999999998,0.05681978609625668,43.25,0.856609120568666,540.0,594.0,3.9215686274509802,24.509803921568626,508.0,1197.0,6.375,46.875,,,0.04115356934235222,0.05586042296499051,0.012186934548557312,0.10920092685590004,0.7367214059253446,0.3768609894370024,0.5115379930676148,-2.884899146617824,59.61380911855709,82.84509163445225,0.719581666728049,15515.419700957757,1.38969632807214,4.897733637954465,460.51807857279294,0.46078431372549017,0.4646464646464647,0.6956521739130435,0.03333333333333333,50.94760312151616,50.83334505156712,51.124620345002604,47.474747474747474,0.5685993131556991,0.4314006868443008,44.95291981618101,39.155714780859256,0.45626450465434215,0.5437354953456579,55.959667404672494,61.08866369367746,0.4945885181537774,0.5054114818462226,50.75553849601817,51.307868947556315,1.0883085715713088,3.304924910541358,1.6002528149861677,1.9376747377920693,-2.0784629642800265,-1.4827370305607355,-0.3979033013035595,0.00624354555598006,0.6794915776646915,0.6793359380040949,0.8195882789594432,5.860719581976681,0.5949281978206837,1.303411513188754,1.139473395015131,1.1575758601862969,1.0213539990921985,1.6733163077611135,1.4419729435147097,0.7849912167025288,Stress
104.5498944397419,574.5339805825242,71.00121726849099,,,,,,,83.16113581357533,83.5687157167924,0.1235805359963258,0.14474537385805733,561.0,31.1346,0.05549839572192513,42.0,0.8537788303860643,540.8,593.0,2.912621359223301,26.21359223300971,508.0,1197.0,7.357142857142857,93.75,,,0.05722208307654811,0.07941531955142174,0.017166999457399,0.15380440208536886,0.7205421246148431,0.37204450783396364,0.51633970468116,-2.533063987886181,59.09200557839472,81.55490383386875,0.7245671664179504,15140.09787780769,1.380134301342565,4.8870987927648395,450.22688089526605,0.4368932038834951,0.43999999999999995,0.6363636363636364,0.03333333333333333,48.599923283467575,48.0649454052691,49.28574643307911,48.0,0.5637878167134244,0.4362121832865756,44.371351474607664,39.02956482838451,0.4543061222460311,0.5456938777539688,54.96982756990009,60.2455010460286,0.49199825823381876,0.5080017417661813,49.95247128395009,50.75838515447523,0.8242396093710823,2.9356173515490305,1.556291263794527,1.5905603964542365,-0.896422533775155,-0.5141002410512523,-0.48832643067679554,0.00502638510782463,0.6289534167855569,0.7042869357361572,0.7931361524158607,5.948256837694793,0.5799443250158482,0.9807362457615015,1.1835808055090757,1.1662130741000678,0.9874343818613477,1.6930382597317668,1.4973663537590438,0.7140922893108291,Stress
106.22148891722424,565.6442307692307,69.06742425055695,,,,,,,82.65080362468247,83.05486960398122,0.12210400193887032,0.1461179998464477,557.0,29.651999999999997,0.05323518850987432,40.5,0.8356533901859239,534.2,584.0,2.8846153846153846,24.03846153846154,508.0,1197.0,6.5,46.875,,,0.04511291404888044,0.06150103935874052,0.013386740779479336,0.12000069418710028,0.7335309210911571,0.3759387756419324,0.5125056965324764,-2.7887012041703483,58.728661507539584,78.51788310236127,0.7479654212146409,14486.66968623344,1.336960201149504,4.8679386677499465,419.9011391454647,0.46153846153846156,0.46,0.6521739130434783,0.03125,50.25242718446602,49.999639419591354,50.59739730878786,47.0,0.5661269256078305,0.4338730743921696,44.18832247480384,38.68405204154473,0.436427586935384,0.5635724130646161,51.87100704440282,58.94452133214403,0.4829571918799933,0.5170428081200066,48.18303236066479,49.854350248641914,1.0909545236781206,3.5927537943090924,1.6526213322502925,2.106991780811074,-2.3655721294013894,-1.8032549942057627,-0.3735314261499069,0.006261996941674537,0.8292085080402889,0.7482376598829346,0.8444135203431171,5.9116022179746714,0.580420801318016,0.9150384556248202,0.9796285558193627,0.9969810680499221,0.9610650817790876,1.7357168970151906,1.4100573111567203,0.6442730498212589,Stress
105.54925493654383,569.1442307692307,68.10178251651575,,,,,,,81.96429485494255,82.36489205119027,0.11965645759858153,0.14401322270132327,558.5,26.686799999999998,0.04778299015219337,36.0,0.8308713280220348,539.6,586.8,1.9230769230769231,20.192307692307693,518.0,1197.0,5.777777777777778,39.0625,,,0.05310245696209771,0.0793733570168457,0.016817048032893175,0.1492928620118366,0.6690211798756047,0.3556932076088642,0.5316621032461192,-2.533592520983878,58.240773701094604,77.2398041204617,0.7540253935686246,14132.473252493539,1.3262152820440642,4.857188282137078,409.74643442658555,0.40384615384615385,0.4,0.5,0.0,50.39932744850778,50.1551156766051,50.72608299296798,47.0,0.5648533388056399,0.4351466611943598,43.771969273927425,38.419000609635034,0.4338045009636917,0.5661954990363082,50.87309859867489,58.11983464822312,0.4813059616227428,0.5186940383772572,47.45554475057759,49.264260815422446,0.9725286400772369,3.427367514800609,1.5714434030935338,1.8868009472675695,-1.8993548716403712,-1.3112234154710416,-0.4079884071923399,0.006377229306848419,0.7691209225867781,0.7501866753235662,0.7928214570661266,5.868426977631661,0.5619204425305431,0.8708138654491633,1.0805371252946325,1.0654081653447016,0.8976297448356756,1.7290779757286958,1.3849670781736156,0.7087003548033847,Stress
105.52225226990137,568.3269230769231,29.952856909526496,,,,,,,21.317525494388025,21.417660054100974,0.05270356848020092,0.037509265580759225,561.0,23.7216,0.042284491978609624,36.5,1.4050813222862932,545.2,592.4,2.8846153846153846,23.076923076923077,518.0,666.0,5.473684210526316,39.0625,,,0.04273552325907082,0.02389626716296506,0.004935984818022309,0.07156777524005818,1.7883765262426943,0.5971335998041578,0.33389702394423115,-3.7340330178929184,15.144572661403036,38.38149500183717,0.3945800615811897,1826.117771199155,2.53433991568841,3.968498892871226,389.08701922780466,0.4519230769230769,0.44999999999999996,0.6,0.03333333333333333,48.593852190974495,48.72248002495954,48.45556565257499,50.0,0.5334885807678338,0.4665114192321662,11.063763498244981,10.345975820881977,0.351687025095627,0.6483129749043731,22.761457076195423,30.90396787379519,0.3761872105166103,0.6238127894833898,17.895401517940087,23.044461872984144,1.2219000275924692,1.4816839024583173,1.3878778994704692,1.5869332298688534,-0.8476362218892355,-0.8571544944135203,-0.36565600795950876,0.00015282325784761683,0.09661786037795313,0.6700677180068051,1.476891256472117,5.806020968057881,1.0212141128407894,1.2386053102017085,1.1764180389135306,1.816516188973664,1.717149457085964,1.688185805178742,2.0460533109198544,0.7731276597855106,Stress
106.77022501504457,561.9238095238095,32.17252029715829,,,,,,,19.81816377429088,19.913852459805177,0.05725423936818448,0.0352684179570276,557.0,28.1694,0.05057342908438061,40.0,1.623385529737831,537.0,590.4,2.857142857142857,25.71428571428571,498.0,656.0,5.833333333333333,62.5,,,0.03472744651424564,0.012956330116842392,0.004001533786356548,0.051685310417444584,2.6803459159397462,0.6719016725209528,0.25067722360954287,-4.346170798154931,14.08122011387665,43.43512960231416,0.3241896649740035,1921.4597068838727,3.084614064054723,3.9906013916783856,535.9224465813516,0.4666666666666667,0.4653465346534653,0.6382978723404256,0.034482758620689655,50.36112934996717,50.35041356234634,50.37098412619652,51.48514851485149,0.5647660782921634,0.4352339217078366,10.582317179767571,9.28983158479132,0.39490997133243555,0.6050900286675645,27.29544452801663,33.78711576308038,0.4110643228623737,0.5889356771376263,20.700564350703544,24.777713397946762,1.4195254267578115,1.9006438282300877,1.5383997213280551,2.3698473408728553,-1.9331396486435395,-2.918228191725957,-0.06254422464883463,0.0029839388342711923,0.3253001425007018,0.6602922648368277,1.3862943611198906,5.9238291513833525,1.0037608075811129,1.427090360887146,1.2880261865217992,1.6497152670959896,1.7131939006348842,1.5693721036175063,2.6588445998053287,0.8952327356888163,Stress
105.78080325806577,567.3653846153846,41.00084244749165,,,,,,,29.173568300409205,29.312329153377835,0.07226532241702761,0.05141936588215702,558.0,28.9107,0.051811290322580646,44.75,1.405410610909621,537.6,593.4,8.653846153846153,28.846153846153843,499.0,713.0,6.933333333333334,78.125,,,0.03708763262636106,0.010033602599451076,0.002641090445717246,0.049762325671529384,3.6963425906852314,0.7452954042214326,0.2016304998620999,-4.601815559100935,20.726946716725596,53.86875491897027,0.3847675103666904,3507.6975656896957,2.598972036508441,4.251992251322196,560.0135507037211,0.5,0.504950495049505,0.7058823529411765,0.07407407407407407,51.233014594866646,51.16833279971921,51.29295611906232,55.44554455445545,0.5515667955693965,0.44843320443060347,15.395441138309005,13.881677866603765,0.3865665222020236,0.6134334777979764,33.4926150422015,42.19108311189677,0.4078490274985326,0.5921509725014672,26.06506157875173,31.406913845100558,1.265921499908444,1.1291127801476843,1.3353057666820614,1.6071287355911013,-0.6947926707265353,-1.0507097598527242,-0.2592596827453443,0.0003146954808747017,0.063224967626954,0.7729515932850233,1.311446470323458,6.132944044980958,0.9126642584667647,1.2238678869272366,1.1864011664322327,1.434063535549449,1.6830591515975555,1.6296829949745077,2.5472944498499035,0.9019822697497624,Stress
105.85068251362547,567.2692307692307,43.81874200452188,,,,,,,37.75740138334868,37.93971592600522,0.07724505336752112,0.06655993192535532,557.5,33.3585,0.05983587443946188,51.0,1.1605338397002687,534.6,599.4,13.461538461538462,32.69230769230769,499.0,712.0,8.0,62.5,,,0.0272603025108862,0.010708228435962282,0.0008949018375895842,0.038863432784438066,2.5457341215598084,0.7014383588317998,0.2755348065971706,-4.536742820346287,26.827430407569544,56.101940746896155,0.4781907729110739,4728.319717496696,2.091215591451748,4.381676944766055,469.28501280244546,0.5192307692307693,0.52,0.75,0.1111111111111111,50.854870775347905,50.88863865910083,50.81583058214269,57.99999999999999,0.5467961508863449,0.4532038491136551,19.83893478323202,18.06144197661166,0.36750338309986363,0.6324966169001364,34.010150664672764,44.617680434268486,0.40087477970476265,0.5991252202952372,27.841279438695654,34.036400320899205,1.2219304592966809,2.1826294159611557,1.5316037927666732,2.01418632938109,-1.5035228014980415,-1.7942016227964972,-0.27889854636550665,0.0015264199519380431,0.31327348889529427,0.6749602192605799,1.3678322982801552,6.151214569306826,0.9208783661958865,1.1320705075997026,0.9199271219984713,1.4119722078363808,1.691300841517857,1.6470237944441763,2.3532672576755114,0.8375549647676365,Stress
105.00200382010273,571.9611650485436,42.991773570158585,,,,,,,39.869394621074704,40.06349067167098,0.0751655465393525,0.06970647144844336,563.0,37.065,0.0658348134991119,51.0,1.078315183331964,537.4,601.0,16.50485436893204,40.77669902912621,499.0,712.0,8.583333333333334,62.5,,,0.019090951349546567,0.009730294330826969,0.0013414611275406267,0.030162706807914164,1.9620117028797057,0.6329322985209483,0.32259353886216574,-4.6325111334136855,28.329165931942537,53.88406199841507,0.5257429540626651,4795.611445630033,1.9020701890011567,4.38781409801354,409.9650719579016,0.5436893203883495,0.55,0.7636363636363637,0.2,49.12980420594635,49.05158864627292,49.20440465810845,57.99999999999999,0.5356799230275817,0.46432007697241817,20.73560576724619,19.30513192940885,0.37698632963348033,0.6230136703665197,33.08438973317449,42.531344834515366,0.4113551797320812,0.5886448202679191,27.609257419851364,33.02728729584325,1.1619611607442943,1.8354261661644928,1.427101366788572,1.8700174666601188,-1.0102364693467454,-1.4856723358484372,-0.25868487219122915,0.0016850846217331874,0.25081676421499355,0.6888002619591083,1.4663370687934267,6.02752671183441,0.980834313946033,0.8984467597682689,1.2156097779878983,1.5356775233764466,1.7097360397994348,1.6564282506214298,2.7652636956445944,1.0386796935430243,Stress
104.83715846431886,572.6601941747573,43.291885169515936,,,,,,,39.9949751745852,40.19116738706117,0.07559785996982472,0.06984067616611751,570.0,42.9954,0.07543052631578946,56.0,1.0824331051723157,535.4,602.6,16.50485436893204,40.77669902912621,499.0,712.0,9.363636363636363,93.75,,,0.028441065215152245,0.010940108907971882,0.001064113778219028,0.040445287901343156,2.599705857994494,0.7031984859281405,0.2704915572527936,-4.515319527013001,28.419447003194566,54.51012001314798,0.5213609325449976,4866.790301187705,1.9180570264798122,4.394212743857026,418.2140748219053,0.5436893203883495,0.55,0.7454545454545455,0.2,50.588235294117645,50.60388928386308,50.56869538749053,55.00000000000001,0.539774085401357,0.4602259145986429,20.880257386221356,19.28037015379442,0.4036780029193587,0.5963219970806413,34.6333642492865,42.09374377058947,0.4327664299776702,0.5672335700223298,28.59593561800879,32.738478415248366,1.1803992776967698,2.2592015600472086,1.4534989595987602,2.0937328921269356,-1.9524871251015217,-2.419627187072452,-0.2166105300870999,0.002050881925119118,0.35450244794030006,0.659873393037921,1.4816045409242153,5.936168366842011,1.0012971596253217,1.0927963926930069,1.0448493806177102,1.1030366063135055,1.7348859067374176,1.6499938304038333,2.598935640159057,0.8439272510037072,Stress
105.5232401930458,568.6442307692307,40.164689672521035,,,,,,,37.97482559065646,38.15064272161531,0.07063236994102348,0.06678134330016186,568.0,35.5824,0.06264507042253521,44.75,1.0576662051188823,535.0,594.2,13.461538461538462,35.57692307692308,499.0,712.0,8.666666666666666,85.9375,,,0.027133125015028802,0.015320061836680601,0.0013303484965091848,0.043783535348218584,1.7710845624698692,0.6197106925978915,0.34990463229698804,-4.178592078340984,26.97657817507939,49.900744811698274,0.5406047199671306,4229.059171068925,1.8497803719893553,4.3332138716017035,369.2216732013165,0.5288461538461539,0.53,0.7358490566037735,0.19230769230769232,48.26780848579214,48.19116968527953,48.34453589240347,57.99999999999999,0.5252230114114518,0.4747769885885481,19.555601975583645,18.592772156690035,0.3925212478204619,0.6074787521795382,31.263573203874394,38.893101230015304,0.42254484271845644,0.5774551572815435,26.075204487227555,30.48249087393291,1.0419199452828911,2.6028850480663466,1.4125549008531644,1.874557009704566,-1.8215578879692167,-1.6870727255176798,-0.3225038369655941,0.0017230339974555122,0.41007352477956177,0.757339931071086,1.3202042492909005,5.942805222761562,0.9511968446054013,0.8230835579416248,1.1624250387417205,1.3338670119801377,1.5980084851326342,1.6969103536544459,3.1825682203412695,0.9019822697497624,Stress
105.77809786277808,567.4903846153846,39.83972628096103,,,,,,,37.72087058472939,37.904872565052294,0.07020335033158724,0.06646962064440022,566.5,32.6172,0.05757669902912621,43.0,1.0561719722632654,535.6,588.2,13.461538461538462,33.65384615384615,496.0,712.0,7.428571428571429,85.9375,,,0.024283839021255423,0.012112623485280093,0.0030424082432467044,0.039438870749782216,2.0048372716915077,0.6157336292746038,0.30712399353744124,-4.413507106954054,26.802792430760398,49.85015047499449,0.5376672322023389,4197.554941953571,1.8598864504052064,4.329966499305791,370.8624776764117,0.5288461538461539,0.53,0.7547169811320755,0.19230769230769232,49.622866216752676,49.60476433737488,49.64014446653896,56.99999999999999,0.5268738698782027,0.4731261301217972,19.45532841978178,18.436297318700664,0.3862492045175085,0.6137507954824913,30.981345330541956,39.05372893705924,0.4177857986179724,0.5822142013820276,25.868451465171454,30.53760634621538,1.0514989859881352,2.3460182578875775,1.442222037240362,1.8304718222363412,-1.301181606915108,-1.4232998591150579,-0.33450692095398676,0.001670358770147834,0.3652229080853369,0.7414753166721213,1.5730702682632256,5.93458644418201,0.9582308625931918,1.3131165854538533,1.2042806982176006,1.6253038926052377,1.6121817748497693,1.6896535129253039,2.66733844259461,1.09526418469614,Stress
108.23791930240581,554.5327102803739,31.049357468212698,,,,,,,30.58671557737641,30.730875396017776,0.05599193139123213,0.05515763995583173,557.0,31.1346,0.05589694793536804,40.0,1.0151255825316035,526.2,580.0,7.476635514018691,28.971962616822427,496.0,665.0,7.642857142857143,46.875,,,0.039344134490761774,0.01773214629549262,0.0016538472978673,0.058730128084121695,2.218802723320795,0.6699139908976101,0.3019258917687716,-4.032376111767212,21.730010384323,38.34431422080452,0.5667074982536243,2617.645201621942,1.7645787343234693,4.124880891435557,270.6462458249946,0.4672897196261682,0.4660194174757281,0.6666666666666666,0.14285714285714285,49.3358633776091,49.31050422795753,49.36100402954027,56.310679611650485,0.5337810584059374,0.46621894159406246,15.876607530157903,14.837853778828821,0.4386244296461928,0.5613755703538071,25.394951232856123,28.729477630904647,0.4617571615722024,0.5382428384277977,21.177466973009395,22.864216471448955,0.9458738347089102,3.1990102211430087,1.4304474824052917,1.4531286405261084,-1.387297436347449,0.37497655361292015,-0.4929099450914813,0.0012067147806582147,0.51665958906062,0.7612470686980695,1.6582280766035322,5.887410182800641,0.9970890877748272,1.0848365741262196,1.1887533998144213,1.5192760624620323,1.7661681847759358,1.721670383975196,2.887373909529876,0.9450654653833384,Stress
108.2617304955133,554.3271028037383,31.846558921051002,,,,,,,26.296746337228267,26.415752943913795,0.057450842219285106,0.047439041324556584,552.0,31.1346,0.056403260869565215,39.0,1.2110455990506275,526.2,578.0,5.607476635514018,26.168224299065418,496.0,673.0,8.23076923076923,125.0,,,0.03147314466470398,0.019926323913123864,0.0021512923143935077,0.053550760892221355,1.579475712726679,0.587725442931581,0.3721016019404182,-3.9157136116889335,18.67875803678995,40.00535060799546,0.4669064950791062,2347.555940352528,2.1417564556058997,4.077586059908228,342.72687169380674,0.4766355140186916,0.4807692307692307,0.7,0.06666666666666667,51.560021152829194,51.40172011069427,51.72873421499358,51.92307692307693,0.5922020163435695,0.4077979836564304,14.377396280603932,11.930752580740963,0.474552231700274,0.5254477682997262,27.55878654338055,28.99898897418719,0.4956172992033107,0.5043827007966891,21.97949316468804,22.173004066520704,1.1236169224491992,1.286799578102404,1.2502037554678194,1.085572312461834,0.10227160989956552,0.930181923304159,-0.6279386827657819,0.000162220731059359,0.06506285814264422,0.8166860941636531,1.8216124323777363,5.868718594015595,1.0252007044659568,0.964291906490816,1.305259912079645,1.6469050596115515,1.7495205045141091,1.7141596675673265,2.806134785068127,0.6930480079477815,Stress
107.76308422741292,556.8490566037735,34.191280551745855,,,,,,,28.332212862998993,28.46454642059843,0.061401344127758294,0.05087952027035363,557.5,31.875899999999998,0.05717650224215246,40.5,1.2067988023765919,527.0,583.0,5.660377358490567,25.471698113207548,496.0,673.0,7.571428571428571,46.875,,,0.03428117770765947,0.020561135884229396,0.0025724180690555234,0.057414731660944386,1.6672803438818518,0.5970798210832498,0.35811603206038906,-3.884352592633826,20.127473797404416,44.094358530456624,0.4564636944089361,2788.188757111611,2.1907547352585754,4.152292281610533,386.3996989951488,0.4716981132075472,0.47572815533980584,0.6938775510204082,0.06896551724137931,51.194712760549045,51.192838739671146,51.19334513209664,54.36893203883495,0.5747760574242156,0.42522394257578455,15.261345086398965,13.126602466277872,0.4532973193614318,0.5467026806385683,29.687566816692,32.603080080214845,0.4742484012828396,0.5257515987171604,23.60360435761566,24.8522486208451,1.0163037361413545,1.0658730208433655,1.257775785651467,1.094235258307504,0.4293672388078633,0.3944616136972354,-0.6534334054300039,0.00044745493361818327,0.0730562817897085,0.7411911923162955,1.791759469228055,5.884674435834388,0.9854323926202627,1.4147989528157565,1.3037606300508953,1.680308463522291,1.7927733889304558,1.6963308265625283,2.356471044706482,0.7616513722147018,Stress
109.06651558600227,550.3644859813085,34.1844035173508,,,,,,,28.790066421047065,28.92543936102289,0.062112299009263794,0.05231090877841423,543.0,34.099799999999995,0.0627988950276243,43.0,1.1873679976076814,521.0,573.0,5.607476635514018,24.299065420560748,496.0,673.0,7.642857142857143,101.5625,,,0.024496889808194602,0.022691204287024088,0.003207548624069586,0.05039564271928828,1.0795764516651543,0.4860914254957748,0.4502612341590263,-3.7857779059256864,20.45337432097956,43.71421524578996,0.4678884021130721,2808.908068453024,2.137261781834753,4.155507635558204,373.7148862708999,0.4766355140186916,0.4905660377358491,0.75,0.14285714285714285,50.76142131979695,50.70573880356933,50.81554788118318,54.71698113207547,0.586660596403369,0.41333940359663096,15.66676798346165,13.150411907363713,0.48452972270218503,0.5154702772978148,30.42866493675034,31.38517109595288,0.5028740164087654,0.49712598359123467,24.200736237567636,24.062027118008675,1.0635887740513055,1.1571130291322542,1.2756743680559044,1.065970520732341,0.25830182885153086,0.5726937680808022,-0.6812302186942144,0.000510597591388079,0.07438824083652171,0.735523738353244,1.6977305195797787,5.865070374150518,0.9826610027134213,1.2878973448438629,1.1887362803316588,1.4835652271621034,1.7412071733471541,1.6723964170665482,2.754914678234341,0.6930480079477815,Stress
109.88712240974615,546.2777777777778,33.990882046591494,,,,,,,29.73135165154853,29.87093261113674,0.06222270688890947,0.05442533608541376,540.0,28.9107,0.053538333333333334,38.5,1.1432672972613107,519.4,568.0,7.4074074074074066,26.851851851851855,496.0,673.0,7.714285714285714,85.9375,,,0.02097492313956469,0.022041805130245482,0.0049908943485221895,0.04800762261833236,0.9515973404003635,0.4369081824009159,0.45913136139819016,-3.814814395590018,21.121939009701173,43.32586396657322,0.4875133944471869,2874.9539237250697,2.0512256922375323,4.165600998697944,355.48450122649325,0.4444444444444444,0.45283018867924524,0.6875,0.14814814814814814,50.36214389183969,50.36710810557198,50.358412027720725,53.77358490566038,0.5640019876722031,0.4359980123277967,15.862766419845121,13.947002112444391,0.47728344207410917,0.522716557925891,29.93197789571671,31.32422684920307,0.4939362805548843,0.5060637194451155,23.953607862284958,24.245886822560884,1.1491319935863853,1.3465604937819564,1.3406515958998049,1.3081056216026299,-0.18362064664960975,0.08257449936308747,-0.5241697082659585,0.00014439078369798635,0.07941495234525249,0.7227705377896751,1.5526850958416507,5.942161228915159,0.9822423306862094,0.9220759941439682,1.20573779775724,1.4779284381770195,1.8232246291751348,1.69078658360146,2.2460479461342113,1.000724074394588,Stress
109.5900000528052,547.7870370370371,33.41527182500244,,,,,,,30.556826179566233,30.694368256049557,0.061000479320840816,0.05578230975462134,540.5,26.686799999999998,0.04937428307123034,38.5,1.093545240223531,520.4,569.2,7.4074074074074066,30.555555555555557,502.0,673.0,8.307692307692308,101.5625,,,0.018401035240781353,0.021452693936340594,0.0037562070066150385,0.043609936183736986,0.8577493948025907,0.42194593368021177,0.49192215842638015,-3.8419050500562655,21.70419593808974,41.9811404365589,0.5169987216256954,2862.515232132731,1.934240759542913,4.163717916301383,324.80653185794955,0.48148148148148145,0.4905660377358491,0.7307692307692307,0.13793103448275862,51.49863760217983,51.521120972799416,51.473438618896736,51.886792452830186,0.5726868719221683,0.42731312807783156,16.428231568030387,14.190749046141505,0.5058632910397103,0.4941367089602898,29.858694462608025,29.51058314135291,0.5199617983601534,0.4800382016398468,24.098012651090226,23.15439349058045,1.0276481630009353,0.8713645607290279,1.1545618617253135,1.0836336442948882,-0.14020197600502193,-0.26218244815030944,-0.5813990155522083,0.00044176248047828824,0.03430593377769322,0.7244139815722401,1.5960148921019597,5.990727085376608,1.0709619599508509,1.198041377524875,1.193256622833816,1.3634458649371277,1.89235345352865,1.7525775546857798,2.292509928905835,0.9381788197449261,Stress
108.98745328433259,550.7289719626168,33.04958256050649,,,,,,,30.665572854433456,30.811200866437932,0.06001061183094954,0.05568178616997658,542.0,26.686799999999998,0.04923763837638376,38.5,1.0777422198303517,524.2,576.6,7.476635514018691,29.906542056074763,502.0,673.0,7.642857142857143,78.125,,,0.027089419623333645,0.029974432368130802,0.009380623240224503,0.06644447523168895,0.9037508797709698,0.4077001064253128,0.45112001055936224,-3.5074105150908723,21.786809069159087,41.50943343134851,0.5248640433792425,2841.124765492162,1.9052552991850618,4.160460415763227,316.34427204498525,0.4672897196261682,0.47619047619047616,0.7,0.2,50.138121546961344,50.12658370134038,50.150612443777085,52.38095238095239,0.5624498394863562,0.43755016051364376,16.33940606252842,14.41147029939958,0.4861120170591425,0.5138879829408576,28.94109669828195,29.75644443968815,0.5025997197284069,0.4974002802715934,23.500673060313577,23.37879874889559,1.0181248400655727,1.3501145569114916,1.2617807237415068,1.2738072461725118,0.01290807771052549,-0.01606468882849743,-0.49109222075309167,0.00028681147924333245,0.10245979086196715,0.682444624078705,1.5793604571968225,6.005074579677118,1.0207437562918258,1.0162532110325473,1.0369131546692134,1.6281480953331355,1.9261516731053756,1.7104840160356525,2.383234159765227,0.6930480079477815,Stress
109.31597177616062,549.0093457943925,28.72494653331077,,,,,,,25.493617403222455,25.605634487749285,0.05232141629892845,0.0464356710837669,546.0,26.686799999999998,0.048876923076923075,34.5,1.1267505148045356,525.2,568.6,4.672897196261682,24.299065420560748,502.0,662.0,6.6875,93.75,,,0.03399089437926931,0.03151305178917568,0.008545838950440478,0.07404978511888546,1.078629090151933,0.4590275896776419,0.42556574254175217,-3.457353476453191,18.10591778287165,36.17046344569019,0.5005719047547625,2057.427261112132,1.9977149945918649,4.020294599942799,289.0331087471689,0.45794392523364486,0.4666666666666667,0.7142857142857143,0.14285714285714285,48.04347826086956,48.053227663822504,48.03653686717737,54.285714285714285,0.5283342042617429,0.47166579573825695,13.165250074488123,12.439185396694324,0.4663695179041374,0.5336304820958625,24.701262551307142,26.422529293150607,0.47879218976240917,0.5212078102375907,19.792374556283264,20.65046473545735,1.133886233019345,1.7074566103763655,1.367919322062288,1.5253611259622397,-0.6364013612762989,-0.4293147923691838,-0.4077916223796471,0.0004297580015866626,0.14895869105438833,0.6586864128187924,1.7560413866259759,5.9560548367066835,1.0268959970836695,1.1768403274119728,0.9948221129767373,1.2939595005435969,1.8663094476557618,1.743490107349293,2.6785393789704353,0.81905673666556,Stress
110.64797988372146,542.3577981651376,23.496856738477067,,,,,,,23.68485216804661,23.79374239635188,0.04332353442316086,0.04367016063597748,540.0,22.238999999999997,0.04118333333333333,29.0,0.9920626302315212,523.0,557.4,4.587155963302752,23.853211009174313,502.0,623.0,6.055555555555555,78.125,,,0.048041080263029654,0.03489295131676077,0.008668656555707623,0.09160268813549804,1.3768133233245077,0.524450550970378,0.3809162375797025,-3.355470438173163,16.824716598266267,28.740332400179852,0.5854043844726368,1519.110679753746,1.7082208922996927,3.8885595269155626,196.37934503049996,0.47706422018348627,0.485981308411215,0.75,0.12903225806451613,49.185850645704676,49.14581967925321,49.22669036855503,51.4018691588785,0.5739704547330199,0.4260295452669802,12.74736549655668,10.982356283271375,0.4368701812659439,0.563129818734056,18.996254883099187,21.567313390618644,0.4718657778045478,0.5281342221954521,16.176418433733616,17.113754065398226,1.1089671788133204,0.6414454324689478,1.1514321186761072,1.294795617156994,-0.037379539108467696,-0.7224709040264692,-0.27649930730806616,0.00010324502376504178,0.01899517047749931,0.7515863520173784,1.9203768470501485,5.790851067777102,1.1399436455064014,1.232775736695353,1.24867585369752,1.630911548108399,1.8718092974104217,1.7420011638737647,3.0911500973350003,0.8693080784117153,Stress
109.68293448404663,547.2222222222222,30.451227537933146,,,,,,,26.64775419689843,26.773141266605382,0.055646913267289,0.04869640360854536,544.0,25.2042,0.04633125,34.0,1.142731477967378,524.0,565.2,8.333333333333332,29.629629629629626,480.0,669.0,7.714285714285714,125.0,,,0.05864584708863419,0.035568156010776696,0.00892242461655476,0.10313642771596565,1.648830124082487,0.568623990450231,0.34486511505643996,-3.3363045355020153,18.931469743282058,38.86192773021989,0.4871469545902256,2311.3118408313408,2.052768657542306,4.070828654149578,319.0981888650783,0.4444444444444444,0.45794392523364486,0.7142857142857143,0.06666666666666667,49.92533598805375,49.91053840508401,49.93981110749155,54.20560747663551,0.573761861518011,0.42623813848198894,14.340041577792936,12.359779566941969,0.444712694446529,0.555287305553471,25.915769174904955,28.95897675992507,0.4694638966820578,0.5305361033179422,20.943541777595595,22.26416948737676,1.2472261886267837,0.9872435741177494,1.4006343394298097,1.7408479756856585,-0.11506247221992538,-1.1003559723273675,-0.1553903766252612,0.0013155932259558713,0.10656022135607357,0.7532903078207966,1.3862943611198904,5.834664557855559,0.9552848416760037,1.1463199377455422,1.1382341262042774,1.6642099770405183,1.6617850159920926,1.701322026175099,2.6851244022558274,0.8756335650952644,Stress
108.30134515617345,554.3364485981308,37.75690463538977,,,,,,,36.591575481610725,36.7634530815562,0.06811189257151273,0.06600968703058886,548.0,26.686799999999998,0.048698540145985396,36.0,1.0318469248301345,526.2,574.0,12.149532710280374,36.44859813084112,480.0,715.0,7.133333333333334,101.5625,,,0.02507542694677494,0.0263026774237131,0.0050513461751563035,0.05642945054564434,0.9533412337775266,0.44436773181925754,0.4661161356238536,-3.638084541797003,25.995686973801867,46.672341459611296,0.5569827045488531,3811.6302118807203,1.7953878851767644,4.288080870571931,335.1798257176774,0.4766355140186916,0.48571428571428577,0.7450980392156863,0.06896551724137931,50.77700077700077,50.800396807863855,50.75222508978203,53.333333333333336,0.5937165323262501,0.40628346767375,20.031522776911014,16.570628059482665,0.46112150801346874,0.5388784919865313,31.693286665121363,34.261392815893984,0.49251925238316957,0.5074807476168305,26.511566573850974,26.911231409680106,1.1368811217361883,1.451112983735407,1.3725861424388146,1.484641803681313,-0.22061471828084578,-0.24118855671480421,-0.4227795061456563,0.0004454943948905658,0.12004233312001565,0.6540728989512177,1.2144441041932312,5.858015350765813,0.9539111852518705,1.441888990442224,1.2250418094355857,1.5437689628920768,1.631449989196906,1.7439316200672526,2.1616714097990606,1.0080698297422277,Stress
108.241742434382,554.4953271028037,37.08388599647483,,,,,,,35.63388254043699,35.798342053795444,0.06687862671491812,0.06426363000500175,548.0,23.7216,0.04328759124087591,30.0,1.0406917055527807,528.4,572.8,12.149532710280374,34.57943925233645,480.0,715.0,5.631578947368421,70.3125,,,0.05393990414405018,0.009477496382704526,0.0119153858826825,0.0753327864094372,5.691366365750881,0.7160216250449609,0.125808387482097,-4.658835092245761,25.313250421474315,45.950997376859206,0.5508748855628104,3654.2035111197833,1.8152942277960875,4.269762840524871,333.65832119874267,0.514018691588785,0.5145631067961165,0.7735849056603774,0.1111111111111111,48.702928870292894,48.65794710255832,48.75268398141206,56.310679611650485,0.5878629379773543,0.41213706202264555,19.4108462561773,16.252765332471302,0.43362448907983403,0.5663755109201662,30.258809895531005,34.581766635529725,0.4695406261704832,0.5304593738295167,25.420233365125085,27.018983739091833,1.143448844392525,1.8696048300233024,1.4659982832291565,1.8473836924327678,-0.655596346342703,-1.135306356659897,-0.29600747544129,0.002160772851699576,0.2880839280732381,0.698069571529079,1.11514159061932,5.891991724816277,0.8788638065967781,1.2147102111643822,1.3612862394829144,1.5302019241442595,1.520147846367833,1.6914962578250656,2.748737681109474,0.9450654653833384,Stress
108.34688549752921,553.688679245283,42.28212798346865,,,,,,,36.84769166382585,37.01349125384601,0.07636444371790696,0.06654947634842719,547.5,29.651999999999997,0.05415890410958903,40.75,1.1474837655835548,523.0,573.0,13.20754716981132,38.67924528301887,480.0,715.0,6.235294117647059,70.3125,,,0.04742821236162776,0.011430807962872425,0.011448467934529132,0.07030748825902933,4.149156605174007,0.6745826587758486,0.16258307963952062,-4.471443115758343,26.172490660983478,53.32854145139667,0.49077829523683747,4384.848896256572,2.0375799209242227,4.3489247419505865,434.6446610941638,0.5377358490566038,0.5392156862745098,0.8181818181818182,0.14814814814814814,51.86360031720857,51.73788447515317,51.9800487498595,56.86274509803921,0.6122864117168428,0.38771358828315716,20.48568918875959,16.30154546708332,0.4556032153614142,0.5443967846385858,35.99590491903449,39.347530575541356,0.48603138358344095,0.5139686164165591,29.2862479030571,30.1161795967595,1.010167247544855,1.4652280822289088,1.3766881136920541,1.4568602152292285,0.11493752834426729,-0.25364955555258106,-0.4452835346868207,0.0013202917422310424,0.18026173717770777,0.6532725323857456,1.102719070620763,5.857130242074538,0.8330607469096849,1.2114089504558332,1.2198353991956778,1.352333935375037,1.548096561015704,1.662369429733601,2.422651580613547,1.0155351629529357,Stress
107.11464174071068,560.6476190476191,50.49257008411865,,,,,,,37.984561641236866,38.167915432781285,0.09006115136971628,0.06775122260531818,548.0,38.547599999999996,0.07034233576642335,65.0,1.3292918991936664,518.8,599.0,14.285714285714285,42.857142857142854,480.0,715.0,8.076923076923077,70.3125,,,0.04230662527765335,0.010357533055213947,0.006699276195576414,0.05936343452844371,4.084623727689321,0.7126714553111365,0.17447664774603266,-4.570041192589961,26.988791826274323,66.29888391942892,0.4070776192714346,5621.335855659362,2.456533969589745,4.45680964364508,651.4618419758576,0.5523809523809524,0.5544554455445544,0.8214285714285714,0.16666666666666666,49.58427815570673,49.50514280738151,49.65968674439244,57.42574257425742,0.579751289535767,0.42024871046423296,20.549962794948957,17.496185437242282,0.5105874103196815,0.4894125896803187,47.37413230136497,46.38139279554549,0.5204196852353361,0.4795803147646639,36.51444496484247,35.05246141506362,1.2792432138114809,0.8568868447582005,1.5683374622992972,1.3694066607701298,0.8464021328648492,0.5839791012888966,-0.7321552755140059,0.0008713775484141382,0.07648697966610221,0.592048452179037,0.9141378785130541,6.028158850834622,0.8030929052242892,1.0674216847753826,1.1842822742406856,1.4867356857120593,1.5797048816881618,1.5420831897091836,2.394341401030293,0.7673423448761283,Stress
107.51440319941244,558.3428571428572,52.105445708941716,,,,,,,37.47024460514277,37.64209821302493,0.0933215945048081,0.06710974113089739,546.0,44.477999999999994,0.08146153846153845,68.0,1.3905819473030683,514.4,599.0,13.333333333333334,40.0,479.0,715.0,9.545454545454545,70.3125,,,0.028312619380998758,0.006055197866842766,0.004959738708153744,0.03932755595599526,4.675754616712667,0.7199181004962161,0.15396832372746738,-5.1068382242545605,26.616982904519944,68.68039622766852,0.3875484762243851,5743.03536149673,2.5803223631332615,4.466111600325426,708.8702491804256,0.5142857142857142,0.5148514851485149,0.7692307692307693,0.16666666666666666,51.71339563862929,51.818907573643116,51.60652063551768,57.42574257425742,0.6100480762645701,0.38995192373542986,20.794650170852965,16.62551554058674,0.5306472083575244,0.4693527916424754,50.030602610229025,47.052477389048164,0.5410200769760615,0.4589799230239384,38.31108634110243,35.28699048826054,1.3988187154561982,1.404201946588647,1.556969792552946,1.9595034039950714,-0.6647772967271681,-1.3782738639951067,-0.21333638126621587,0.0013307003764104824,0.1531852744472632,0.5964903077618264,0.910211685797773,6.164012779467863,0.7666672863975011,0.7571419035981389,1.2532186307694582,1.596566786736177,1.592610112310358,1.5727830514491328,2.073161481360303,0.8312875402824722,Stress
