PPG_Rate_Mean,HRV_MeanNN,HRV_SDNN,HRV_SDANN1,HRV_SDNNI1,HRV_SDANN2,HRV_SDNNI2,HRV_SDANN5,HRV_SDNNI5,HRV_RMSSD,HRV_SDSD,HRV_CVNN,HRV_CVSD,HRV_MedianNN,HRV_MadNN,HRV_MCVNN,HRV_IQRNN,HRV_SDRMSSD,HRV_Prc20NN,HRV_Prc80NN,HRV_pNN50,HRV_pNN20,HRV_MinNN,HRV_MaxNN,HRV_HTI,HRV_TINN,HRV_ULF,HRV_VLF,HRV_LF,HRV_HF,HRV_VHF,HRV_TP,HRV_LFHF,HRV_LFn,HRV_HFn,HRV_LnHF,HRV_SD1,HRV_SD2,HRV_SD1SD2,HRV_S,HRV_CSI,HRV_CVI,HRV_CSI_Modified,HRV_PIP,HRV_IALS,HRV_PSS,HRV_PAS,HRV_GI,HRV_SI,HRV_AI,HRV_PI,HRV_C1d,HRV_C1a,HRV_SD1d,HRV_SD1a,HRV_C2d,HRV_C2a,HRV_SD2d,HRV_SD2a,HRV_Cd,HRV_Ca,HRV_SDNNd,HRV_SDNNa,HRV_DFA_alpha1,HRV_MFDFA_alpha1_Width,HRV_MFDFA_alpha1_Peak,HRV_MFDFA_alpha1_Mean,HRV_MFDFA_alpha1_Max,HRV_MFDFA_alpha1_Delta,HRV_MFDFA_alpha1_Asymmetry,HRV_MFDFA_alpha1_Fluctuation,HRV_MFDFA_alpha1_Increment,HRV_ApEn,HRV_SampEn,HRV_ShanEn,HRV_FuzzyEn,HRV_MSEn,HRV_CMSEn,HRV_RCMSEn,HRV_CD,HRV_HFD,HRV_KFD,HRV_LZC,Labels
98.4592837989894,612.75,149.05286946160024,,,,,,,200.22855361863483,201.2902908413868,0.24325233694263604,0.32677038534252933,585.0,37.065,0.06335897435897435,57.25,0.74441365513479,558.0,631.0,32.29166666666667,53.125,478.0,1739.0,10.666666666666666,132.8125,,,0.05078664509919454,0.06271939102254273,0.018443335038062645,0.1319493711597999,0.8097439128664483,0.38489493851159295,0.47532921507132586,-2.7690846124491317,142.333729640957,156.91170654420878,0.9070943957954817,70163.7912806426,1.1024210982177265,5.553083157933468,691.9311034067371,0.53125,0.5473684210526316,0.8269230769230769,0.10344827586206896,50.27977617905673,50.58175046055299,49.94807055726484,47.368421052631575,0.4820056239809487,0.5179943760190511,98.8177454130109,102.44043417123675,0.4680352955222297,0.5319647044777701,107.34817077879184,114.44498189550838,0.4743415124105941,0.5256584875894061,103.17116016131469,108.60869310109281,0.7308528625801205,2.3732723531013225,1.2934144060805923,1.3943601034977133,-0.6251492042026534,-0.49566410303222463,-0.4574656076513055,0.0020825919664889925,0.4039379328516197,0.7154741098659492,0.5226321363529796,6.1812657559069555,0.6268903428813272,0.42486632992222934,0.7275208596389741,0.6467724578080538,0.8115020271606053,1.8504268259744756,1.6869694998405733,0.9603070313551686,Relax
100.11346920155079,600.6734693877551,77.42728887198663,,,,,,,92.83412765643871,93.31631648688462,0.1289007968853785,0.1545500715239866,585.5,37.8063,0.06457096498719044,59.5,0.8340390632907132,560.4,639.0,28.57142857142857,47.95918367346938,478.0,1210.0,10.88888888888889,156.25,,,0.03926761956891527,0.07207284640975052,0.020929579454311432,0.1322700454329772,0.5448323678749959,0.296874620707775,0.5448916734989002,-2.630077915754925,65.98460018322614,87.76654847826103,0.7518194725359391,18193.71895805948,1.3301065435654797,4.9668915917564265,466.95544174836755,0.5204081632653061,0.5360824742268041,0.8076923076923077,0.06666666666666667,50.122032394053704,50.1728289882318,50.07167204851449,49.48453608247423,0.4879414519542132,0.5120585480457865,46.09212920879225,47.217471166225465,0.5170768588769737,0.4829231411230265,63.11121926273708,60.99131934101494,0.5065555497728577,0.4934444502271426,55.260792483592176,54.54095075395641,0.7129538640135489,2.8217552329763023,1.3392104227597517,1.5250635579436367,-1.4056317102933722,-1.207350337726371,-0.43413562841598674,0.0022139841325776776,0.5211752611359607,0.6185081894433693,0.778087857209029,6.142621451191835,0.8166549141192907,1.0645146662272873,1.116792587873278,1.1039663805052355,1.2874617547568818,1.8037697296696,1.717160367587691,1.1474496668363117,Relax
100.79160805696347,595.6262626262626,42.48567246097131,,,,,,,46.71221052620929,46.95167755519724,0.07132941431031187,0.07842537083614089,585.0,32.6172,0.05575589743589743,51.0,0.9095196305713994,563.0,630.4,22.22222222222222,47.474747474747474,478.0,740.0,9.0,156.25,,,0.045096868660064265,0.03398386258864822,0.024792803666652624,0.1038735349153651,1.3270083276268947,0.43415167007466,0.32716574646600655,-3.3818694967839673,33.199849587364184,49.51174876033083,0.6705448791169368,5164.095376859379,1.491324490192116,4.419964364714426,295.35233391408207,0.5454545454545454,0.5567010309278351,0.8333333333333334,0.13793103448275862,49.60127591706539,49.65090480258483,49.54896547351691,51.546391752577314,0.47731704693718185,0.5226829530628183,22.937499122166333,24.00279193382629,0.49311047104422967,0.5068895289557704,34.7680535834144,35.25047113624082,0.48821173956129105,0.511788260438709,29.452898125299622,30.155677209652445,1.02075901282405,1.8087658714161106,1.034264696692634,1.8220802392259594,-1.0517286194428852,-1.8456052008305932,-0.06444581635293001,0.0018074599693300726,0.265563838393147,0.5916073581800783,1.2144441041932317,5.972593488679067,1.048180326031147,1.019996050138855,1.2194273700375224,1.7750575654308693,1.6592252356670392,1.7635705656694933,2.5293613585048926,1.0714111709219571,Relax
101.54842646443622,591.2020202020202,39.32984010147704,,,,,,,43.819783995220185,44.04063618043888,0.0665252126304264,0.07411981437452883,583.0,29.651999999999997,0.05086106346483705,42.5,0.8975361472746441,563.0,622.0,18.181818181818183,46.464646464646464,478.0,740.0,6.6,132.8125,,,0.04652371464144078,0.025448255259069286,0.012066862624981954,0.08403883252549202,1.828169128603054,0.5535978219036831,0.30281543060881894,-3.671108093971435,31.141432490957943,46.20921843413616,0.6739225104043919,4520.81860723514,1.4838501230652514,4.362187191767761,274.2702178409681,0.5959595959595959,0.6,0.8771929824561403,0.19230769230769232,48.95726495726495,48.973707576603495,48.94439070916625,50.526315789473685,0.474032426917211,0.525967573082789,21.443043713786068,22.587173625115955,0.5041049393410616,0.49589506065893835,32.808705822413394,32.540446993734534,0.49471129181545814,0.5052887081845419,27.71475510854284,28.009472530941927,0.7624078285848244,2.0451019085141917,0.7264328656292931,1.6117271403710496,-0.5093690840527554,-1.1629057991110143,-0.06711483615750916,0.004069959552044427,0.42024723696503724,0.6000523284169894,1.4529857356185627,5.944766342192567,1.0734216964190455,0.9871872683591653,1.177449286939108,1.4602874545741609,1.6674612719801307,1.7779288978100478,2.828136189949289,1.0044479727393347,Relax
101.5729160480686,590.74,34.69684583807455,,,,,,,33.80649032181229,33.97853312394458,0.05873454622689263,0.05722735945054049,582.5,24.462899999999998,0.0419963948497854,38.75,1.0263368219471098,565.6,612.4,12.0,39.0,511.0,740.0,5.882352941176471,101.5625,,,0.03926851086586802,0.026535419907263925,0.01604647455643148,0.08185040532956342,1.4798526272847292,0.4797595162511027,0.32419411730976044,-3.629274838170848,24.026451186712933,42.670685059302954,0.563066919439456,3220.83974196448,1.7759878363934423,4.214939226302132,303.13047054358975,0.56,0.5578947368421052,0.8490566037735849,0.22727272727272727,49.978232477144104,49.97153348628477,49.98426638166433,52.63157894736842,0.5206946838128067,0.4793053161871934,17.33729023385896,16.633964515719153,0.49172537292167334,0.5082746270783268,29.922021076354373,30.421374363043245,0.4986989855345257,0.5013010144654744,24.453107961431574,24.516818652168443,0.9783119868659769,2.3967926517797964,1.390207329205853,1.8762558180565356,-1.2843226744542413,-1.6060155156401685,-0.29720878713068666,0.0030643452391179386,0.4484592039756244,0.6680580734551755,1.5841201044498103,5.893660689688185,1.0074515616110662,1.0789506435509255,1.1616034487296019,1.488525668906266,1.6942606793897501,1.685557892193898,2.7823054286740994,0.9301398665684615,Relax
101.00352352824636,594.3232323232323,37.565406438291696,,,,,,,36.942591977835235,37.13238778473929,0.06320703010623879,0.06215909116227078,584.0,32.6172,0.05585136986301369,51.5,1.016858981113998,565.2,626.0,15.151515151515152,38.38383838383838,511.0,740.0,7.071428571428571,101.5625,,,0.03608911652782988,0.009940064212856039,0.005974677746051217,0.05200385848673714,3.6306723734393804,0.6939699779591145,0.1911408980430003,-4.611181798288642,26.256563204237672,46.48284581181977,0.5648656562581005,3834.250307469812,1.7703324479388713,4.290650571035012,329.16036085281604,0.5656565656565656,0.5604395604395604,0.8627450980392157,0.16666666666666666,49.79691307879773,49.784900377588784,49.80903518824856,51.64835164835166,0.5154696215213914,0.4845303784786085,18.851289982932695,18.276795044903302,0.5044820079977057,0.49551799200229407,33.01532296025963,32.72068771580396,0.507139838787748,0.49286016121225223,26.882919151301866,26.501741845665222,1.0362546511895778,1.743728418621487,1.394110541946282,1.7529017642345792,-0.5668844182197343,-1.2725743819015913,-0.2942390463694219,0.0019318612070915507,0.2645302923136082,0.6287700890788428,1.3609765531356008,5.896737175504046,1.0479527872473173,0.9550674690725727,1.201274597663875,1.3976028126073736,1.711801846965222,1.6635818111304923,2.5952585993055473,1.0714111709219571,Relax
101.09977145625884,593.5555555555555,34.93382146410793,,,,,,,32.109983189160396,32.218035140961085,0.0588551840466064,0.054097687888888725,583.0,31.1346,0.053404116638078904,50.0,1.087942689297352,566.0,626.0,12.121212121212121,34.34343434343434,523.0,740.0,6.6,85.9375,,,0.037369694910752,0.013421139734447925,0.009294425793145919,0.06008526043834584,2.7843905696649234,0.6219444608898294,0.22336825431953494,-4.310924222993523,22.78159112468007,41.30892593213137,0.5514931848411928,2956.4996289249198,1.813259034720363,4.1777479387879115,299.61513264412605,0.5656565656565656,0.5543478260869565,0.8431372549019608,0.2631578947368421,45.6041372825576,45.90885994503084,45.2565560444787,52.17391304347826,0.45624140217531145,0.5437585978246884,15.415215404897248,16.828884104603773,0.4221850154698321,0.5778149845301677,26.84079101075895,31.400625783303703,0.430149004947183,0.5698509950528167,21.886718895972276,25.191373918360057,1.1098729584866485,2.865230871435172,1.5138340369931373,2.05444501441855,-1.6392671120432496,-1.4275452520848941,-0.31132027341495705,0.004350013921132659,0.5949236315458459,0.6321820866351056,1.4127276181880462,5.884160281586507,1.0071611264784937,0.9344535413125236,0.8930248468791078,1.177884847223879,1.7626465866389616,1.6406162121080279,1.9913887330445044,0.9374847745567124,Relax
102.52413391413268,585.5445544554456,29.963152288260744,,,,,,,30.91763250962143,31.067921680984032,0.051171430184550816,0.05280150293323917,577.0,23.7216,0.04111195840554593,39.0,0.9691282888150101,563.0,614.0,10.891089108910892,34.65346534653465,520.0,663.0,5.315789473684211,70.3125,,,0.04073267502030706,0.01257336659680516,0.006470783563933659,0.05977682518104588,3.2395997290540355,0.6814124854730932,0.2103384808196863,-4.376174464331346,21.968338097996373,36.20413782925365,0.6067908094263613,2498.6491934475334,1.6480144136417703,4.104675396082422,238.65976390433315,0.5643564356435643,0.5578947368421052,0.8490566037735849,0.2631578947368421,51.375711574952575,51.40886830022876,51.34214576839044,46.31578947368421,0.5201903964849879,0.47980960351501195,15.847282531600287,15.219770502258374,0.5331752117433585,0.4668247882566417,26.43584425767714,24.736324188194054,0.5296799680690649,0.47032003193093525,21.79438259337168,20.53688326505325,0.9947352070833302,2.511769928823986,1.4361171893951301,1.7343560999789007,-0.7808649074500096,-0.49540229022021265,-0.3812634440912323,0.0033173579966463986,0.4702038478340893,0.5228397918480185,1.4271163556401458,5.804105913380601,1.0868165020862544,1.0296514824912926,1.2324460398251618,1.5379045492479777,1.7662500193157415,1.6984586647972204,2.660719586415258,0.9229204035497537,Relax
102.50637900877584,585.4356435643564,32.15942034352739,,,,,,,31.444872395988508,31.60184753581296,0.054932460462653966,0.053711919903851574,577.0,25.2042,0.04368145580589255,39.0,1.0227238304083572,561.0,618.0,12.871287128712872,31.683168316831683,520.0,696.0,5.315789473684211,70.3125,,,0.04974992859506721,0.014573603391719621,0.006276764336217475,0.07060029632300431,3.4137012829190856,0.704670251913047,0.20642411081454592,-4.228543373517291,22.34588069059673,39.756249746918954,0.5620721479728731,2790.954513543654,1.779131030787639,4.152722868457599,282.9263103699469,0.5148514851485149,0.5104166666666666,0.7755102040816326,0.15789473684210525,49.27466150870407,49.2408599304764,49.30912395077997,48.95833333333333,0.5115495863589473,0.4884504136410527,15.98310345207075,15.618074222651218,0.5050100929615893,0.4949899070384108,28.252406029657838,27.970715891352288,0.5065801922138705,0.4934198077861293,22.952756287908457,22.652650947504906,1.0898623290629472,1.7650471507084782,1.4708599235147926,1.6752339425121583,-0.38211565266364467,-0.7283516501638903,-0.38421044791050973,0.0014992601919353707,0.2401877342520843,0.6326612957920155,1.1755733298042383,5.83846903206396,0.9966646870995488,1.0269252610389323,1.1327129157483564,1.6360327600310394,1.6627507035041273,1.6473308364477555,2.7405803212273194,0.7910746316140745,Relax
102.61944465854201,584.8415841584158,34.54409723042921,,,,,,,34.092081191971836,34.261588764189916,0.059065733638174855,0.05829284735460488,579.0,32.6172,0.05633367875647668,50.0,1.0132586812729936,559.0,618.0,12.871287128712872,32.67326732673268,487.0,696.0,7.214285714285714,109.375,,,0.03873474254858542,0.010519187204056273,0.005166075317880164,0.05442000507052186,3.6822942492789776,0.7117739606674016,0.1932963289956452,-4.554554336629271,24.226601749383512,42.61423091841123,0.5685096557478068,3243.3739765170617,1.7589850759607928,4.21796713775092,299.83118483612935,0.48514851485148514,0.4845360824742268,0.7659574468085106,0.2,49.09428704133769,49.096620769329405,49.096635926424874,51.546391752577314,0.5075154654254175,0.4924845345745823,17.260189495313817,17.002673586554234,0.48219877059512767,0.517801229404872,29.591549337128615,30.664521594115236,0.48838319234769295,0.5116168076523071,24.22368606948433,24.79318246702981,1.134124043976186,2.5824430709221144,1.6704102294917784,2.068821334448069,-0.9717457465729389,-1.2189614463579548,-0.34572317994447427,0.0039366229328826425,0.5603884371360711,0.5517139572939129,1.0498221244986776,6.026781408387268,0.9593440627722772,1.1241724414119687,1.087992986270425,1.220135092726163,1.6279777217738673,1.6303078744261992,2.7344296267345993,0.725151745646235,Relax
102.17803383583538,587.23,39.742061020302074,,,,,,,38.14737503711392,38.34053063567145,0.06767716400780285,0.06496155686377385,575.5,30.3933,0.05281198957428323,54.0,1.0418032952893004,557.8,618.2,16.0,41.0,487.0,700.0,6.25,85.9375,,,0.045610152007761535,0.008373527480982832,0.005312901351954275,0.059296580840698644,5.446945998725988,0.7691868799365355,0.14121433921255033,-4.782680039895941,27.110849206773853,48.452372975099586,0.5595360462676726,4126.748914986045,1.787194956733166,4.3225781557344565,346.3753464914093,0.57,0.5684210526315789,0.8333333333333334,0.3,50.53045186640471,50.47166796623971,50.594630024394625,49.473684210526315,0.5339876585199943,0.4660123414800058,19.81161275615895,18.507720396788855,0.47395868546982,0.5260413145301802,33.35687018453063,35.14187898235569,0.48827207788716687,0.5117279221128328,27.433381021190485,28.08458093595351,1.0744944930259268,1.5965828171918321,1.4899434017367148,1.6283266602926232,0.18698868752656583,-0.2914982312886165,-0.41332534894788275,0.0026834669088460932,0.26048389988625803,0.533835906488819,0.94132681003548,5.993660689688185,0.973488534539106,0.9969170009798223,1.183311021387612,1.4162082917303365,1.5287083005906443,1.665612998984396,2.5305906922369976,0.8637013046707142,Relax
102.4913339818443,585.58,39.49483536112058,,,,,,,37.35943351721587,37.54747149883029,0.06744566986768773,0.06379902578164533,575.5,31.1346,0.054100086880973064,51.5,1.0571583036161585,556.0,615.6,15.0,45.0,487.0,700.0,5.555555555555555,93.75,,,0.03876593985268213,0.004656366669596483,0.0017490238241705475,0.045171330346449164,8.325362370150621,0.8581978780646972,0.10308234523720446,-5.369519819592681,26.550071713231517,49.34907882744414,0.5380054165968833,4116.1824961165075,1.8587173458688055,4.321464731469913,366.90395527686974,0.6,0.6082474226804123,0.864406779661017,0.35,49.25143953934741,49.25699243325007,49.251318715379846,53.608247422680414,0.5249281718375706,0.47507182816242943,19.23710806048072,18.300775047711472,0.4424676431124021,0.5575323568875978,32.82613935409051,36.84801427788376,0.460979603536003,0.539020396463997,26.903733490212673,29.09204808508731,1.2114426837672383,1.4645550790528201,1.5490763934981877,1.7778298228435858,-0.060210673798138714,-0.7337929244286832,-0.34380687854133757,0.0017137819358076535,0.20122393745669875,0.5173360767244546,1.1349799328389845,6.033660689688184,0.9608797886820528,1.2992946930802765,0.9506155209584055,1.2858955026568313,1.69076099585669,1.6266270755586745,2.8627725390064778,0.8637013046707142,Relax
102.0246455942228,588.53,40.64566149024761,,,,,,,42.414858269481485,42.62826329055444,0.06906302395841778,0.07206915241275974,580.5,34.099799999999995,0.058742118863049086,53.5,0.9582882779427592,556.8,620.2,18.0,45.0,487.0,700.0,6.25,78.125,,,0.039971191571640675,0.004153609028396387,0.0034235128369309335,0.04754831343696799,9.623243617387994,0.8406437301846287,0.08735554908593304,-5.483777677265278,30.14273404295661,49.01671787472168,0.6149480289560854,4641.696518666317,1.6261536795191713,4.373646852161582,318.8348645197272,0.59,0.5979381443298969,0.8448275862068966,0.3684210526315789,50.781521361583906,50.8358433798393,50.7285983631805,52.57731958762887,0.519418538710746,0.4805814612892541,21.725326140667423,20.89734384058981,0.44961862364637517,0.5503813763536249,32.86747745848892,36.364372079355114,0.46877299636767006,0.5312270036323299,27.859117631420457,29.656926141439698,1.0172865922748626,1.7528740532089224,1.4225819575080658,1.5618801373658353,0.040724203608872855,-0.18279622655200223,-0.4205315523937607,0.002429585417820264,0.27581267220829914,0.5710081776561924,1.2086131838824383,6.033660689688184,0.9685722357771221,1.2198507395686768,1.286840612668846,1.5352803742636585,1.7059772795710137,1.6838004719082658,2.6754421972358045,0.8637013046707142,Relax
101.13829998034791,593.5757575757576,40.007675515899805,,,,,,,41.22090810870283,41.43279649371125,0.06740112783462801,0.06944506675450242,591.0,38.547599999999996,0.0652243654822335,51.5,0.9705675433058478,563.0,621.0,16.161616161616163,44.44444444444444,487.0,700.0,6.1875,78.125,,,0.033177622506908096,0.003652980651760751,0.0014255062027011807,0.03825610936137003,9.082342796126323,0.8672503048731336,0.09548751069415937,-5.612211827717168,29.29741136422543,48.74113124483571,0.6010818915354902,4486.159665217368,1.6636668215797616,4.358844836294982,324.35601159319134,0.5757575757575758,0.5789473684210527,0.8545454545454545,0.3333333333333333,49.891461649782926,49.9027018404506,49.88336080211947,55.78947368421052,0.5036992997753995,0.4963007002246004,20.79291612123567,20.639642568630514,0.4344635558748208,0.5655364441251793,32.127155903817275,36.65438211944266,0.45283928961780895,0.5471607103821909,27.06011370350209,29.745071641525275,1.0993668317597196,1.2914925198672451,1.4081280185858385,1.517600304013964,0.2785219889670305,-0.247656986264861,-0.41523583470744496,0.0012580212674901886,0.15204054511531148,0.6288166706210485,1.3862943611198908,6.0004206351655665,0.9739324528460993,0.9615603533836973,1.0181826583834388,1.4470608195130157,1.696626893917888,1.675390115977493,3.3915462098492504,0.8705215763740901,Relax
101.28486347020056,592.61,35.39243056663588,,,,,,,36.486194981697174,36.66903067658958,0.059722972218889114,0.06156864545265381,590.5,31.875899999999998,0.05398120237087214,40.75,0.9700225135668444,565.0,615.4,12.0,36.0,514.0,700.0,7.142857142857143,54.6875,,,0.03570329566154145,0.0055133365707085834,0.006086708516755336,0.04730334074900537,6.475805567762173,0.7547732379196108,0.11655279486416634,-5.200585290864684,25.928920250954025,42.98829499402723,0.6031623318523467,3501.7450635542937,1.657928466668238,4.25125463505537,285.0860720165178,0.57,0.5684210526315789,0.8333333333333334,0.23809523809523808,49.0388722768048,49.045350765964585,49.03824617524826,51.578947368421055,0.48134574673920466,0.5186542532607954,17.99064382689298,18.6748493969831,0.5121805012771347,0.4878194987228652,30.765341547149028,30.02477753424282,0.5039541712197219,0.4960458287802782,25.200887938908586,25.002372547228116,1.131911912653893,1.8288137669958175,1.5374975909656396,1.7518980427759847,-0.38828001203372686,-0.791174373784246,-0.38276528989469527,0.0016682481681547488,0.266953518356284,0.6446128617375564,1.2119409739751128,5.99101406462328,0.9215350482173421,0.6858543362348752,1.022936545539063,1.5188309762372825,1.6128692589966052,1.6725233439825598,3.122712776970504,1.063016990363956,Relax
101.7986421133089,589.6534653465346,34.77856686051464,,,,,,,34.51231664203375,34.68603771146557,0.05898136601313036,0.05852982924767709,585.0,26.686799999999998,0.04561846153846154,37.0,1.007714643477645,563.0,608.0,9.900990099009901,34.65346534653465,528.0,700.0,6.3125,39.0625,,,0.04432184313516891,0.013267831313996045,0.00816746311723483,0.06575713756639978,3.340549188955578,0.6740233041685233,0.2017702078439553,-4.3224128717258115,24.526732478269622,42.730068896256036,0.5739923457136908,3292.4801084920573,1.7421835107515582,4.224493269814828,297.7744857773412,0.5841584158415841,0.5833333333333334,0.8392857142857143,0.3157894736842105,50.22281639928698,50.24392324715842,50.20318673788081,50.0,0.5016119553354043,0.49838804466459574,17.371025451956637,17.31511280105132,0.4769096064494793,0.5230903935505207,29.508805397026766,30.90451733839556,0.48303135609251563,0.5169686439074843,24.212828430525434,25.048975260799825,1.136327600752981,1.4250133312992221,1.4897862235257269,1.475246843714005,0.3459233112460911,0.15877084166460387,-0.510202978100188,0.0010494037268552327,0.16357974044759632,0.6148005769682645,1.3581234841531942,5.893021259829574,0.8927761463610147,1.1855994496423334,1.0479756595682612,1.4360006700802812,1.7495448767122939,1.6710280092975114,2.486593577719429,0.9229204035497537,Relax
103.40656161735234,580.2178217821782,29.258367678459457,,,,,,,31.647906723826143,31.800214407510467,0.05042652359176146,0.054544871832129284,581.0,26.686799999999998,0.04593253012048192,34.0,0.9244961423130169,557.0,600.0,7.920792079207921,29.7029702970297,527.0,667.0,6.733333333333333,78.125,,,0.03309104923261055,0.019617381359141567,0.010425589256619534,0.06313401984837165,1.6868229569891269,0.5241397476682935,0.31072599853860783,-3.9313393016862186,22.4861472507368,33.80748452785286,0.6651233466427002,2388.238971727599,1.5034805274053826,4.085047890924163,203.31557867274213,0.5841584158415841,0.5833333333333334,0.8571428571428571,0.23809523809523808,48.3325037332006,48.476819888235156,48.17987924324592,52.083333333333336,0.46279415728990914,0.537205842710091,15.300524847405091,16.484764928486992,0.4584234813003839,0.5415765186996161,22.89002596959839,24.87956432922653,0.4597644095577219,0.540235590442278,19.46868446370927,21.103793449988984,0.9945557750636519,2.360170773114899,1.4858249883831451,1.5302938546870573,-0.27714094501238584,0.22547185898456412,-0.4811586234307854,0.002098407216079022,0.39498479910597817,0.6241739792614354,1.5088966832122228,5.8829267052884475,0.9848813266109668,1.1498978379861238,1.046978745959263,1.1416894586714526,1.7999855584767668,1.7802273161821567,2.372062514922507,0.9888432895175933,Relax
102.91917812110806,583.1386138613861,26.946253803811135,,,,,,,24.512649795564737,24.625212915041182,0.04620900273672555,0.042035717088341314,585.0,26.686799999999998,0.04561846153846154,35.0,1.0992795160271382,560.0,604.0,4.9504950495049505,22.772277227722775,527.0,665.0,7.214285714285714,101.5625,,,0.05565151834111956,0.01252786822857226,0.0017089643698211625,0.06988835093951298,4.4422177281682576,0.7962917652655,0.1792554561691531,-4.379799657942561,17.41265504038817,33.63771557479653,0.5176527223339392,1840.0997363695806,1.9317970462732297,3.971811473069731,259.92495836308376,0.5742574257425742,0.5729166666666667,0.8545454545454545,0.17391304347826086,52.368591823491236,52.4253268455581,52.310719887322996,50.0,0.5582738362707408,0.44172616372925927,13.016112780672728,11.578018183199793,0.4932507779211921,0.5067492220788081,23.62437803146862,23.945452004862464,0.5070019979713729,0.4929980020286271,19.072629987667263,18.807381220782396,1.1537129345763868,1.5812953779357368,1.5033200284393284,1.1626608193774652,0.7074993631811193,1.6899675621966814,-0.7154304716343182,0.0007103907805205528,0.16332977394448675,0.7141448988905261,1.484734433933143,5.73945913107386,0.939490508107823,1.0561274496421265,1.1869377487512107,1.5796647094997682,1.7037731373887017,1.6753017809460855,2.129240287015761,0.9229204035497537,Relax
102.9960496108959,582.6039603960396,23.177609543661227,,,,,,,17.233687939614086,17.318221851010225,0.03978278748380919,0.029580451063015527,585.0,22.238999999999997,0.03801538461538461,30.0,1.344901313338986,565.0,600.0,0.9900990099009901,19.801980198019802,527.0,658.0,6.3125,93.75,,,0.021883009031468444,0.008926929759072577,0.0007173852873592784,0.0315273240779003,2.451347733438633,0.6940966184569966,0.2831489833077868,-4.718682755184572,12.245832108942373,30.516493305036928,0.40128569120099805,1174.012714614128,2.4919901753962983,3.7766429103289694,304.1872060147958,0.5643564356435643,0.5625,0.8333333333333334,0.21739130434782608,51.12359550561798,51.112824653166356,51.1327772183319,50.0,0.5181481481481481,0.481851851851852,8.816020770292129,8.501633829904566,0.4836825194767838,0.5163174805232161,21.223393325347956,21.927697995775553,0.48846385022735433,0.5115361497726457,16.250456093055455,16.629818356971267,1.353474673853326,1.3848014777437125,1.5649216937159518,1.9239036570366599,-0.5461091081236358,-1.2486939148682152,-0.2407700893664518,0.0011194466622694045,0.15235673512529335,0.6866755746541839,1.55814461804655,5.607586394252243,1.025168701936832,1.0100182849459902,1.0121089626340343,1.4916458569812825,1.6789492579225453,1.6723861856673683,2.355810748449571,0.7910746316140745,Relax
103.35838906895151,580.5742574257425,20.55497338098664,,,,,,,17.243549518588104,17.329253599132027,0.03540455526245184,0.02970085100749341,585.0,19.273799999999998,0.032946666666666666,25.0,1.192038411745152,565.0,598.0,0.9900990099009901,19.801980198019802,527.0,617.0,5.315789473684211,70.3125,,,0.03901915804525011,0.01456753169951926,0.002785066447105707,0.05637175619187507,2.678501674140017,0.6921756688303066,0.2584189793543969,-4.228960082905529,12.253632732847642,26.482370732167457,0.4627090548945253,1019.463293262986,2.1611852835427015,3.715341703175189,228.93323959872905,0.6039603960396039,0.6082474226804123,0.847457627118644,0.25,49.212598425196845,49.22077805417278,49.20509289822307,50.51546391752577,0.4722203538037263,0.5277796461962737,8.421053462254077,8.902672394150857,0.5299754861999693,0.47002451380003085,19.27901103964274,18.155872133535553,0.5197895637913823,0.48021043620861786,14.876061442478786,14.298483637904905,1.1901242305401314,0.7844005454177463,1.3456199649727183,1.4675313595916357,0.2135662250758763,-0.5566891876720512,-0.3445801761216377,0.00019653396581036063,0.04217709318526686,0.6790347169133151,1.4395388756387029,5.531573364515944,1.0906994042031777,1.1695633544895097,1.274149740304106,1.5355270718697778,1.679009762874433,1.712252676439186,2.8204383347049635,0.9888432895175933,Relax
102.95451829848325,583.3861386138614,50.79349767382233,,,,,,,68.19406132501568,68.53755071919231,0.0870666858738002,0.11689352353665157,583.0,19.273799999999998,0.03305969125214408,29.0,0.7448375516416077,560.0,596.0,3.9603960396039604,20.792079207920793,527.0,1045.0,5.9411764705882355,93.75,,,0.017147814775729537,0.017414202121370778,0.003796029513239189,0.0383580464103395,0.9847028681656147,0.44704609281423946,0.45399085070914197,-4.0504691918111675,48.463366879457816,53.37879643726437,0.9079141927903224,8127.036914679317,1.1014256720964646,4.616902342374289,235.17110696645713,0.6336633663366337,0.6428571428571428,0.873015873015873,0.20833333333333334,49.794238683127574,49.57780498442347,50.04389792831261,51.02040816326531,0.5410402908978311,0.4589597091021689,35.647474303832865,32.83229501511577,0.4741366654129457,0.5258633345870545,36.75534874152483,38.70840022501314,0.504366896835251,0.49563310316474896,36.20564931991647,35.89080553525787,0.15107824664024716,3.057528655424213,1.1355365430652364,1.1372921084594645,-1.1202334181656752,-1.0351324863798965,-0.49942582209618425,0.010203457801358734,0.8019367613209436,0.7275926792304781,0.7924021386552869,5.519659814834061,0.5761025291666844,0.7689453980957909,0.9553693929512227,0.911658539247284,0.9517655506593647,1.9344507783547016,1.4879863541248473,1.0547661754854327,Relax
102.59955983204713,585.4851485148515,50.92045048139032,,,,,,,68.40014619867416,68.74472174412206,0.08697137854060984,0.11682644106717101,584.0,20.7564,0.03554178082191781,27.0,0.7444494392378556,565.0,600.0,4.9504950495049505,20.792079207920793,522.0,1045.0,5.9411764705882355,101.5625,,,0.06454902160635759,0.19704148347389078,0.040092504162719644,0.30168300924296804,0.3275910253432026,0.21396306596229753,0.6531408048744252,-1.6243409964025666,48.60985891605101,53.50638779952852,0.9084870221136353,8171.087593995822,1.100731188953537,4.619249976119045,235.5845994367362,0.6138613861386139,0.6224489795918368,0.8524590163934426,0.21739130434782608,50.090497737556575,49.93351186511319,50.278860175527164,52.04081632653062,0.5406875590456934,0.4593124409543067,35.74354501306509,32.9441676449441,0.4783615618958615,0.5216384381041385,37.00699065819535,38.6447432101415,0.506542856414985,0.4934571435850147,36.380752931163805,35.90775932577776,1.0793137804739263,1.3788448751594058,1.364671249245664,0.9329419626175175,0.22750876399647524,0.9176398421814054,-0.8131093964273792,0.004444498308635106,0.1828920134716806,0.6987148348025212,0.7569137989189345,5.534220953319401,0.5919564852031945,0.6447937534029877,0.9495664728613935,0.8883427419111616,0.9460396771261219,1.8090168978362764,1.4900420538964478,0.9888432895175933,Relax
102.54965295268804,586.0792079207921,55.91684597119491,,,,,,,80.93485034272936,81.34231135246661,0.09540834278965242,0.138095413126595,584.0,20.7564,0.03554178082191781,27.0,0.6908871238336465,567.0,598.0,6.9306930693069315,20.792079207920793,394.0,1045.0,5.9411764705882355,226.5625,,,0.057797522306706886,0.13374025521051253,0.02825783292192946,0.21979561043914886,0.43216249449899186,0.2629603120427572,0.6084755511873107,-2.01185575409947,57.517699954716626,54.78845036072195,1.0498143235668385,9900.118675586285,0.9525493961659907,4.702610510604123,208.7548212319042,0.5841584158415841,0.595959595959596,0.8135593220338984,0.25,49.61859789320741,49.81088397552397,49.559832439828725,50.505050505050505,0.4763306337732523,0.5236693662267479,39.69695813092591,41.62282542018977,0.5373313243811981,0.4626686756188019,40.161515861744206,37.266968438768416,0.5053493207051333,0.49465067929486684,39.92991260422201,39.50497774063261,0.5997525368235749,2.0408435811695966,1.1991711061788883,1.1385729403839537,-0.6193859833055377,-0.6721506173826125,-0.529692704700184,0.00370134337556915,0.3189536190354134,0.6699636455725355,0.7296881800229246,5.513174448180066,0.5396233545249369,0.554479376933802,0.9199259061558385,0.8694199451985708,0.8686319930860954,1.9192556259497255,1.6698902253750323,0.9888432895175933,Relax
102.83365421886491,584.4554455445544,56.284016337229396,,,,,,,82.71565752625074,83.13216688934057,0.09630163730408553,0.14152602761564162,582.0,17.7912,0.030569072164948453,22.0,0.6804517792700497,565.0,595.0,9.900990099009901,21.782178217821784,393.0,1045.0,5.05,218.75,,,0.05569950031708002,0.14550827179880865,0.03294915171721099,0.23415692383309966,0.38279267307974485,0.2378725318273357,0.6214134923574703,-1.9275223431356197,58.783318942184486,54.17428664351136,1.0850778585974268,10004.541198547982,0.9215928535235264,4.7071672869412495,199.70654166158036,0.6039603960396039,0.6161616161616161,0.8360655737704918,0.35,49.70218398411647,49.884364944303435,49.63661130990074,51.515151515151516,0.4784679064818444,0.5215320935181558,40.66132602785397,42.45175514806796,0.5337934984653956,0.4662065015346043,39.58036922873292,36.98983245502073,0.5038769281603469,0.4961230718396532,40.12448792586805,39.81456530091732,0.5373501849657084,2.3048122463214007,1.2418332720344631,1.1831241285878704,-0.36604095561036587,-0.36425413863758194,-0.5254724190832877,0.00474247537845535,0.45737441567687126,0.6991959540183492,0.7082262873870657,5.597236081800592,0.5397172951755776,0.5517252918282021,0.9051314044630675,0.8563836692768252,0.8192199947945759,1.8777258764074427,1.7313179950963753,1.1866119474211119,Relax
103.52152720914391,580.7647058823529,60.13980024638438,,,,,,,90.92064868024009,91.3727118742107,0.10355278073417751,0.156553330048018,579.0,22.238999999999997,0.03840932642487046,28.5,0.6614537084737567,558.4,595.0,16.666666666666664,32.35294117647059,393.0,1045.0,6.0,218.75,,,0.0634699950662903,0.18716072607383444,0.03925818605844658,0.2898889071985713,0.3391202652272867,0.21894592545693345,0.6456291407716095,-1.6757875335631658,64.61026418165895,55.804991969472326,1.157786461415557,11327.248792144395,0.8637171303396993,4.761094549438462,192.7989100900104,0.6372549019607843,0.6499999999999999,0.8615384615384616,0.5294117647058824,49.3604213694507,49.48046301716321,49.33671814842636,50.0,0.4753180832244411,0.524681916775559,44.54514563900313,46.80112178142742,0.5425561666784988,0.45744383332150107,41.105070933348884,37.74347986443789,0.5040460354250363,0.49595396457496355,42.85963635190832,42.514205110040734,0.6877436028383034,2.1856783883545834,1.3021448745260369,1.3081535595617337,-0.5932983054149403,-0.5941630136159683,-0.49725088326456834,0.0032868727602596653,0.3702470697238952,0.7153506603993427,0.7455683109235524,5.809296910429262,0.5881174786393258,0.8022406736173926,1.0893291075691671,1.0515370999341216,0.9693933357567889,1.8798300692861831,1.8912736317097314,1.1120708903285825,Relax
102.28496130339585,588.43,93.2484738684118,,,,,,,123.4542813998753,124.08204273467805,0.15846995202218075,0.20980283364185257,577.0,28.9107,0.05010519930675909,38.75,0.7553279870981129,552.8,602.4,21.0,38.0,393.0,1263.0,9.090909090909092,234.375,,,0.034467215911397134,0.041341816902328736,0.013104562963484381,0.08891359577721024,0.8337131382693448,0.38764843115513214,0.46496620163600677,-3.1858807754686387,87.73925384116984,99.31428056663944,0.8834505303826592,27375.087142779637,1.1319252924856567,5.144325620296471,449.6653843135837,0.54,0.5510204081632653,0.7962962962962963,0.47058823529411764,50.33339683749286,50.48987508637873,50.260434741990956,47.95918367346938,0.4967859734699491,0.5032140265300509,61.84155197777954,62.24035865013921,0.5066273992457545,0.49337260075424527,70.68968357319199,69.75883428492173,0.5023133389258193,0.4976866610741806,66.41313467492111,66.10657004295841,0.6611201526628577,2.6539109298047747,1.4726743014435666,1.6853737504262025,-0.40246275593579917,-0.797059021657714,-0.4198543377647258,0.008518860828591825,0.7691805704953973,0.6461924137363524,0.6649005144386408,5.97101406462328,0.504599851678486,0.6316591432506105,1.00118360786605,0.9390108417041443,0.9496150245516591,1.9152036426311618,1.7917713176100158,0.9301398665684615,Relax
102.16109535292568,588.98,95.23081794707367,,,,,,,128.0218179006448,128.6733322314329,0.16168769388956106,0.21736191025271623,574.5,28.1694,0.04903289817232376,37.25,0.7438639718503328,553.8,605.0,21.0,37.0,393.0,1263.0,5.882352941176471,187.5,,,0.06369043909559112,0.0923200332980724,0.01313980189842981,0.1691502742920933,0.6898875230033192,0.37653169267469666,0.545787074153079,-2.3824941155413857,90.98578577871575,100.0926014250247,0.9090160959286238,28610.496835254853,1.1000905313765976,5.163495509568385,440.4436923540857,0.55,0.5612244897959184,0.8181818181818182,0.47058823529411764,49.99082400440448,50.22278527628444,49.84684068254673,48.97959183673469,0.475014621874324,0.524985378125676,62.70859069488626,65.92454716088194,0.5224457268680198,0.4775542731319802,72.34733991257737,69.16929425404633,0.5009856224375506,0.49901437756244943,67.69972281835719,67.56640136180924,0.6782760155076907,2.388534013044616,1.4277944647689809,1.4860914376301615,-0.4214847093141696,-0.6040636465071394,-0.4755929902849193,0.0063195531158063865,0.5588296805311015,0.575172498355502,0.5692448626178505,5.9461118146665495,0.5033764065212103,0.48161078123785694,0.9018675075491059,0.7957048174596455,0.9037790892907391,1.8508975415286884,1.7979268485366016,0.7972627427729669,Relax
101.26035987907149,594.5555555555555,98.09296113862253,,,,,,,129.93774019325798,130.60445018030936,0.16498535792330457,0.21854600294137952,576.0,34.099799999999995,0.059201041666666655,46.0,0.7549227883502335,552.6,618.0,24.242424242424242,42.42424242424242,393.0,1263.0,6.1875,195.3125,,,0.05800398154676077,0.10307618690128552,0.016015219822149904,0.1770953882701962,0.5627292131237868,0.3275295992364495,0.5820376685587157,-2.272286885526675,92.35129237563734,104.38097108152296,0.8847521863301092,30284.065928246866,1.130259993081148,5.188184292931754,471.91054260962267,0.5555555555555556,0.5670103092783505,0.8181818181818182,0.5294117647058824,50.50434782608697,50.80323500949101,50.26487591003925,46.391752577319586,0.4773911014895318,0.5226088985104682,63.80939723314844,66.76300599188268,0.5262607016253843,0.4737392983746156,75.72195238050342,71.84408849450665,0.5048027724082458,0.4951972275917544,70.01947317558509,69.35009740684819,0.709196557705411,1.7246225179650143,1.4076722898866607,1.0726668020627161,0.5874652466876533,0.584994294762345,-0.6942485873484,0.00681386445060275,0.39825283462261724,0.6392562188004316,0.673977264452225,5.997747276514149,0.5611333530573239,0.8475358998145486,1.160048558934054,1.0805033752427466,1.015687012807931,1.8229951596197425,1.8441592650275025,0.7365951800088454,Relax
101.0469686546084,595.54,95.05813425945668,,,,,,,123.02089828212691,123.64696120926425,0.1596167079616091,0.2065703366392298,579.0,38.547599999999996,0.0665761658031088,48.75,0.772699074603223,549.8,621.4,23.0,42.0,422.0,1263.0,10.0,195.3125,,,0.04674022477777931,0.0716981394363405,0.009843118213746541,0.12828148242786636,0.6519028965776598,0.36435675588689653,0.5589126199617852,-2.6352904809972046,87.43160474418075,103.01529948234699,0.8487244630994184,28295.674554523535,1.1782386905028581,5.158690161716628,485.5064462553611,0.53,0.5408163265306123,0.8113207547169812,0.4117647058823529,50.0185666542889,50.04628949545751,50.00807563358306,54.08163265306123,0.5032170221854394,0.49678297781456066,62.022050061873564,61.62427298076759,0.4976613873943957,0.5023386126056043,72.67226604041412,73.01296923142432,0.4999876276226593,0.5000123723773405,67.5573569099853,67.55902862089225,0.8385840755241732,2.422911021349806,1.5403611912430724,1.5305606586603766,-0.376752641489972,-0.3461553907693239,-0.5040449411870007,0.00395347796882494,0.49803808254012094,0.7086044804454166,0.8119130172782366,6.10611181466655,0.6089804148713267,0.7703200434504373,1.1876509229008791,1.3117077909078658,1.1613588555513499,1.7838545024188657,1.8301130900710658,0.9965784284662087,Relax
101.43686778989903,593.0,95.98033386999609,,,,,,,121.24654423857167,121.86709217360348,0.16185553772343353,0.2044629751072035,575.0,37.065,0.06446086956521739,52.5,0.7916129442925784,548.6,618.0,16.161616161616163,39.39393939393939,421.0,1263.0,8.25,203.125,,,0.06634623903911095,0.12100358984648726,0.019065569074410607,0.2064153979600088,0.5482997580756236,0.321420977770103,0.5862139697055482,-2.1119350656726996,86.17304727944105,105.52870034182267,0.8165839908983445,28568.794368652358,1.224613770470659,5.162862023075037,516.9275984738712,0.5050505050505051,0.5104166666666666,0.7959183673469388,0.2777777777777778,49.17093142272262,49.11826392184636,49.29427431238616,54.166666666666664,0.49840942172085095,0.501590578279149,60.83796291756294,61.031806816601524,0.49366476404977794,0.5063352359502223,74.14581692866078,75.09130727198541,0.4955629238418036,0.5044370761581964,67.81909723660897,68.42362848868326,0.6730930824168266,1.8439445122073295,1.7760199983244713,0.9475363720533547,0.7355906528609033,1.0074665408399408,-0.9492996512565144,0.01267799455813707,0.5711243030758729,0.672594234779532,0.761876512712126,6.093805609891187,0.5456928237685382,0.9063623951505368,1.0242733393652534,1.0137749181939741,1.1051673672971862,1.7483793117044102,1.8428529056323795,0.9374847745567124,Relax
99.83725261141338,602.3367346938776,96.21442375071142,,,,,,,118.08890587486044,118.69399203710552,0.1597352746543177,0.19605130996182085,580.5,45.2193,0.07789715762273901,62.5,0.8147625980434644,551.0,637.2,16.3265306122449,41.83673469387755,482.0,1263.0,9.8,140.625,,,0.042737086337049895,0.09048057800168642,0.01767446513089454,0.15089212946963088,0.47233436479874547,0.28322939365536176,0.599637491496181,-2.4026200590239597,83.92932665553938,107.48501254110823,0.7808467866479538,28340.762004886812,1.2806609658891404,5.159381633010442,550.6074399180081,0.5102040816326531,0.5106382978723405,0.7916666666666666,0.2777777777777778,51.46868250539958,51.67579624320348,51.212910596487724,55.319148936170215,0.5132190994955141,0.48678090050448597,60.13063036700458,58.561354933664795,0.48915002220321613,0.5108499777967839,75.17422340172884,76.8235904973802,0.4982675759129598,0.5017324240870401,68.0692903311999,68.30555009871391,0.9070012557993647,1.3456483609700818,1.1979888530325864,0.9655682870479728,1.1925862364213442,1.395962049583247,-0.6727201345655123,0.013706327301134663,0.4531520722744534,0.6672172058811503,0.7633514392331936,6.129916221622074,0.5896905271742994,0.866647502871424,1.0868480627258783,1.1266558596299838,1.1820027665086468,1.7268960476912114,1.699892151142666,0.7424674314823193,Relax
98.90358322082265,608.7938144329897,112.68447265709182,,,,,,,148.76361982465113,149.5445274151634,0.18509464121616015,0.24435796865512605,588.0,48.925799999999995,0.08320714285714285,72.0,0.7574733176694269,556.4,646.0,16.49484536082474,39.175257731958766,433.0,1466.0,9.7,164.0625,,,0.048418329811629725,0.0825820881163659,0.008672080759945282,0.1396724986879409,0.5863054678806833,0.3466561439543437,0.5912551783073091,-2.4939624728622127,105.7439494245996,120.27855256999617,0.879158812316617,39957.066154338616,1.1374509201187006,5.308563702634913,547.2438011651506,0.5360824742268041,0.5425531914893618,0.7843137254901961,0.25,49.95320980722441,49.89012484471711,50.108220521031555,55.319148936170215,0.5138324125845655,0.4861675874154346,75.79949312425998,73.73073343343044,0.4742450790603839,0.5257549209396163,82.83037160614514,87.21272698363029,0.4915035277182255,0.5084964722817745,79.39280073881646,80.7535782506039,0.5314383903714087,1.8455695148694162,1.5855143634442483,0.8396457514333038,1.0477701518611626,1.256991997670824,-0.9041400803392219,0.01537436240478543,0.6397159984516037,0.6251276551630753,0.6726432003622381,6.184813228718154,0.514549548713365,0.9754838037835836,1.111467590751046,1.182779826449387,0.9982639831676764,1.7513185814682055,1.6898573254330116,0.7484437243717361,Relax
98.20615344810123,612.6666666666666,101.18223961760823,,,,,,,130.45987485571348,131.14726769196645,0.1651505543268905,0.21293777179931472,610.5,52.632299999999994,0.0862117936117936,68.25,0.7755813021399427,565.0,649.0,15.625,42.70833333333333,433.0,1466.0,10.666666666666666,187.5,,,0.05881938786699388,0.11215943355666264,0.011295362736042465,0.18227418415969895,0.5244265774334398,0.3226973042735413,0.615333619918411,-2.187833906023672,92.7351223190769,109.67604337539498,0.8455367231079502,31952.577470424687,1.1826807430956836,5.211476006447877,518.8469779160263,0.5520833333333334,0.5638297872340425,0.7924528301886793,0.3333333333333333,51.16537180910099,51.222152345773,51.13245294170885,54.25531914893617,0.5375263084003196,0.4624736915996806,67.99229461975507,63.067171215350875,0.4615374516323753,0.5384625483676246,74.51011754684369,80.48028872734652,0.493217515168026,0.5067824848319739,71.32569573619327,72.2998788337278,0.915565610373925,1.9693902924328377,1.5557335485322348,1.1987172837405229,0.2800080599680239,0.735726926714658,-0.6812826366431819,0.00397346272345622,0.3588245181722103,0.6579824357565194,0.7028559946869066,6.116008854797678,0.5568835971759366,0.8637832190092126,1.0400181599420462,1.2139980604155833,1.0627131603116717,1.7462962866705258,1.534594507939981,0.7545269532076325,Relax
99.68894501273735,604.0510204081633,105.5216177049601,,,,,,,134.93320226009962,135.63339226097656,0.17468990886507912,0.22338047234639868,606.5,46.701899999999995,0.0770023083264633,66.5,0.7820285588535486,560.8,637.6,17.346938775510203,43.87755102040816,369.0,1466.0,9.8,250.0,,,0.0623735215985563,0.12097940114957556,0.010067677369676198,0.19342060011780807,0.5155714196455595,0.3224761042027892,0.6254731971459595,-2.1121349863108625,95.90729142307151,115.28693193618143,0.8319008044741986,34736.141912007675,1.202066393759588,5.247751690354608,554.3301860805308,0.5612244897959183,0.5684210526315789,0.7962962962962963,0.23809523809523808,50.432730133752955,50.15898180646493,50.67720566634299,58.94736842105262,0.5496207411232585,0.45037925887674135,71.10262536174972,64.36403628321227,0.4268328182990825,0.5731671817009176,75.31976975223341,87.28120622292221,0.47705391041328005,0.52294608958672,73.24155599406252,76.68356449199183,0.834289838002582,1.9854417631905021,1.4306992604535276,1.1974196350978883,0.0707199292929026,0.4774607526704866,-0.6174950732278196,0.0032243435073292335,0.3292126107516684,0.5729115311714734,0.5819215454497209,6.126196548391459,0.5303416031684505,0.8736214011656346,1.0211448993762697,1.03183595319993,1.0152273716995972,1.7914442774980062,1.612765442814416,0.7424674314823193,Relax
99.38801643698315,606.5,112.60113438113102,,,,,,,148.29713833083025,149.06750529213474,0.1856572702079654,0.2445130063162906,611.5,48.1845,0.07879721995094031,67.5,0.7592940474005209,561.2,642.4000000000001,23.46938775510204,47.95918367346938,369.0,1466.0,8.166666666666666,250.0,,,0.05285348187467173,0.08664638545121457,0.010602501413387203,0.15010236873927352,0.6099906141431645,0.3521162411932203,0.5772486215838377,-2.4459199780447207,105.40664384663003,120.457072674826,0.8750556651096394,39888.725764903946,1.1427844420328457,5.307820273067575,550.6258743424438,0.5612244897959183,0.5684210526315789,0.8148148148148148,0.22727272727272727,49.95233555767397,49.868886475549594,50.100711596066496,55.78947368421052,0.5200850541995511,0.4799149458004489,76.01603449273054,73.02140097259158,0.4530649604531724,0.5469350395468275,81.07977645497903,89.08409626526468,0.4821288680838193,0.5178711319161807,78.58870036458603,81.44968142171872,0.5160968345599188,2.3699265803849165,1.4555314532969206,1.1360808205435262,0.542356334150524,0.6557225200370747,-0.6347934722524232,0.01123200487614813,0.7482822091630943,0.5955189490614097,0.6466271649250525,6.122213287926528,0.5681347843947165,0.8473424495092898,1.0091784237522001,1.001071643985837,1.0064688787271296,1.8154563756351842,1.7662373858388236,0.6749703922566539,Relax
99.52785467200594,604.7731958762887,72.5896722960986,,,,,,,93.89893724993199,94.38306082689114,0.12002792582584532,0.15526306041701587,613.0,45.9606,0.07497650897226754,61.0,0.773061702529026,569.6,644.0,26.804123711340207,45.36082474226804,369.0,801.0,8.818181818181818,250.0,,,0.05432260806707483,0.09052877559970414,0.016188535279910096,0.16103991894668906,0.6000590166741675,0.33732386617170296,0.5621511498007705,-2.4020875163879265,66.73890233983711,77.83315171942446,0.8574611314780073,16319.000247466753,1.166233620731354,4.919663658968603,363.08655337070877,0.5773195876288659,0.5913978494623656,0.8363636363636363,0.21739130434782608,48.77221002196047,48.96932033161963,48.52400139718979,54.83870967741935,0.48850056649492635,0.5114994335050737,46.650040898047166,47.73556546775492,0.4389853449638972,0.5610146550361029,51.56910900128756,58.297740122514774,0.45996772576248,0.54003227423752,49.171126278417454,53.27903299572255,0.7403529801136531,1.9650861154418569,1.4754670779952292,1.3042539314017156,0.33624036091594256,0.17554577595606158,-0.5871275539774581,0.007368952553911785,0.4838381934829483,0.6355593044181997,0.9888614247089906,6.148629981250866,0.6899469187302859,1.0491754799371553,0.9659354513643166,1.28017348864077,1.418792571194931,1.8098315819277988,2.4017468137565112,0.8845244015302336,Relax
100.69686926626845,597.9090909090909,71.00274368212548,,,,,,,93.57317337522653,94.05362607662269,0.11875173795094729,0.15650067008172297,605.0,45.9606,0.07596793388429753,62.0,0.7587937987034588,565.6,636.4,25.252525252525253,36.36363636363637,369.0,801.0,9.9,210.9375,,,0.05214422484338655,0.0814919986052703,0.03637416274745327,0.17001038619611014,0.6398692599989104,0.3067119957202922,0.4793354125510177,-2.5072504401774105,66.5059567939638,75.87910617865012,0.876472590984162,15853.77261631177,1.140936990256744,4.9071027349690866,346.2931161073639,0.6060606060606061,0.6210526315789474,0.864406779661017,0.3181818181818182,49.648905410987204,49.764177712128706,49.47870025917731,52.63157894736842,0.4813759057992125,0.5186240942007874,46.142987091560926,47.894966698511716,0.4661867600794513,0.5338132399205486,51.80863785754899,55.439190089829076,0.472785803490805,0.5272141965091952,49.05767123695649,51.804592619128606,0.624002934271468,2.393461326877153,1.5194092630191238,1.4412781739960154,0.1946326287040936,-0.05911098875722309,-0.5326435560690881,0.012015782236067243,0.7671534114325752,0.5957009560125597,0.8204089601708725,6.048449801854085,0.6024307382039832,0.7051531644264585,0.9804054298299018,1.1064297871359452,1.3240373355802857,1.8469544850924664,2.8490929734400408,0.8705215763740901,Relax
104.72280997162446,584.2254901960785,175.23731613894088,,,,,,,259.88937098025934,261.1805494403069,0.2999480835389903,0.4448442858818689,522.5,110.4537,0.21139464114832535,220.75,0.674276579599908,449.8,747.2000000000003,61.76470588235294,78.43137254901961,324.0,1168.0,12.75,171.875,,,0.04561002605698894,0.10332781506730354,0.03590577249002175,0.18484361361431423,0.44141092141821076,0.24674926639422134,0.5590012716528167,-2.269848674171505,184.68253762326933,166.43281015782225,1.1096522221077774,96563.8676581063,0.9011832537049368,5.691784762131185,599.9458455251292,0.6666666666666666,0.6831683168316831,0.9130434782608695,0.2,50.442189788942535,50.52112239322207,50.28306180527944,50.495049504950494,0.49142857059091954,0.5085714294090804,129.46858692362406,131.7074029810018,0.5391119269441726,0.46088807305582746,122.20202880089431,112.98913422969086,0.5127980601921771,0.48720193980782284,125.88774929089526,122.70571391336081,0.5098900828865773,4.182011090816358,1.416041444146217,2.2102724070488664,-1.609803862423842,-1.70594896437974,-0.31008396542831507,0.02972504588211892,2.0907381691868854,0.6999262609588963,1.116761607173787,6.383113822321232,1.2670426898937688,1.082753681097826,1.0605108438334323,1.0181961608416397,1.2754612649776136,2.0007878160251136,3.8828440589336477,1.1774868250537933,Stress
106.11808956018173,576.3398058252427,186.56526763102624,,,,,,,263.2232519975332,264.5231056131443,0.3237070661185537,0.4567153775204407,478.0,63.751799999999996,0.13337196652719666,224.0,0.7087719880946332,446.4,757.0000000000001,59.22330097087378,76.69902912621359,382.0,1168.0,8.583333333333334,93.75,,,0.033566500912890374,0.10178949555845546,0.02990921406896553,0.16526521054031135,0.32976389880637413,0.20310687774607508,0.615916049274188,-2.2848483672384354,187.0460817595796,187.18420257607204,0.9992621128567925,109993.66711133147,1.0007384320227033,5.748337791322042,749.2897015415934,0.6504854368932039,0.6666666666666666,0.8970588235294118,0.24,49.970555168906266,50.25979238459145,49.616569884477904,49.01960784313725,0.4650560665925122,0.5349439334074878,127.55612237927133,136.80525654309406,0.5729403955583746,0.4270596044416252,141.68501334540719,122.32449749478548,0.5190380444629817,0.4809619555370183,134.8057998810212,129.76702374866574,0.5291417970509369,3.889742468420608,1.462063735158845,2.2286228626807794,-1.3030699836044644,-1.8141746136881682,-0.3029280514724698,0.029460417929435347,1.9909926684175798,0.8279799799540424,1.1534532043676957,6.23635947886671,1.1638350728727953,1.3862987219579144,0.9518860879678854,0.8702587036867968,1.1764248742141001,1.9893259373396153,3.434566001821467,1.1685146552359023,Stress
104.39324235522356,586.980198019802,203.29249765783388,,,,,,,274.78449737931,276.1486526924192,0.3463362109039592,0.4681324826737001,491.0,75.6126,0.1539971486761711,231.0,0.7398252070138105,449.0,761.0,60.396039603960396,76.23762376237624,343.0,1359.0,10.1,125.0,,,0.04053675735066292,0.1039406395020859,0.016669559699715675,0.1611469565524645,0.3899991143488147,0.2515514919915065,0.6450052903620679,-2.2639353168126686,195.26658493433837,208.14086090865956,0.938146330719892,127683.60914640277,1.0659317925729606,5.813105260050949,887.455843904187,0.6435643564356436,0.66,0.9090909090909091,0.15384615384615385,50.864763492394246,50.71356167151719,50.836883311827776,51.0,0.4891696770027278,0.5108303229972723,136.58071946395995,139.57189233980145,0.5663809207478667,0.4336190792521335,156.64323879633636,137.06025579719278,0.5302340915579861,0.4697659084420139,146.95475016122987,138.3217749497617,0.6946670672984403,3.691416091144582,1.4988436786838681,2.381074102943739,-1.450763821709259,-2.1421948702961817,-0.2610048820082156,0.02712558930074113,1.8100279349280957,0.7991985078194483,1.2112632375886156,6.311483264844332,1.1806760054046006,1.1795767427591084,1.0740145547958384,0.9631839084587576,1.177368576097278,2.001868304838094,3.688571159457997,1.1206890614532723,Stress
106.86964295969214,571.0485436893204,191.6378518139315,,,,,,,256.3671731150078,257.6304333843059,0.33558942393204366,0.44894112058971414,491.0,65.2344,0.13286028513238288,127.5,0.7475132228725775,453.0,664.6000000000001,50.48543689320388,68.93203883495146,343.0,1359.0,10.3,125.0,,,0.038923076100145795,0.1196895406044963,0.012206460961034915,0.17081907766567703,0.3252003132735192,0.22786141121968298,0.7006801713257683,-2.122854050315467,182.17222648607182,202.01307847987738,0.9017843193960241,115614.29249714222,1.1089126063644092,5.769981635819265,896.0593975072752,0.6504854368932039,0.6666666666666666,0.9117647058823529,0.1111111111111111,50.35860352083459,50.60307094704548,49.95678179813215,48.03921568627451,0.47228037693502306,0.527719623064977,125.19493710700814,132.33917944373684,0.5656133523278669,0.4343866476721331,151.9285222060777,133.1428106102408,0.5237536336872732,0.4762463663127267,139.20497142155227,132.74160318648413,0.626242443636641,3.936581898326101,1.7904253950552227,2.2386914061904437,-0.5051598021407901,-0.7215194847943127,-0.3861281124810763,0.04107650151791014,2.3156174718173466,0.720545007228035,0.8642416747601168,6.290822007744738,0.8614975077765306,1.2527652476793072,0.9759397465598408,0.9232833404367188,1.223074573286587,1.9456924511635878,2.6918069821269315,1.0386796935430243,Stress
107.41823623318325,566.8349514563107,175.9932093769852,,,,,,,235.27420381417116,236.43420619170857,0.31048404641390576,0.4150665078250827,498.0,72.64739999999999,0.14587831325301204,115.0,0.748034448842473,458.0,592.2,42.71844660194174,61.165048543689316,343.0,1359.0,14.714285714285714,125.0,,,0.039824256247317405,0.12214848331520697,0.010135083779240047,0.17210782334176444,0.3260315246366997,0.23139131896541437,0.709720691038255,-2.1025178979317576,167.18423050261555,185.8870271084406,0.8993862191635652,97632.46740504798,1.111869382355009,5.696564375067696,826.7283760754826,0.6213592233009708,0.6336633663366337,0.890625,0.14285714285714285,50.324298491158615,50.321876719444134,50.12771713007862,47.524752475247524,0.48549681080915463,0.5145031891908454,116.49087415920715,119.92031182463965,0.553931508583168,0.44606849141683214,138.3493478909108,124.15089522582535,0.5233288555589467,0.4766711444410532,127.88797016181096,122.0539347450394,0.5955835305763841,2.303075159055713,1.3598827636026702,1.423571901297169,-0.23944452633367774,-0.4748249188632516,-0.47234604461601154,0.011834831593920507,0.6601524522518827,0.6283893507336398,0.6487811776049609,6.251987056288426,0.6817411518499426,0.9103327348572263,0.9490594986773117,0.8704509042471484,1.175370562143537,1.9515733934801534,2.5788900144205043,0.9737622126965852,Stress
105.27205097244273,577.6764705882352,173.25910098620687,,,,,,,228.85820764814355,229.99454750317042,0.299924109441018,0.3961702082397475,534.0,80.0604,0.1499258426966292,105.25,0.757058716690567,464.2,593.8,34.31372549019608,51.9607843137255,343.0,1359.0,14.571428571428571,226.5625,,,0.032382171945552235,0.12535895208789047,0.01532744019435417,0.17306856422779687,0.25831559219519284,0.18710602985606367,0.7243311496066386,-2.076574040191626,162.63070417542332,184.3353224130115,0.882254697832909,94180.49702396695,1.1334595355018342,5.6809310880009285,835.7465156753315,0.5784313725490197,0.5858585858585859,0.8448275862068966,0.2,50.59203444564048,50.73830723865378,50.24750373641519,46.464646464646464,0.48253000387146733,0.5174699961285328,112.97291710848224,116.99162363177972,0.5628120393611334,0.4371879606388668,138.2898330773294,121.88286654223914,0.5276726482090374,0.47232735179096275,126.2674897441056,119.46228098557569,0.5702139270032665,1.9923059485491075,1.9315818857642153,1.1753782041623788,0.21711838409198236,0.09768118203215681,-0.8795620256781044,0.018464944632433287,0.6836830104441711,0.5326364966833337,0.4542120206178071,6.339092008638162,0.5266994246921801,0.9181504347914696,0.741611283521579,0.7665789425323961,1.0817030614749628,1.9253768247295282,2.3406236910912375,0.9158230861529503,Stress
106.61174870417462,568.0582524271845,149.51777553467554,,,,,,,193.05845909322642,194.01031801032414,0.263208526406966,0.3398567986088245,541.0,63.751799999999996,0.11784066543438076,87.5,0.7744689159798721,485.2,585.2,23.300970873786408,40.77669902912621,343.0,1359.0,11.444444444444445,273.4375,,,0.030522911198799164,0.10889075993856272,0.007732302478363224,0.14714597361572512,0.28030763322820507,0.20743286716434664,0.7400186173148936,-2.2174101016921175,137.18601148525875,161.87165632000733,0.8474986579123708,69763.86178037975,1.179942871488768,5.550600622934024,763.9972278834898,0.5922330097087378,0.6,0.85,0.2,50.415070242656434,50.51922729291558,50.04094265659946,48.0,0.47465949443669936,0.5253405055633008,94.51578002253024,99.43371840797086,0.5920411896798495,0.40795881032015036,124.55087184256384,103.39010321611931,0.5429735662151849,0.45702643378481494,110.55802175783106,101.43120279153611,0.8080699061829901,1.97730784393001,1.4756875873668687,1.545812895202813,-0.2428653749720091,-0.741043509081645,-0.4645349569359082,0.007393463595124715,0.44644248962750605,0.40946396001533136,0.299536571986329,6.271404532016582,0.43958504824495565,0.6395763783604579,0.6124005319181892,0.5766126975283979,0.9195503547396296,1.9090893733668017,2.0281065929773936,0.7790097701572681,Stress
105.19804087283637,573.3980582524272,148.86375793847608,,,,,,,164.77649746746974,165.57963231609853,0.2596167806918902,0.28736842599304746,541.0,54.856199999999994,0.1013977818853974,72.5,0.903428342187361,497.0,583.6,19.41747572815534,36.89320388349515,343.0,1359.0,10.3,226.5625,,,0.0438419433665809,0.11130206370656287,0.019310800322962642,0.17445480739610641,0.39390054331935787,0.2513083131440228,0.6379994072266935,-2.1955074790345943,117.08248083708848,175.66382126476566,0.6665144820037721,64613.62615399975,1.5003424936749397,5.517294224542928,1054.2235825793896,0.5922330097087378,0.595959595959596,0.864406779661017,0.2727272727272727,48.706074639062926,48.39081990463727,48.80774688971664,48.484848484848484,0.46870982930795924,0.5312901706920409,80.16258231843828,85.34646918285604,0.5246610594312849,0.4753389405687152,127.23943787342155,121.11112067434284,0.5074492149324142,0.49255078506758593,106.33887848361177,104.76622392969841,0.6796020292968382,2.0853962677984708,1.515949640081554,1.3550435821125442,-0.02790351058194318,-0.2735749249027011,-0.5771585048144718,0.014445873258420209,0.6273695156186986,0.36751437044875424,0.3232007731371393,6.166988148500433,0.3566287527408014,0.8398530745977298,0.7152652431140136,0.6533560279354497,0.8859515018351358,1.9014655386033121,2.0801415720414127,0.7790097701572681,Stress
107.82818102534095,557.9056603773585,111.06030350793228,,,,,,,110.66947787594073,111.19979379114935,0.1990664576387572,0.19836593484476508,536.5,42.2541,0.07875880708294501,56.5,1.0035314672075137,499.0,578.0,10.377358490566039,33.0188679245283,453.0,1165.0,10.6,164.0625,,,0.06389973627629729,0.05431554130984013,0.004892948208711143,0.12310822579484856,1.1764540081039536,0.519053344029032,0.4412015603275224,-2.912944881025489,78.63012825626744,136.7967865333861,0.5747951413835096,33792.06658996045,1.7397502657956343,5.235784862292223,951.9689829257885,0.5943396226415094,0.5980392156862745,0.8524590163934426,0.3333333333333333,50.38185085354897,50.64043504185422,50.05538450905978,50.0,0.47700099221469167,0.5229990077853084,54.306333743085474,56.86450663977148,0.4620054254981284,0.5379945745018714,92.9821177518114,100.33786216702586,0.46572945455792075,0.5342705454420793,76.14083039416863,81.55139085151673,1.0262128607638985,1.719841383238079,1.6019757953220541,1.5327032546585966,-0.44579778070432674,-0.7389371852556441,-0.5402784473839283,0.006404314963213289,0.29019638462839836,0.5507342413921457,0.501693140202718,6.121650053558573,0.410284293370449,0.8918083283395078,0.9260773203646189,0.8898771089849716,1.0175108848482532,1.69908341861865,1.7155837797738838,0.6347094768455848,Stress
105.24774264604487,575.1553398058253,145.65475950446992,,,,,,,191.85817372092703,192.8054699254111,0.2532442097358316,0.3335762713873075,541.0,41.5128,0.07673345656192236,50.5,0.7591793285614006,510.0,581.6,18.446601941747574,40.77669902912621,311.0,1346.0,9.363636363636363,257.8125,,,0.04449714095626965,0.05483166148113954,0.008813949591391868,0.10814275202880105,0.8115227544504618,0.4114666967640973,0.5070303876355627,-2.9034874876153025,136.33405523411713,155.74625327326018,0.875360096110409,66707.06508940572,1.1423870067226256,5.531141943381348,711.6899843404145,0.6019417475728155,0.61,0.8524590163934426,0.38095238095238093,50.15499070055795,49.39461945817341,50.83033801831315,51.0,0.5433288721093598,0.45667112789064,100.4930666048338,92.13114845073562,0.4328541419963158,0.5671458580036843,102.46803233013333,117.29108132781988,0.4807814861060367,0.5192185138939631,101.48535383308473,105.46408458309574,0.6577275614649735,1.845282464889849,1.9146278706593796,1.0995757267612,0.6717638185738739,0.6234837265650527,-0.9416950572100259,0.019408949194356765,0.6916415685111723,0.49115797801671524,0.4181349608492161,6.276163997993992,0.40821539949066765,0.8769554705941852,0.8223021451622472,0.799961867876318,0.8053845799518392,1.8513320580401287,2.001686104884797,0.6491748084643901,Stress
103.74480086820313,582.5643564356436,150.71226996111392,,,,,,,191.36574928654292,192.25797352473677,0.25870492812713514,0.328488599023451,543.0,48.925799999999995,0.09010276243093922,61.0,0.7875613610220489,509.0,593.0,23.762376237623762,45.54455445544555,311.0,1346.0,10.1,242.1875,,,0.059725667323213265,0.07553423717570666,0.021006299825008696,0.15626620432392863,0.7907098761622531,0.3822046333153792,0.48336898885141927,-2.5831692529888346,135.94691681652506,157.01246347621162,0.8658351942686504,67058.42714239012,1.1549542067814365,5.533423472782722,725.368820835869,0.5742574257425742,0.5858585858585859,0.8275862068965517,0.2857142857142857,46.88505062537224,46.588605201774776,47.229731938295295,52.52525252525253,0.5160344448585984,0.4839655551414016,97.69469036366574,94.61039193781124,0.3923129455792338,0.6076870544207663,98.34458391597404,122.39794320683097,0.44534577404435405,0.554654225955646,98.02017575698022,109.39008813390927,0.7926157668804126,1.8219268912191688,1.5251516270783827,1.3835307844317422,0.3668725093933567,0.0069693655098661544,-0.5777313531784323,0.00977043986473707,0.4740058785952529,0.4973247264245888,0.4839709660205997,6.267025591619846,0.4410263449614641,0.7878315505851665,0.9216620795043294,0.8523220998122475,0.9372789042415023,1.841122741950803,2.0530597208922274,0.7910746316140745,Stress
105.48801005699163,573.5339805825242,140.68716620914788,,,,,,,182.07690682785667,182.97605327109306,0.24529874597186974,0.31746489831853675,540.0,44.477999999999994,0.08236666666666666,55.5,0.7726799002696128,508.4,581.6,24.271844660194176,51.45631067961165,311.0,1346.0,11.444444444444445,210.9375,,,0.06230341566794387,0.07889725469147689,0.018621195107472767,0.1598218654668935,0.7896778653652493,0.3898303619841666,0.4936574508187064,-2.5396088465204913,129.38360806274088,152.43484848426516,0.8487797203150452,61960.28319398076,1.17816198486555,5.499083504028012,718.3717746116048,0.6213592233009708,0.6336633663366337,0.875,0.28,50.02446183953033,49.16029804545234,50.87011643721871,51.48514851485149,0.561259723483988,0.4387402765160118,96.93066829154508,85.70043381707961,0.41347366705023514,0.5865263329497648,98.01853141829318,116.74223970363921,0.47535892537213154,0.5246410746278685,97.47611747716583,102.40438195569953,0.8571636563655709,2.1367535494602725,1.5384656377059354,1.5279158942673559,-0.5015792221963942,-0.7153398957372878,-0.5049372766649874,0.006331900412248977,0.4318347228680478,0.5960297243466335,0.5770589500807637,6.17174761447784,0.5137256242502102,0.7487037578436236,0.8993037047969293,0.8678949023217736,0.9556661947168379,1.8562622178341135,2.0478061308898208,0.7140922893108291,Stress
103.93120911881932,583.0990099009902,152.14378100668426,,,,,,,199.92851222374463,200.93555804000567,0.2609227222534955,0.34287232327438244,544.0,51.891,0.09538786764705882,69.0,0.760990912773945,508.0,598.0,27.722772277227726,55.44554455445545,311.0,1346.0,11.222222222222221,210.9375,,,0.03705882351473033,0.07591088981337601,0.027368301439997772,0.14033801476810412,0.48818850109434914,0.2640683180246399,0.5409146619240118,-2.5781951290701657,142.08289567159107,162.8499741814812,0.8724772379346702,72690.78623083924,1.146161706599019,5.568449476217066,746.6096173098107,0.5841584158415841,0.595959595959596,0.847457627118644,0.2222222222222222,50.13370413948015,49.43977042935971,50.78277572162132,49.494949494949495,0.5478438213713254,0.45215617862867485,105.16482973951612,95.54025012495724,0.4306560492804833,0.5693439507195165,106.86930130237863,122.87825898038473,0.48130589667541435,0.5186941033245859,106.02049088501714,110.06135998612295,0.868051534307508,1.9474915217632662,1.6157694601686,1.540196255286481,0.006000689298023332,-0.3907972308966565,-0.5388054089260911,0.0095741980252574,0.493733614397442,0.6689504620690334,0.7189648635858861,6.171880636427404,0.570338440056454,1.0848972898952018,1.0115114089630288,0.9510814302304379,1.0657223786053556,1.855848512508376,2.113684773234206,0.7910746316140745,Stress
104.46086859291268,581.8613861386139,147.93688043912312,,,,,,,217.1877068344339,218.1804359383825,0.2542476334799795,0.3732636535236493,558.0,42.9954,0.077052688172043,57.0,0.681147577804199,517.0,596.0,26.732673267326735,54.45544554455446,311.0,1346.0,8.416666666666666,257.8125,,,0.04243832338085447,0.1233013081906057,0.0723929761666092,0.23813260773806935,0.344183885829103,0.17821298722573062,0.5177842268717321,-2.0931242590497465,154.27686577426738,129.04918880532776,1.1954888457841906,62546.92437702704,0.8364779006733783,5.503176068932462,431.78717814193203,0.6138613861386139,0.6262626262626263,0.8548387096774194,0.2222222222222222,53.25083480652131,51.83038697770706,54.67719404954515,51.515151515151516,0.5912203601827414,0.40877963981725873,118.67994477977015,98.68412007793125,0.45782732336823473,0.5421726766317648,87.31847313429759,95.02198367119097,0.5363379100753876,0.4636620899246126,104.1859996435086,96.87035907945123,0.5015622367011795,2.896002651906123,1.3453679320374483,1.3441442157864802,-0.6047376322621609,-0.3206724240738037,-0.5004225535671256,0.0070782446175042925,0.7425893605260709,0.6733950747657604,0.7529656757708553,6.070250314580964,0.588346678147029,0.8839414997924031,0.9379526147710527,0.8798980586410304,0.9700341899385034,1.962307195256545,2.204977522162127,0.8569975175819141,Stress
103.9363479334822,584.9702970297029,156.34957342094316,,,,,,,230.38654474599858,231.54708402658,0.2672777989153255,0.3938431505254707,559.0,40.0302,0.07161037567084079,54.0,0.6786402113600807,523.0,596.0,30.693069306930692,55.44554455445545,311.0,1404.0,7.769230769230769,257.8125,,,0.03769922851145068,0.12546138225838183,0.02787428947666113,0.19103490024649364,0.3004847215361528,0.1973421006465683,0.6567458725944744,-2.0757572788516607,163.72851327916604,150.19187996719666,1.0901289291733076,77253.94114662688,0.9173226883891098,5.594890754363805,551.0976764228933,0.5841584158415841,0.595959595959596,0.8305084745762712,0.17857142857142858,50.10080645161291,49.31968463435184,50.941457027278695,49.494949494949495,0.5552905575120068,0.44470944248799316,122.00697529322665,109.18492791978426,0.4136656375198006,0.5863343624801993,96.59867659130697,115.00563677006832,0.49057383563351653,0.5094261643664837,110.03864398336144,112.13305706556247,0.5838412805357476,2.7727161806448217,1.357398485331105,1.5752365754656572,-0.6286136341807911,-0.8492900560149041,-0.4214351286095602,0.006295985601519994,0.7308777976832005,0.7086502558543994,0.7633514392331938,6.128411730233708,0.5933456304743803,0.8272506461730255,0.9825413768868527,0.9102476771249377,0.9847334862341155,1.9764655686732273,2.231921641527562,0.9229204035497537,Stress
104.88023795871514,576.2815533980582,124.51044664225367,,,,,,,171.22809005396695,172.07333995547464,0.2160583588144975,0.2971257522374547,559.0,40.0302,0.07161037567084079,53.5,0.7271613355204218,525.8,593.2,25.24271844660194,48.54368932038835,325.0,1404.0,8.583333333333334,242.1875,,,0.06591189484726348,0.12315371055299844,0.016458175309857857,0.20552378071011976,0.5352002351475939,0.3207020356453478,0.5992187868843272,-2.094322024516285,121.6742255439342,128.04261357489196,0.9502635267029058,48944.39827216265,1.052339663576969,5.396673103573847,538.9772835716707,0.5825242718446602,0.594059405940594,0.8333333333333334,0.17857142857142858,50.2149721800708,49.99798053673593,50.569106213472715,47.524752475247524,0.5409888635646223,0.4590111364353775,89.49392921498438,82.4348827923598,0.43440097929446836,0.5655990207055317,84.39173743047748,96.29613462935288,0.48497853804855223,0.5150214619514475,86.98025268091398,89.63385366462984,0.8675873100193764,2.1289567081628595,1.3278919244080463,1.6091440049498353,-0.6717513222692943,-0.9970501739834665,-0.36789206212441494,0.002018830017722471,0.3499669480267673,0.7149163505021581,0.8314587963574576,6.191165090205997,0.5903518671596188,0.8175902625574851,1.0085513227919354,0.9626959834798203,1.0068366483074433,1.9032864423928084,1.8712918975943245,0.9088447318501461,Stress
104.51399066740002,578.7254901960785,132.06660162436532,,,,,,,184.24166222385722,185.16052655482326,0.22820249645409557,0.318357607095264,559.5,40.0302,0.07154638069705094,54.0,0.7168118222028512,527.2,588.8,22.54901960784314,47.05882352941176,325.0,1404.0,9.272727272727273,242.1875,,,0.06657505664900074,0.14190575411004228,0.022783976166308832,0.23126478692535185,0.4691498034489456,0.287873729217972,0.6136072680872376,-1.9525921451799206,130.92826393498734,134.4487196585441,0.9738156247787442,55301.88730302586,1.0268884320142275,5.449710062809048,552.2553396659313,0.5784313725490197,0.5900000000000001,0.847457627118644,0.17857142857142858,49.91519263387447,49.646395848369494,50.2949353199461,50.0,0.5290213286260471,0.47097867137395266,95.22919720337875,89.85332492456804,0.451616102313217,0.5483838976867831,90.35275094849295,99.56323926962897,0.4892920596673709,0.5107079403326289,92.8230025477532,94.83263840540711,0.47887736595720504,3.425031071642428,1.4989849580606731,1.7476288939383398,-1.1467950297715674,-1.2592670140914084,-0.4274038889934997,0.011713007158739533,1.1520144134137724,0.7233541558583307,0.7806500788177652,6.054586616396458,0.5637942216961921,0.9423345798669504,1.021822293599731,0.9482677448224729,1.0053298605678522,1.904718228290395,1.9776537339151532,0.9158230861529503,Stress
101.67414753999466,595.7272727272727,147.44205490541353,,,,,,,205.8185251772115,206.87598369026313,0.24749925285511198,0.3454911913550018,567.0,41.5128,0.07321481481481482,54.0,0.7163692130164895,534.6,610.4,27.27272727272727,49.494949494949495,325.0,1404.0,9.0,242.1875,,,0.05264565381083679,0.12864039021639337,0.023586663266147365,0.2048727072933775,0.40924668933511876,0.25696762885769975,0.6279039893399782,-2.0507344401575014,146.28341093202263,150.03700574452793,0.9749822065971068,68951.43983578439,1.0256597435662036,5.545513449454183,615.5476673494942,0.6262626262626263,0.6391752577319588,0.8548387096774194,0.30434782608695654,49.71294918137359,49.4885713237477,50.017808210850625,49.48453608247423,0.5185219265578583,0.48147807344214144,105.33681863823656,101.50440547038788,0.47598814715861326,0.524011852841387,103.51337233242161,108.60978243764673,0.4967164091406464,0.5032835908593537,104.42907548296904,105.1171469624482,0.5230153339104906,3.3084767170825797,1.4193037470568919,1.8948726146274386,-1.3623807719261194,-1.7976186162774357,-0.3562574537354145,0.011384686770418184,1.10860157517138,0.6458726882206998,0.6457449416653614,6.061026695771627,0.5674703715875975,0.6016972739435086,0.9520702785110371,0.8623073226888486,1.0344943780516758,1.9428702705829304,2.197819831731195,0.8705215763740901,Stress
103.08290031716251,586.6237623762377,136.3682405463346,,,,,,,188.20823573903454,189.1557788883773,0.23246286511468198,0.3208329559932233,563.0,37.065,0.0658348134991119,49.0,0.7245604317518806,534.0,598.0,24.752475247524753,48.51485148514851,325.0,1404.0,7.769230769230769,242.1875,,,0.060428559995633305,0.11635610748772658,0.01819663142707627,0.19498129891043617,0.5193415395234616,0.3099197735029497,0.5967552177461607,-2.1510998982374123,133.75333395259477,140.11145202980018,0.9546209964632077,58874.62076218461,1.0475361464967958,5.4768982326223785,587.0872421574702,0.6336633663366337,0.6499999999999999,0.8923076923076924,0.30434782608695654,49.71209213051823,49.40229710129335,50.11106478270809,53.0,0.5265213986427772,0.4734786013572226,97.0541346388965,92.03567599885197,0.46102014258180035,0.5389798574181998,95.133523942813,102.86316936649973,0.4922510014301161,0.5077489985698839,96.09862753516,97.59968562625308,0.6642038325701295,2.5229884409668264,1.5029693200051453,1.4477192186171277,-0.3777775571526263,-0.43582879525616225,-0.5218986740053575,0.008259193720943971,0.6452873076579645,0.6557755364538811,0.6692316291633874,6.113463462864134,0.5410681786778854,0.8486290408067355,1.0299652227603275,1.0540429330697594,0.9783706056404629,1.862401598088423,1.9985435223802022,0.7910746316140745,Stress
101.39785707053649,595.5858585858585,144.40136878916306,,,,,,,187.3774701679223,188.34047450351375,0.24245264844270378,0.3146103411736904,566.0,45.9606,0.08120247349823322,60.0,0.7706442437276728,530.0,606.8000000000001,22.22222222222222,45.45454545454545,396.0,1404.0,9.0,171.875,,,0.04297935314986059,0.1088766489899503,0.024844556479906358,0.17670055861971723,0.39475271831545566,0.24323269538925335,0.616164713006183,-2.217539698207056,133.17682669332663,156.01950552259024,0.8535908779306047,65276.58596115136,1.1715214230315358,5.5217275422117975,731.1207725220058,0.5858585858585859,0.6020408163265306,0.864406779661017,0.25,49.76248555655411,49.41703130903276,50.1371955987989,51.02040816326531,0.525641774570007,0.4743582254299931,96.55493602143338,91.72395273403036,0.47146931734912195,0.5285306826508781,107.12864564661074,113.42636106935848,0.4943032233508574,0.5056967766491427,101.97892524482738,103.1475227298046,0.8976381098632513,2.403803702598178,1.630551620535765,1.6821052324217833,-0.5475187443330949,-0.73705074320323,-0.478553318713048,0.005481377094873504,0.5230550383720008,0.6691232281719608,0.6804261609586344,6.182238816983749,0.5122001444362002,0.7376982321718168,1.0135880366329726,0.9817838575638449,1.0928609889819212,1.860398990990852,1.9464796416231627,0.8035583781914678,Stress
101.67957284837517,592.8787878787879,115.97107949893552,,,,,,,153.87057243418732,154.661057169123,0.19560672749628788,0.2595312491862091,567.0,34.099799999999995,0.06014074074074073,51.5,0.7536923900672303,543.6,612.6,19.19191919191919,44.44444444444444,396.0,1246.0,9.0,210.9375,,,0.06438968422273297,0.11841187927925363,0.025575535415991505,0.20837709891797812,0.5437772342999574,0.30900556998385986,0.568257643925944,-2.1335862298146724,109.3618823097672,123.25916793706911,0.8872515054263771,42348.21223790195,1.1270761378076677,5.33380519094251,555.6898677915942,0.6060606060606061,0.6224489795918368,0.9016393442622951,0.2608695652173913,49.65726127849515,49.568095697309694,49.67573462669506,52.04081632653062,0.49384444780613224,0.5061555521938677,76.85335480205075,77.80540092031615,0.5123011980370844,0.4876988019629156,88.22301943565907,86.07857644149287,0.5041715106993165,0.49582848930068335,82.73372741111866,82.04633366142896,0.6937933391952176,2.760335573945692,1.653939524395326,1.476271986870897,-0.3517020503528858,-0.16798716357564913,-0.5643644704656205,0.011100720712232977,0.8011354498403965,0.7036708227336033,0.6867979528812865,6.134209650295229,0.5586704755758025,0.6809786979240889,1.0169960741701183,1.0689200235383354,1.1474790668032242,1.7787262020811023,1.9689451814867176,0.8705215763740901,Stress
102.4824699827514,587.69,115.1494150127467,,,,,,,148.17874136980444,148.9327586692187,0.1959356378579637,0.2521375918763369,563.5,41.5128,0.0736695652173913,57.0,0.7770980772833829,532.6,605.4,17.0,45.0,492.0,1246.0,9.090909090909092,78.125,,,0.06035292234061692,0.09697635749294514,0.02150500444811184,0.17883428428167392,0.6223467647256961,0.33747959784689674,0.5422693857750565,-2.3332880673736223,105.31136359582412,125.22520014925982,0.8409758057507613,41430.182211381485,1.1890948504841632,5.324286953306513,595.6185625933341,0.61,0.6262626262626263,0.8870967741935484,0.21739130434782608,49.869814268356194,49.96465522092922,49.75989508289025,52.52525252525253,0.48454481843939734,0.5154551815606029,73.30649245963616,75.60855150857269,0.5139697741448563,0.4860302258551437,89.77605640987301,87.30183530667313,0.5017802028547117,0.49821979714528813,81.95603132547168,81.66475221641821,0.758844781868057,2.645797430004927,1.4817317693662604,1.516084520347419,-1.18267647524004,-1.0698060697756775,-0.4870161069053973,0.005777110808444539,0.5214633419725662,0.6695691231988792,0.6412271233815855,6.2487584397314535,0.5328601842067053,0.7927509998317277,0.8818768189439687,0.8592973447924303,1.1640092855744633,1.7732624544409532,1.870311084594632,0.9301398665684615,Stress
103.47192966245444,581.3168316831683,100.6626972312057,,,,,,,125.79523043422593,126.42893799932183,0.1731632248454648,0.21639702065738115,564.0,35.5824,0.06308936170212766,46.0,0.8002107622342551,534.0,596.0,15.841584158415841,44.554455445544555,492.0,1246.0,6.3125,78.125,,,0.049031938029909905,0.05201631233944051,0.011853067236649644,0.11290131760600006,0.9426261844542995,0.4342902197210862,0.4607236960773622,-2.9561979107585072,89.39875939753405,111.70585110779638,0.8003050736461786,31373.089369635753,1.249523504135759,5.203527396594616,558.3163460347245,0.6336633663366337,0.6499999999999999,0.8923076923076924,0.21739130434782608,49.91521831284443,50.04448182951094,49.762533273361086,52.0,0.48054591505291827,0.5194540849470819,61.97250123313492,64.43252676288975,0.5193906948096426,0.4806093051903575,80.50502778702644,77.44118847698086,0.5042247036993937,0.49577529630060646,71.83888364973669,71.23443050161129,0.789111127687499,2.380219539895009,1.351895813749291,1.4114943143897296,-1.0487486029846647,-0.9213793523528909,-0.4749609228722374,0.002942308960988955,0.3679537040264761,0.636511180487016,0.7011280688909582,6.185197249971425,0.5547812705232944,0.7852065804150851,0.9178123993146177,0.8921612230379716,1.1068139319518946,1.7722962332985635,1.744525534827884,0.8569975175819141,Stress
105.99375079156478,567.0673076923077,75.6873056808392,,,,,,,92.30547638614833,92.75598810603005,0.13347146741512975,0.1627769316517071,558.5,31.1346,0.0557468218442256,41.75,0.8199654954838312,532.2,584.2,13.461538461538462,41.34615384615385,492.0,1246.0,6.5,78.125,,,0.059667591597801446,0.06822417339648094,0.013587905262599974,0.14147967025688238,0.8745813782315338,0.42173968521034827,0.48221891719571724,-2.6849563283060434,65.58838818543258,85.04605195857549,0.771210264027066,17523.908969251388,1.296663240421946,4.9506010984616236,441.10435727079874,0.6346153846153846,0.6504854368932039,0.9253731343283582,0.18518518518518517,49.447885806625365,49.33153177454258,49.55412010808228,51.45631067961165,0.49750965996688673,0.5024903400331135,46.26278307710438,46.49377989180328,0.49949477809074333,0.5005052219092568,60.10625002615435,60.1670147301172,0.4987544226860691,0.5012455773139308,53.633042008848406,53.76681704435177,1.1828646526822952,1.9638790910888502,1.4567306498277888,1.4588937587314093,-0.08970758497535236,0.40183711282629275,-0.4988985529132442,0.00410048274943447,0.2657601523037912,0.7473184644454807,0.9066288209624181,6.099196208400891,0.6584702983415686,1.0713527121786737,1.0241624491684664,1.0764799177570572,1.0703624194855434,1.7605676055569879,1.5662919602905787,0.9664095747318882,Stress
103.98160092455707,579.6862745098039,104.12482801784444,,,,,,,140.10501718919335,140.80265735003613,0.1796227245606165,0.24169110663810248,561.0,37.065,0.06606951871657754,49.0,0.7431912868419094,530.2,593.6,20.588235294117645,46.07843137254902,327.0,1246.0,8.5,242.1875,,,0.015364378787571657,0.0045397114058901,0.002457748712081117,0.022361838905542872,3.3844395411648787,0.6870802912261057,0.20301154234524216,-5.394891835933906,99.56251382129642,109.21819155404758,0.9115927704408752,34161.79697245797,1.0969810560436635,5.240510817256763,479.2411484405529,0.6568627450980392,0.6732673267326732,0.9117647058823529,0.20833333333333334,49.54128440366973,49.540709179391044,49.58379141980803,49.504950495049506,0.49135289480175004,0.5086471051982501,69.79047212908077,71.00806292245971,0.46360696594193185,0.5363930340580684,74.36523549792402,79.99015636736144,0.4761995886088034,0.5238004113911965,72.11413956590516,75.6325661196119,0.6236732402423769,2.763198244775105,1.2544633809616146,1.5833032123494042,-0.8264998630399152,-0.9956565605018559,-0.38099303696012826,0.004774889693413382,0.6539275020406572,0.6672077456661216,0.7434613480723525,6.211449361494497,0.5949973069754696,0.8086861506909825,0.9132248243658162,0.884677221531977,1.0844668951470884,1.949511933317107,1.916037783332645,0.8504071514277396,Stress
104.37764271461363,577.6078431372549,97.07016517745868,,,,,,,140.8028605695014,141.49571382095985,0.16805548319812588,0.24376895542958013,561.0,31.875899999999998,0.05681978609625668,42.75,0.6894047804486477,534.0,589.8,19.607843137254903,45.09803921568628,327.0,1142.0,7.846153846153846,273.4375,,,0.008640178693267657,0.07911833589434353,0.02523488285252086,0.11299339744013205,0.10920576874627334,0.07646622624871098,0.7002031772366457,-2.5368106245690583,100.05257875163181,94.11474511214888,1.0630914277290695,29582.565153461903,0.940652867586523,5.178005939652839,354.1172194876702,0.7156862745098039,0.7326732673267327,0.9324324324324325,0.30434782608695654,48.656178302196004,48.747917424260564,48.66520354974557,49.504950495049506,0.4807967558443245,0.5192032441556756,69.38058085660569,72.09843965024486,0.4542205565426691,0.545779443457331,63.429467132830524,69.52904390806711,0.4683215043181559,0.5316784956818439,66.47165674464127,70.82539426918117,0.5037532933937316,1.4986903090894104,0.9728823006846059,0.7957877374628468,0.36272486078672284,0.3303798044420072,-0.6181662162941188,0.0022332458651948424,0.20101327738131877,0.7016161524131279,0.7308875085427924,6.093802302670968,0.5746235874483281,0.9078232360137919,0.8970054344880243,0.9041996794973751,1.0560749020207636,1.8838216354588817,2.313838611916957,0.7195752819773181,Stress
105.38316146730664,572.1359223300971,96.01460760428942,,,,,,,139.56058491832533,140.2497550358433,0.1678178276470696,0.24392907257063481,559.0,32.6172,0.05834919499105545,42.5,0.687977967851595,529.4,582.0,17.475728155339805,43.689320388349515,327.0,1142.0,6.866666666666666,273.4375,,,0.023559590228927993,0.10922368546074164,0.021528108917767942,0.15431138460743757,0.21570037789464663,0.1526756453443971,0.7078135274244518,-2.214357339367057,99.17155284559692,93.70617800627853,1.0583245945529034,29194.780267499562,0.9448896918269739,5.172275320873928,354.1680066345443,0.6893203883495146,0.7029702970297029,0.9154929577464789,0.30434782608695654,49.932409597837086,50.13419440461504,49.77294704104497,47.524752475247524,0.48349197400675503,0.5165080259932451,68.95754900195072,71.27311158945963,0.46390715280421857,0.5360928471957812,63.82396180512528,68.61012823222434,0.4742540743429036,0.5257459256570965,66.44035545080462,69.9542926906056,0.5989731674130179,2.956446982303877,1.3424388296491803,1.5581168085766146,-0.539804023138716,-0.4408161029605302,-0.42704825074882197,0.00638913689846447,0.7990607384544746,0.726431094537773,0.718203760397283,6.028496279505379,0.5656732174739444,0.6903998333509778,1.0481651318562704,1.0877160413239826,1.0126807522968733,1.8790875669324705,2.008895068517465,0.7790097701572681,Stress
102.35087895290687,590.16,115.64869478753577,,,,,,,168.78603992252224,169.6450026445933,0.1959615948006232,0.2860004743163248,563.5,30.3933,0.05393664596273292,41.25,0.6851792650661271,537.0,592.8,25.0,47.0,327.0,1142.0,7.142857142857143,273.4375,,,0.012262004278147899,0.10063718503441696,0.03464696449036176,0.14754615380292663,0.12184367313090494,0.08310622786227233,0.6820725748556977,-2.2962334570649032,119.95713176440168,112.35286720746471,1.0676819804063864,42340.901997408604,0.9366084830048129,5.333730215613173,420.9225940656989,0.68,0.6907216494845361,0.9104477611940298,0.2857142857142857,50.02554931016863,50.251325069518046,49.85590062015171,43.29896907216495,0.47848732654844156,0.5215126734515584,82.97768325500144,86.62804607831657,0.5173151660898404,0.4826848339101597,80.8093782556633,78.05774244539313,0.49663164417356137,0.5033683558264387,81.90070675041277,82.45431924107514,0.451005297005218,1.3382682175994378,1.3368478393948764,0.7162162798169727,0.8431372629029488,0.7072624051303649,-0.9637572284957807,0.005803670893290439,0.2843295296746423,0.6605245303847664,0.630233355149376,6.10120956470982,0.5751285818802356,0.8571306998848502,0.9029834973656976,0.8965846813194768,1.0038344032340605,1.932374310615549,2.3160564586809764,0.9301398665684615,Stress
102.61295886484878,589.03,116.2601102370165,,,,,,,168.7944778645787,169.65134496879685,0.19737553305776703,0.28656346512839537,561.0,31.875899999999998,0.05681978609625668,40.5,0.6887672612743306,536.8,597.0,25.0,44.0,327.0,1142.0,5.882352941176471,257.8125,,,0.015491492974787933,0.11187670136479101,0.03465694378537029,0.16202513812494923,0.13846933978036735,0.09561166343732001,0.6904897762130889,-2.1903578947727786,119.96161646485452,113.08801024978379,1.0607810341687736,42619.53869860337,0.9427016205880778,5.336578854689217,426.4330021262094,0.66,0.6701030927835051,0.9076923076923077,0.3,49.46222791293213,49.49924767126988,49.4580058438622,46.391752577319586,0.4777938969023628,0.5222061030976372,82.92168053073223,86.6899530463806,0.5103485276465856,0.48965147235341455,80.78858394782158,79.13344909683256,0.49311166993195676,0.5068883300680432,81.86208034961923,82.99774311734224,0.6076243552328318,2.8647618244318096,1.4688945119395727,1.506430315824053,-0.03591866304445368,0.10728014546174802,-0.48689740851600277,0.008848891481069583,0.8712874412499603,0.5899917098405258,0.5647806178884014,6.073660689688184,0.5739764602579364,0.9316521543341373,0.9204434578016247,0.9294627627660772,0.9731181611311,1.88499095289121,2.3073274466998432,0.9301398665684615,Stress
99.30565526506962,610.2474226804123,141.90012853293413,,,,,,,213.15856285091309,214.2762233434939,0.2325288452832147,0.3492985876362228,571.0,38.547599999999996,0.06750893169877407,57.0,0.6657022201457683,542.2,615.2,29.896907216494846,50.51546391752577,327.0,1203.0,6.928571428571429,265.625,,,0.026200010655950963,0.09584582277668087,0.041990684033378,0.16403651746600983,0.27335579054912534,0.1597205979539275,0.5842956450019806,-2.3450143912781227,151.5161705732277,132.89354642727216,1.140131892380094,63257.605630663835,0.8770915072925815,5.50808285933299,466.23920378141116,0.6701030927835051,0.6808510638297872,0.90625,0.4117647058823529,50.34820990681707,50.47964220461856,50.2833216280518,45.744680851063826,0.5004666532627557,0.49953334673724437,107.18874155334352,107.08874824182044,0.5070121613374783,0.49298783866252194,94.62656593922777,93.30866894649458,0.5033126298073771,0.496687370192623,101.10295074141133,100.43532172638898,0.5554404693048778,3.0256849555051764,1.4283201853115683,1.636969426101567,-0.5193395028056429,-0.6538565422674649,-0.4310406589389403,0.00927873950528801,0.9484178379412116,0.5755773303008191,0.5156176172530714,6.029972506979456,0.5947240157855143,0.7979489697027116,0.8530030926953874,0.7990696351901259,1.0161813372438206,1.941560972220577,2.464062861291562,0.8845244015302336,Stress
99.05788213760512,609.1134020618557,134.64063869926895,,,,,,,191.0970521314584,192.02710768982408,0.22104363201254293,0.31372984321900116,573.0,32.6172,0.05692356020942408,47.0,0.7045668009920305,551.8,611.8,22.68041237113402,47.42268041237113,496.0,1203.0,6.928571428571429,109.375,,,0.04391263288115969,0.10237755594906964,0.044503798446936096,0.1907939872771654,0.42892831806812387,0.23015732051014817,0.5365869093156815,-2.2790877705850834,135.78367001911403,123.17742783509556,1.1023421450307855,52544.65519586981,0.9071593647288815,5.427498656453684,446.96622873529174,0.6494845360824743,0.6595744680851063,0.8870967741935484,0.35294117647058826,46.90860215053763,47.47869076592352,46.39051470238979,45.744680851063826,0.45265559072331757,0.5473444092766827,91.38959401779199,100.49469742492046,0.4789826667417285,0.5210173332582716,85.24934087010027,88.91135253320368,0.46453559330412386,0.5354644066958762,88.37281259958684,94.87995789367199,0.5731062377595186,2.981614510566521,1.4887287751775835,1.5110213784054118,-0.3008029496785696,-0.19773428070991472,-0.4925233113976252,0.00873396159617877,0.8859533903348304,0.5312231226311952,0.48510639743149203,5.902503146395946,0.4940202692718484,1.0591796438952747,0.9003645582229535,0.8424143865334935,0.9524938437161881,1.8966859510829557,2.253763838862324,0.7484437243717361,Stress
99.49282359080455,607.0412371134021,121.53308170392788,,,,,,,179.10006514050556,180.03837675691025,0.20020564382387113,0.2950377242774492,575.0,29.651999999999997,0.05156869565217391,48.0,0.6785764237918289,555.2,611.8,20.618556701030926,41.23711340206185,498.0,1203.0,6.466666666666667,93.75,,,0.0489889055182499,0.12366989013137412,0.06223640235376713,0.23489519800339115,0.39612637697186553,0.2085564368052456,0.5264896480752609,-2.090139439630166,127.30635707862973,116.39512917854951,1.0937429940332164,46551.61690096519,0.9142915707395429,5.374904880112057,425.67634193235216,0.5876288659793815,0.6,0.8421052631578947,0.3333333333333333,50.52574818010245,50.543001961909084,50.541576685488465,48.421052631578945,0.5131890357007393,0.48681096429926063,91.19966528101088,88.82490167680872,0.500079759520961,0.49992024047903927,82.31034938794228,82.29722036694857,0.5072202308998134,0.4927797691001865,86.86878773107621,85.62329016693072,0.4581923947678042,2.2511631987385017,1.310202467338092,1.081631189487706,0.18759178008977884,0.21120724625776688,-0.6015347434510621,0.01088592584723542,0.6353897802167553,0.5198841881553333,0.46684739306429773,5.987705852648425,0.5094144067639522,0.7343303681939659,0.8195975854067072,0.7221197425266764,0.8849881129873697,1.882455939399989,2.0847721960924344,0.816484062950985,Stress
99.69089943550921,605.4489795918367,121.57218571348554,,,,,,,178.04473548816753,178.96909469422394,0.2007967472262376,0.2940705847884926,573.5,34.8411,0.06075170008718395,51.25,0.6828181994831573,550.4,611.6,20.408163265306122,35.714285714285715,498.0,1203.0,6.533333333333333,93.75,,,0.04712557006293753,0.11560215786951752,0.05182988715422388,0.21455761508667892,0.40765303114954915,0.21964063146348506,0.5387930781334213,-2.1576006562267525,126.55026048110311,117.35470105243559,1.0783569754445441,46656.63440403687,0.9273367008988446,5.375883517534129,435.3092852357432,0.5612244897959183,0.5729166666666667,0.8181818181818182,0.23809523809523808,49.704304772383445,49.39296396917696,49.98787636105453,53.125,0.5127963802317675,0.4872036197682326,90.62267238390181,88.3323211419995,0.4765865199718351,0.5234134800281649,81.01610664433153,84.9029818280891,0.49605473078059,0.5039452692194102,85.95370348567215,86.63462149058586,0.40900255592707885,2.930800000272927,1.4394702152007348,1.4217949857913657,-0.06644399847416693,-0.16583062677591437,-0.5060308548545527,0.014976044799335245,1.0672610033390615,0.460417396120842,0.42199441005937505,6.0355783389910895,0.443434971309024,0.762789491388529,0.7461792376608809,0.6617711149863176,0.9137075374821783,1.914474981382806,2.1426105544633245,1.1474496668363117,Stress
101.34506778825569,594.62,104.98732775863472,,,,,,,150.41286614857887,151.17820790801534,0.17656205266999886,0.25295628493588995,572.0,34.8411,0.06091101398601398,51.75,0.6979943301853414,548.8,611.2,13.0,31.0,498.0,1203.0,7.6923076923076925,93.75,,,0.028950667293995584,0.05887907312277177,0.03451783498653889,0.12234757540330625,0.4916970624457533,0.23662640799020884,0.4812442987013264,-2.8322695464861707,106.8991359793874,104.08074700210496,1.0270788696128923,34953.80573944867,0.9736350630764136,5.250464578216897,405.3466586897388,0.57,0.5729166666666667,0.8,0.23809523809523808,50.180780209324446,49.8991981953813,50.433293438747604,54.166666666666664,0.5299152282435009,0.4700847717564992,77.81758497031532,73.29302386270317,0.45150608495131883,0.5484939150486813,69.9362279033495,77.08259157012651,0.4917579354273863,0.5082420645726137,73.98193192922676,75.21167884745597,0.6387858182273707,1.8916756450197507,1.470136233444175,0.9347319054129377,0.6722983990712148,0.9583220659200408,-0.7830317816063266,0.012334155534591378,0.5583935511447833,0.5348489980884921,0.47436093461469137,6.053660689688185,0.44626932556213705,0.7111419976106674,0.8384974941640161,0.7808651343583597,0.9733840345397999,1.8220897116435877,1.8491768615779625,0.9301398665684615,Stress
100.32070353663957,601.3061224489796,125.61456414371615,,,,,,,167.2371918877959,168.10547654881583,0.208902852397573,0.2781232148554846,570.0,43.7367,0.07673105263157895,63.5,0.7511162004441839,538.8,618.2,16.3265306122449,35.714285714285715,486.0,1279.0,8.166666666666666,85.9375,,,0.019454944014206055,0.051754409090844146,0.00924206081594703,0.08045141392099722,0.37590891976096047,0.24182227590568744,0.643300180425252,-2.961245650642882,118.8685224222638,132.66954116172204,0.8959744744829182,49543.64602809711,1.1161032244552689,5.4019580740932645,592.291610710396,0.5612244897959183,0.5638297872340425,0.7924528301886793,0.23809523809523808,50.30967127203431,49.56721189409057,51.13975871686569,54.25531914893617,0.5951020357009764,0.4048979642990235,91.6988390511752,75.63815312613954,0.32958402856484464,0.6704159714351553,76.16480001142853,108.62840508486237,0.4478190846786093,0.5521809153213908,84.29043197218246,93.59823876445081,0.40760793895747627,2.802286226052782,1.4113119293993752,1.2329644229230754,-0.16067289890763092,-0.013768803756687986,-0.5636435724581621,0.012851991969794885,0.8896546001811495,0.45821248360081057,0.4143698864511241,6.122213287926528,0.4290402063754296,0.6521853165212296,0.7031377875069017,0.6513395277429238,0.9603588011705808,1.9378397572092603,1.8391111976743597,1.0799526276106464,Stress
100.2116393761842,601.8979591836735,128.42266635179917,,,,,,,165.28123486330244,166.1378274391042,0.21336285393951646,0.2746000918286312,570.5,38.547599999999996,0.06756809815950919,58.25,0.7769948382707357,541.8,614.6,13.26530612244898,31.63265306122449,486.0,1278.0,8.166666666666666,85.9375,,,0.007842386358719138,0.09372267808778408,0.0029303119895196413,0.10449537643602284,0.08367650731633675,0.07505007997670239,0.896907416235451,-2.367415090336982,117.47718439379105,139.6207865072894,0.8414018237009268,51529.20972191352,1.18849278885738,5.419023591913571,663.753191754037,0.5306122448979592,0.5319148936170213,0.78,0.18181818181818182,50.654081801622766,50.03506656413095,51.33520857564602,53.191489361702125,0.5893797160955305,0.4106202839044695,90.18958619670751,75.27989439418735,0.3504414659477255,0.6495585340522746,82.65284828741908,112.52764413641196,0.44948401540446226,0.5505159845955377,86.5033374742167,95.73278747349565,0.526321475866715,2.610238621697004,1.4685958558931484,1.3267622812336164,-0.11435167085563869,-0.11249997771709652,-0.5543373979223866,0.012384845108690389,0.7928204808172382,0.4367951688657148,0.39007610714451046,6.0532858644350656,0.3947744467874657,0.6145663898767181,0.7077802504970193,0.6970370551121986,0.9214132392384601,1.8291351525410953,1.8795169965359368,0.9449585491593154,Stress
100.69280993393654,598.8979591836735,122.39605224041972,,,,,,,157.3447852434232,158.16186071189475,0.20436879165067015,0.26272386277270277,570.5,45.9606,0.08056196319018405,64.5,0.7778843896927669,536.4,620.0,18.367346938775512,34.69387755102041,437.0,1278.0,8.909090909090908,101.5625,,,0.019458241951965913,0.10423704064211448,0.007357443621354063,0.13105272621543446,0.1866730082905316,0.14847643779633377,0.7953824666780429,-2.261087736417794,111.83732423446297,133.22280682597506,0.8394758142316631,46807.47563655318,1.1912195480167085,5.37728532988271,634.790446931021,0.5816326530612245,0.5851063829787234,0.8181818181818182,0.2727272727272727,49.7617534942821,49.247866127286635,50.524895344872,52.12765957446809,0.566453574608177,0.43354642539182314,84.17241110759907,73.63858109034963,0.360057648259502,0.6399423517404981,79.94008389183853,106.57344531334662,0.4453805303807572,0.5546194696192428,82.08353002978383,91.59841666469154,0.5637442241116012,2.7605347628562233,1.450332517430393,1.4463055589911211,-0.29755142118342803,-0.24751899847263337,-0.5014587602711822,0.009403914696020069,0.7958119309429865,0.5201666627423513,0.4317278476552315,6.129916221622074,0.46230715132817385,0.5386526400803395,0.751167258987292,0.7841736043717481,0.9670383656679914,1.8322718985277957,1.936563919467519,0.7424674314823193,Stress
