PPG_Rate_Mean,HRV_MeanNN,HRV_SDNN,HRV_SDANN1,HRV_SDNNI1,HRV_SDANN2,HRV_SDNNI2,HRV_SDANN5,HRV_SDNNI5,HRV_RMSSD,HRV_SDSD,HRV_CVNN,HRV_CVSD,HRV_MedianNN,HRV_MadNN,HRV_MCVNN,HRV_IQRNN,HRV_SDRMSSD,HRV_Prc20NN,HRV_Prc80NN,HRV_pNN50,HRV_pNN20,HRV_MinNN,HRV_MaxNN,HRV_HTI,HRV_TINN,HRV_ULF,HRV_VLF,HRV_LF,HRV_HF,HRV_VHF,HRV_TP,HRV_LFHF,HRV_LFn,HRV_HFn,HRV_LnHF,HRV_SD1,HRV_SD2,HRV_SD1SD2,HRV_S,HRV_CSI,HRV_CVI,HRV_CSI_Modified,HRV_PIP,HRV_IALS,HRV_PSS,HRV_PAS,HRV_GI,HRV_SI,HRV_AI,HRV_PI,HRV_C1d,HRV_C1a,HRV_SD1d,HRV_SD1a,HRV_C2d,HRV_C2a,HRV_SD2d,HRV_SD2a,HRV_Cd,HRV_Ca,HRV_SDNNd,HRV_SDNNa,HRV_DFA_alpha1,HRV_MFDFA_alpha1_Width,HRV_MFDFA_alpha1_Peak,HRV_MFDFA_alpha1_Mean,HRV_MFDFA_alpha1_Max,HRV_MFDFA_alpha1_Delta,HRV_MFDFA_alpha1_Asymmetry,HRV_MFDFA_alpha1_Fluctuation,HRV_MFDFA_alpha1_Increment,HRV_ApEn,HRV_SampEn,HRV_ShanEn,HRV_FuzzyEn,HRV_MSEn,HRV_CMSEn,HRV_RCMSEn,HRV_CD,HRV_HFD,HRV_KFD,HRV_LZC,Labels
87.41129810912564,687.2906976744187,58.4982385414185,,,,,,,81.03405239193474,81.5129915235286,0.08511425913279291,0.11790360711432464,692.5,51.891,0.07493285198555956,76.0,0.7218969903970986,632.0,729.0,39.53488372093023,81.3953488372093,552.0,806.0,8.6,148.4375,,,0.023404850534816904,0.038322058937280974,0.021307860646124433,0.08303477011822231,0.6107409461772912,0.28186807167038347,0.4615182155947349,-3.2617295972268283,57.63838906108864,57.89658388687805,0.9955404134673319,10483.701487842027,1.004479563533876,4.7274847563427365,232.6237412511748,0.7209302325581395,0.7380952380952381,0.967741935483871,0.3157894736842105,50.45283018867923,50.53731226795013,50.3712484623743,50.0,0.4875571974759655,0.5124428025240346,40.24715310842909,41.26150633171194,0.5418280817216689,0.45817191827833126,42.61708045160399,39.18926995431046,0.5148132633837995,0.48518673661620043,41.44905837019594,40.23873000178885,0.583686659162429,1.4195260560079648,0.8440769011669301,1.0555682211669954,-0.49898483503998037,-0.9851234349027225,-0.3510127242082278,0.0004711172058302967,0.12609624223935453,0.5796916393577414,1.9021075263969203,5.920337138372714,1.3518494588702537,1.3765380676344892,1.0358822439210744,1.473048902920094,1.7192261563406523,1.9935275560632633,3.275984947892575,0.9714121140828752,Relax
86.03724768851556,698.6666666666666,53.87006530293956,,,,,,,78.78757470382524,79.23748975418651,0.07710410110153564,0.11276847524402468,695.0,48.925799999999995,0.0703968345323741,67.25,0.6837380831361483,662.0,742.2,33.33333333333333,78.57142857142857,576.0,817.0,8.4,125.0,,,0.06092187623338766,0.03817296134742754,0.021245131038128397,0.12033996861894361,1.5959431514603506,0.5062480648162434,0.317209334400794,-3.2656278321212993,56.02936632938486,50.34159101648569,1.1129836224492102,8861.19962682573,0.8984858176074679,4.654462630499331,180.9248222564316,0.6904761904761905,0.7073170731707318,0.9827586206896551,0.18181818181818182,51.81241040344051,51.80148621257202,51.824148843195914,47.5609756097561,0.47751935577160104,0.522480644228399,38.732037536222094,40.51445089973844,0.5546003118272677,0.44539968817273234,37.490133918290205,33.59710768592708,0.5119360170345624,0.4880639829654377,38.11614403975467,37.21684011685502,0.6611989524786449,1.000492545778922,0.9324736855545159,0.9667622516257035,0.521447949321109,-0.08510738180819755,-0.46572831430293915,0.000789217168246335,0.09340256425722228,0.5640550410049263,1.7197859696029656,5.859521142991098,1.3706163588893807,1.2278469321195966,1.0094867037873572,1.262930971049335,1.6831665077698,1.9373484390701232,3.786260395292502,1.2175842710054783,Relax
86.82036882754508,692.7882352941176,60.52785547593278,,,,,,,90.46644997693107,91.00847227178265,0.08736848057218549,0.13058312102907504,689.0,63.751799999999996,0.09252801161103047,84.0,0.6690641170441348,641.8,748.4,45.88235294117647,77.64705882352942,515.0,817.0,9.444444444444445,187.5,,,0.05125636961112061,0.048398708682919456,0.02312142985366353,0.12277650814770359,1.0590441564654731,0.4174770107442521,0.3942017036735924,-3.0282821457204414,64.35270788880538,56.96044653862466,1.1297788518067193,11515.693154436149,0.8851289775878,4.768260194171431,201.66936723070955,0.6941176470588235,0.7108433734939759,0.9830508474576272,0.17391304347826086,50.348580173439885,50.39477414231055,50.30076299123068,48.19277108433735,0.4709391377963578,0.529060862203642,44.162692099712125,46.8086337417691,0.5307153387366821,0.46928466126331786,41.49580605531989,39.02038633456613,0.4971977999794868,0.5028022000205129,42.85000171338794,43.090826996414684,0.6755870318290141,1.4053906371629807,0.9602007257694714,1.1701039512894598,-0.144279927607867,-0.6621425357169111,-0.3506442123851674,0.0011097805581366611,0.15795143559982147,0.5855854116457371,1.6094379124341003,6.006277259590755,1.3578060464634782,1.0269839823797504,1.0367562050127535,1.2582008002515703,1.6554878799708865,1.950581515080812,4.897952673190524,1.1310689887301828,Relax
88.64664017251727,678.183908045977,67.99017178216415,,,,,,,91.59091302545909,92.11026892581991,0.1002532955670703,0.13505320892876413,679.0,74.13,0.10917525773195876,99.5,0.7423244242937643,620.8,740.0,47.12643678160919,78.16091954022988,515.0,817.0,12.428571428571429,156.25,,,0.03359154927770037,0.03560019940785492,0.0460789123493779,0.11527066103493319,0.943577559576496,0.2914145627005672,0.3088400733389232,-3.3354040397956,65.1317957743638,70.33563321382415,0.9260142092751137,14391.906431389489,1.0798970361187035,4.86508843675403,303.8209673645637,0.6666666666666666,0.686046511627907,0.9830508474576272,0.15384615384615385,48.724279835390945,48.84769639325623,48.60711122894877,48.837209302325576,0.43598888342146663,0.5640111165785335,43.0144982398206,48.923890471052374,0.5526199582733134,0.44738004172668633,52.2863931989295,47.045025091252114,0.49876685181070773,0.5012331481892923,47.87543196973052,47.99365293796707,0.5871585074288912,1.6814621951955546,0.9539819536482961,1.1325980048691808,-0.1028942110097919,-0.4083159767380655,-0.39377337668890516,0.0018695587867825416,0.2383133864653855,0.5077349372858975,1.7147984280919268,6.1584045590422525,1.3204668244300433,1.2079489539299726,0.8355764659584909,1.2937218318955686,1.8374448706821085,1.9326118140301571,3.312942894320722,1.184909148661835,Relax
90.65914239045317,663.370786516854,69.58797277587686,,,,,,,97.99286847892184,98.55438311692154,0.10490056871702304,0.14771960187371347,665.0,83.0256,0.12485052631578947,104.0,0.7101330316791896,604.2,731.0,55.0561797752809,79.7752808988764,515.0,817.0,12.714285714285714,156.25,,,0.030286422165439086,0.03634184209319195,0.05279266180485222,0.11942092606348326,0.8333760872048022,0.253610679164714,0.30431720211140306,-3.314785526787221,69.6884726176322,69.61811743604967,1.0010105872461599,15241.6889365226,0.9989904330093651,4.890003203945104,278.1913331309444,0.6853932584269663,0.7045454545454545,0.9838709677419355,0.21739130434782608,49.935111751982696,49.98810238844186,49.88323784777783,45.45454545454545,0.4591144209251992,0.5408855790748012,47.21952888420189,51.25236187436779,0.5796657730518,0.4203342269481999,53.004300088494595,45.13564497676326,0.5193291811105065,0.4806708188894935,50.195317191532745,48.29094659027489,0.5649268164296064,1.6496926824709173,0.8415222586203752,1.1536203833859409,-0.5419809025596791,-0.9441700697023789,-0.3108143849567766,0.0014470640567480354,0.20575575265622634,0.4584817427070349,1.6817585740137264,6.130172897234223,1.5388975439563988,1.056082756847853,1.2793863515057295,1.5179969759653626,1.8307231203995886,1.9821545634407416,4.440573795096387,1.0186546970059502,Relax
90.69384913049804,662.9213483146067,73.94257979846455,,,,,,,103.44970231513916,104.02647159285235,0.1115405017298872,0.15605124586520994,662.0,83.0256,0.12541631419939578,106.0,0.7147684154103511,598.0,731.8,57.30337078651685,80.89887640449437,515.0,857.0,14.833333333333334,101.5625,,,0.023493547822530887,0.03459817001282315,0.050449578847613655,0.10854129668296769,0.6790401866290457,0.21644801140668055,0.3187558198597815,-3.3639544881199726,73.55782348621565,72.10116216959956,1.0202030213214826,16661.765123311743,0.9801970579391999,4.928691117999389,282.6933881305545,0.6966292134831461,0.7159090909090909,0.9841269841269841,0.16666666666666666,51.08873162765377,50.99592138019625,51.20236903298557,44.31818181818182,0.46082555889917,0.53917444110083,49.94180521412875,54.020749525625284,0.6397357394954964,0.3602642605045037,57.66902007522567,43.27657229691505,0.5484778256900436,0.4515221743099563,53.94395139625368,48.944371939378584,0.5839853597876187,2.1340785501771107,0.9151207853959571,1.4330983154609371,-1.3784726790235915,-1.8473812822870146,-0.25728281884376175,0.00242631917755311,0.3468553719059509,0.5369143127593743,1.774952350911674,6.211578655636879,1.5486378459307308,1.0371502509964263,1.1256997840816498,1.7786470746284273,1.7548055598989858,1.987316142284945,5.746363387704841,1.0914157467920895,Relax
90.9770305477962,662.0112359550562,78.45851457096501,,,,,,,117.11518223138668,117.78067868134148,0.11851538208075299,0.17690814879060088,655.0,74.13,0.11317557251908396,107.0,0.6699260768424801,597.0,731.0,60.67415730337079,83.14606741573034,510.0,912.0,14.833333333333334,101.5625,,,0.020062753473339624,0.04079679686319897,0.03690486928205179,0.09776441961859038,0.4917727619796879,0.2052152874390367,0.4172969780044729,-3.199151708908883,83.28351658833039,73.83244775987895,1.128006982230748,19317.734555741994,0.8865193352104958,4.992926304110177,261.81557002020617,0.6966292134831461,0.7159090909090909,0.9841269841269841,0.20833333333333334,50.61577856358981,50.7637812213558,50.45677972071786,43.18181818181818,0.42831222737271174,0.5716877726272884,54.50798739318094,62.97372194155602,0.6522811598022031,0.34771884019779703,59.62998281040442,43.537288526573725,0.5268674606833512,0.4731325393166487,57.12641919298066,54.13494780369952,0.44339383321697984,2.3017736776297335,0.701709891247392,1.2260941113553945,-1.5492428703227041,-1.5351136951416628,-0.27218254548466697,0.002511451865116399,0.3565479065382949,0.6134117269610488,2.583997552432231,6.22006053768366,1.5822265983253583,1.2618793045411232,1.2682709860573238,1.8055493673542335,1.8058710488005152,2.0274488617459134,4.018072438238218,1.0914157467920895,Relax
90.96979617593884,662.1685393258427,79.26053643107763,,,,,,,114.11816045421756,114.77082703249135,0.11969843283671132,0.17234005193058832,661.0,87.4734,0.13233494704992435,119.0,0.6945479677870879,593.0,733.4,61.79775280898876,85.39325842696628,510.0,911.0,14.833333333333334,187.5,,,0.01875643331185456,0.05251103372507013,0.035847908403472864,0.10711537544039755,0.3571903270854817,0.1751049579459416,0.4902287230864346,-2.946731965274567,81.15523007706295,76.34697612086819,1.06297897049102,19465.17114834307,0.9407523834061099,4.996228336585415,287.2943990062244,0.6629213483146067,0.6818181818181819,0.95,0.16,49.696739954510996,49.90954589860126,49.472279079206025,42.04545454545455,0.41274585085775123,0.5872541491422488,52.139016211415544,62.191999707246964,0.6889037222730097,0.31109627772699017,63.36816137544392,42.58329351630889,0.5424004707412333,0.45759952925876696,58.02586012976695,53.297193707935136,0.5040302935861526,1.9308949650444402,0.782472939587938,1.0737899621155322,-0.9875945465069442,-0.9409143227523535,-0.3491284985452901,0.000928317121652969,0.2175875818479511,0.5261105461428284,2.2407096892759584,6.18910674552452,1.5760322782073855,1.434735655466812,1.1600848426340538,1.4706812145786952,1.857977510076007,2.00225912942874,3.869981849969194,1.1641767965782288,Relax
89.68199456165375,670.9431818181819,79.9464415480542,,,,,,,109.04575650383765,109.67466409034796,0.11915530810136288,0.16252606697386163,676.0,94.8864,0.14036449704142012,126.5,0.7331458289735524,597.4,741.2,57.95454545454546,84.0909090909091,510.0,911.0,17.6,101.5625,,,0.0446273021364001,0.0654760889884284,0.03904027529566348,0.14914366642049198,0.6815816708949597,0.29922358225108253,0.43901354016486843,-2.7260702566010013,77.55169870264177,81.32864544489286,0.9535594534792752,19814.573411629997,1.0487023083367022,5.00395483679756,341.1581528478254,0.6704545454545454,0.6896551724137931,0.95,0.2727272727272727,50.497749897722635,50.74554624487866,50.25195363370284,45.97701149425287,0.42859214221156766,0.5714078577884322,50.77223421755104,58.62424690843709,0.6046386174706688,0.3953613825293312,63.239944455811255,51.1376377546617,0.5207954407182831,0.4792045592817171,57.34592549700437,55.00845535328363,0.6334768586715528,1.668636696633289,0.8508770903889544,0.9533046633235678,-0.6077316981805598,-0.2146780461207678,-0.438616013215294,0.0002335539787454348,0.12706544185874685,0.47073214161573906,2.538973871058276,6.209431618637296,1.5165062483252643,1.0174398522972086,1.0286778725751264,1.5004329114518533,1.9601323128996488,1.9751131676259148,2.9450518703693485,1.1744421124795086,Relax
87.63605357879779,687.2325581395348,78.45878264767688,,,,,,,107.84062314360021,108.46492159074414,0.11416627707522947,0.15692013113514972,688.0,83.0256,0.12067674418604651,110.5,0.7275438546307492,617.0,752.0,59.30232558139535,81.3953488372093,510.0,911.0,14.333333333333334,203.125,,,0.04065895873235268,0.05621764979631709,0.03633324893285887,0.13320985746152864,0.7232418800797381,0.30522484977581404,0.4220231960878188,-2.8785245180716608,76.69628157768234,80.1562741855965,0.9568344132375367,19313.53200763225,1.0451129120830933,4.99283181363013,335.08942854335857,0.627906976744186,0.6470588235294118,0.9454545454545454,0.20833333333333334,51.104502973661866,51.29283184525758,50.90570168552625,45.88235294117647,0.4243320290212805,0.5756679709787196,49.96778724243012,58.200034773349124,0.6083412636087085,0.3916587363912918,62.51887578532739,50.163915934218394,0.5203804110089569,0.4796195889910431,56.59235633619596,54.33075790689091,0.6769942215274659,1.9248440466370562,0.9146535731443926,1.1309862886093414,-1.1725742945476743,-0.8018942898029251,-0.3876102633650195,0.000299796922757583,0.16907012792355003,0.4227595205385444,2.833213344056216,6.193706615167214,1.5487136342904575,1.0426293752490012,1.1715049649060365,1.8520218339267398,2.089963655259283,1.9579448352201236,3.33347103987851,1.1208601316340867,Relax
86.98507593057403,692.2705882352941,77.21373986959742,,,,,,,105.27079593216001,105.89839345375928,0.11153693538595552,0.15206596628713018,690.0,74.13,0.10743478260869564,99.0,0.7334773066535615,631.0,754.2,52.94117647058824,80.0,459.0,911.0,14.166666666666666,171.875,,,0.05781200922281829,0.05719619574478993,0.048799406845113455,0.1638076118127217,1.010766685965901,0.3529262687066931,0.3491668983623381,-2.861267890766355,74.88147212791428,80.03570049305281,0.935600883938213,18828.165055006142,1.0688318247314097,4.981778106807112,342.1788152065849,0.5882352941176471,0.6071428571428572,0.9215686274509803,0.16666666666666666,49.362812835866734,49.6308875929194,49.11734372790274,44.047619047619044,0.3688422712628762,0.6311577287371238,45.479308150845014,59.49253268926388,0.6628636315320815,0.3371363684679186,65.16221616855371,46.471485207773725,0.5256180322380115,0.47438196776198827,56.18933121988925,53.380522586424085,0.7405042444695936,2.047937036672331,1.066315180016016,1.1106617840404778,-0.8742922557164636,-0.20069315107627794,-0.47834571901852996,0.00027123357515516667,0.19574805549700425,0.43964856768420857,2.0794415416798357,6.244685053784758,1.4663420621793226,1.2173549453824615,1.1443703995928276,1.7856798587997775,2.087237273452313,1.9258131459115875,3.759101367338668,1.2064735879788615,Relax
87.67414622948753,686.0116279069767,80.4863882077616,,,,,,,110.40332475812066,111.04435482948153,0.11732510781679574,0.1609350632947163,683.5,74.87129999999999,0.10954103877103144,99.5,0.7290214165569454,630.0,752.0,52.32558139534884,80.23255813953489,432.0,911.0,14.333333333333334,250.0,,,0.04956086135648148,0.03197622838982498,0.022096370166412305,0.10363345991271877,1.549928301495746,0.4782322369456947,0.30855119974529177,-3.4427625150596874,78.52021631241152,82.30808932679369,0.9539793348944974,20303.638871176972,1.0482407358547154,5.014543990241879,345.1147684908555,0.5813953488372093,0.6,0.9215686274509803,0.17391304347826086,48.89086069210294,49.18251090473513,48.62410582540924,45.88235294117647,0.3652215710347703,0.6347784289652296,47.458628599775494,62.56739223771893,0.6500175427914899,0.34998245720850985,66.35979856344838,48.692901980124425,0.5143052791844835,0.48569472081551646,57.688578999455665,56.061026010387,0.7166465795136198,2.03118027495852,1.0580117039054677,1.1222547250485682,-0.6902910579591062,-0.15720934153829114,-0.4683715808315379,0.00047770541168294477,0.21407266082964124,0.5918211203049961,2.268683541318364,6.199406905814573,1.4479774809467627,1.426032801823424,1.2330970427069066,1.4862240341167723,1.9285634491354755,1.9236945770079568,3.4255913372822793,1.1208601316340867,Relax
88.01587844887085,683.8139534883721,77.05361183700101,,,,,,,103.00205594749924,103.61198085661142,0.11268212858764261,0.1506287717909967,678.5,71.9061,0.10597803979366248,99.5,0.7480783866709971,630.0,754.0,51.162790697674424,79.06976744186046,433.0,860.0,14.333333333333334,234.375,,,0.050100808284374014,0.036079632992599364,0.03947843778859602,0.1256588790655694,1.388617458904049,0.39870487988541714,0.28712362596974017,-3.322026755884922,73.26473427588067,81.45942262877882,0.8994015905287911,18749.348393528016,1.111850379775361,4.979956289011526,362.28275994435745,0.5697674418604651,0.5882352941176471,0.88,0.17391304347826086,49.652187355078055,49.92556492261952,49.39923133236423,44.70588235294118,0.3849164061694322,0.615083593830568,45.45523700772631,57.46028649258132,0.626894046934347,0.3731059530656531,64.49683456042152,49.75736997369958,0.5186837099880416,0.4813162900119583,55.79435562735246,53.74700173269735,0.7068235938600143,2.751997745245736,1.1243800572601095,1.418027040854864,-1.4623849011144028,-0.6779987272158075,-0.39329679353769464,0.0018757038938448615,0.4375698567030766,0.4156502244302951,2.512305623976115,6.161673039560662,1.4455312043413926,1.468295315321202,1.2275502241936214,1.3641861507856388,2.0611982285279824,1.9160646060377213,3.4388721657927332,1.1955841404096927,Relax
89.25874123875033,674.1477272727273,84.00650491681318,,,,,,,105.75367171148135,106.36624904598892,0.12461141900850502,0.15687017464155684,669.0,86.73209999999999,0.12964439461883406,116.75,0.7943601726283406,608.2,743.0,51.13636363636363,78.4090909090909,433.0,860.0,14.666666666666666,218.75,,,0.02971846794725206,0.03914867073469899,0.050008024790553385,0.11887516347250443,0.7591181868893296,0.24999728352950595,0.32932590451287996,-3.2403888102584255,75.2122959897959,90.56283733416501,0.8304984495160237,21398.766494233434,1.2040961672869517,5.037358849657358,436.185461330799,0.6022727272727273,0.6206896551724138,0.9074074074074074,0.21739130434782608,49.79532163742689,50.051689374979865,49.54203477388809,44.827586206896555,0.4033077285163116,0.5966922714836885,47.76492826429266,58.09865306848423,0.5862525159290581,0.4137474840709419,69.34136399086715,58.2529204924569,0.5115761190585236,0.48842388094147615,59.538698055159685,58.17583791520582,0.6703332438195012,2.651804279871004,1.0231670633019845,1.4632295648771891,-1.8071771374424035,-1.3337030884180847,-0.3340516662879014,0.0019287577723436982,0.4103211234794926,0.47767923752329233,2.197224577336219,6.223580624294529,1.36549972081084,1.398052674749774,1.454277789990801,1.9326359396267812,1.939465369322486,1.8984190927552147,2.7975387073829237,1.1010394804495394,Relax
90.96049702788855,662.1685393258427,80.93982556575541,,,,,,,108.58961527445682,109.17512510404467,0.12223447771795481,0.16399090084378287,655.0,71.1648,0.10864854961832061,102.0,0.745373536513437,603.8,733.4,50.56179775280899,83.14606741573034,433.0,873.0,12.714285714285714,242.1875,,,0.04378695960917543,0.05302316550938135,0.059022415703092315,0.1558325408216491,0.8258081008277078,0.28098726606331703,0.3402573379719615,-2.9370263758412083,77.19847129795966,82.22363545717978,0.9388841890621935,19941.38177093862,1.0650940889726264,5.00672535795461,350.3036323971289,0.6292134831460674,0.6477272727272728,0.8947368421052632,0.21739130434782608,51.7454954954955,51.719828992699334,51.79956440217178,42.04545454545455,0.45343317239584835,0.5465668276041517,52.000994685446756,57.09218196372696,0.6493564684021738,0.3506435315978262,66.2579905152204,48.68885828072122,0.5575315418083869,0.4424684581916129,59.557639121236576,53.05714919810273,0.6465317048783833,2.6019796679327873,0.9674385562567505,1.3098685561342571,-1.800242195265465,-1.0517495690346483,-0.3683963583199097,0.0010511866763359943,0.3409078690679487,0.5512697387234966,1.7917594692280552,6.2285424197304415,1.4490318066033085,0.9075618110084028,1.2770769540183686,1.3088366887172782,1.802788806649936,1.9113787670985611,3.989243760925172,1.0914157467920895,Relax
90.68839904184343,663.7977528089888,81.37918817252984,,,,,,,115.16248402701605,115.82244579460088,0.12259635985231652,0.1734903192119643,665.0,85.9908,0.12930947368421053,116.0,0.7066466901967748,600.0,736.2,56.17977528089888,84.26966292134831,433.0,898.0,11.125,242.1875,,,0.03548890734725517,0.06582926517199732,0.07008485158141971,0.1714030241006722,0.5391053242737938,0.20704948196486336,0.38406128198375905,-2.7206907800741877,81.89883683497361,81.76550075291614,1.0016307132082563,21037.673335180243,0.998371941687937,5.029967817232168,326.52952699910145,0.6404494382022472,0.6590909090909092,0.9137931034482759,0.22727272727272727,49.993475140284474,50.17546607837122,49.816773275660395,42.04545454545455,0.43105893199416334,0.5689410680058368,53.7707457959091,61.77480422293226,0.6560663485102943,0.34393365148970556,66.2283571122143,47.95207844913652,0.5433793280076579,0.45662067199234224,60.32200423241615,55.29705355791461,0.5118550643291856,2.721902791121467,0.9042362983411179,1.4669026673456225,-1.7487289467618758,-1.7123646501110312,-0.2932819750801325,0.0036329608449774766,0.5317352520677748,0.5300712964242584,1.8718021769015916,6.189106745524522,1.5245043933425981,1.5417524263263456,1.2666262653327587,1.7015670601741966,1.8643809196099055,1.937895809323619,4.328287080653759,1.236937846364368,Relax
90.98790812735565,662.0224719101124,82.54805453465629,,,,,,,113.56961221287065,114.16003668520155,0.12469071374040071,0.17154948212738438,665.0,84.5082,0.12708,111.0,0.7268498406064052,584.8,734.0,58.42696629213483,83.14606741573034,433.0,898.0,11.125,242.1875,,,0.0199389014191947,0.04399020505628116,0.052915119995951075,0.11684422647142695,0.45325775121268086,0.17064515741452194,0.376485911069286,-3.123788282202931,80.72333608061105,81.54717616791727,0.9898973805590788,20680.350796351722,1.0102057239864757,5.022528011290257,329.5176965590542,0.6067415730337079,0.625,0.8727272727272727,0.17391304347826086,52.11671225739221,52.23867665895649,52.01231346078428,42.04545454545455,0.46301812552807026,0.5369818744719299,54.9576116699022,59.18459336646677,0.6512955116790702,0.34870448832092993,65.8109211231276,48.15459066264414,0.5580628728585117,0.4419371271414882,60.62761919923251,53.95220428231286,0.6177019374277469,2.3942860488447923,0.9225077619342215,1.4890313868016554,-1.929212131510397,-2.11832053391275,-0.26338515394149625,0.0017981790788649395,0.3656453413677472,0.5035192026121558,1.9095425048844386,6.144162925299802,1.5803897580303912,1.4577838592341383,1.2931364634075206,1.9367661655269424,1.7643123237725076,1.9697565265859525,3.0211546480518767,1.1641767965782288,Relax
90.65619076228364,664.3258426966293,75.26902889588466,,,,,,,104.09086939260854,104.6740849223745,0.1133013711921139,0.15668646724637902,666.0,77.09519999999999,0.11575855855855854,100.0,0.7231088503256319,592.6,731.4,58.42696629213483,80.89887640449437,511.0,898.0,11.125,164.0625,,,0.025209450736634147,0.044756256809820504,0.026871647516930976,0.09683735506338562,0.5632609278241214,0.26032774976281736,0.46217967003048527,-3.1065240270555265,74.01575526310756,75.78836610444645,0.9766110429284622,17622.868157285528,1.0239491015803013,4.953046702091898,310.41371753154766,0.6292134831460674,0.6477272727272728,0.8947368421052632,0.21739130434782608,51.01614699331848,51.12396399928105,50.90896595357039,42.04545454545455,0.4957911716337763,0.5042088283662235,52.12292058753723,52.56353571970136,0.5719040992681361,0.4280959007318637,57.314452626585016,49.58759882164644,0.5347433108036663,0.4652566891963337,54.78022147846689,51.097236932406005,0.48807497524741117,3.2556608583819786,0.9072992853567113,1.7566212838659916,-2.1712944078333294,-2.2296901344109257,-0.23912454784022494,0.010921636143408688,0.9572845137517267,0.5372039151814669,1.9459101490553132,6.251014329842801,1.556548371725588,1.0872086620513806,1.342988609783734,1.631495694291228,1.8669095177361206,1.973392703649005,2.926420562157882,1.236937846364368,Relax
89.45973173264726,672.1034482758621,69.45218105349471,,,,,,,92.14460324390541,92.67179336729009,0.10333555233447984,0.1370988401864069,671.0,68.19959999999999,0.10163874813710878,86.5,0.7537303174409011,619.2,730.2,51.724137931034484,81.60919540229885,511.0,898.0,14.5,140.625,,,0.03462192530742451,0.08546713167688497,0.03450840751458632,0.15459746449889578,0.40509052577446203,0.2239488559508154,0.5528365678823628,-2.4596234017813456,65.52885351472935,72.65993350583595,0.9018567779100177,14958.134653551831,1.1088235122182277,4.881847548398032,322.2681706699356,0.6436781609195402,0.6588235294117647,0.9107142857142857,0.19047619047619047,51.08872278193045,51.192275279220404,50.98428257345253,43.529411764705884,0.49281149940974595,0.5071885005902541,46.008183415306355,46.67446713517939,0.5806174062298564,0.4193825937701434,55.365601402512695,47.05439531447182,0.5412273344046091,0.45877266559539054,50.902371063823665,46.864816231174586,0.5542746208251815,2.7447315597638386,0.9457237677865242,1.6221747484667675,-1.4030277254972443,-1.6263010849608077,-0.25354566887464725,0.008262429422321792,0.7137038984982563,0.5003419809058767,2.240709689275958,6.181393064789377,1.5476412242730808,1.134389972754035,1.1094835666530445,1.3091104907074873,1.9892674410127678,1.9595891740067553,2.800990141047612,1.184909148661835,Relax
88.16608197002536,682.4418604651163,65.57323784291752,,,,,,,96.71559275707791,97.28473759057597,0.09608618937622945,0.1417199007856313,677.0,63.01049999999999,0.09307311669128507,86.75,0.6780006819336657,635.0,739.0,52.32558139534884,79.06976744186046,534.0,898.0,14.333333333333334,101.5625,,,0.041632513232569245,0.07942555906072771,0.07075292277589472,0.1918109950691917,0.5241702258681943,0.21704967026291277,0.41408240978092337,-2.532935060000493,68.79069765625009,62.549423595720384,1.0997814800160162,13517.702948947957,0.9092715400021438,4.837873008567993,227.49764287650842,0.6046511627906976,0.6190476190476191,0.8653846153846154,0.14285714285714285,50.6432381550047,50.64696384716919,50.63027205678119,44.047619047619044,0.4727260835989244,0.5272739164010753,47.299451320687595,49.95390732608268,0.5907942066032987,0.4092057933967013,48.0774501135922,40.012362873640896,0.526159286022536,0.473840713977464,47.69003724397289,45.256944438808354,0.4923559338648867,2.8654354965009965,0.8959938317164342,1.6433210656071449,-1.655949045996472,-1.9354929900065097,-0.2391924421948157,0.009012709949144536,0.7818078236385305,0.542079351854623,2.5455312716044354,6.058710795697018,1.628513303265133,1.2458798012125691,1.5102873912745667,1.8387452366416086,2.015788043203963,2.010470796240355,3.9640052690531054,1.1208601316340867,Relax
87.96978247122205,682.9767441860465,62.655543249286424,,,,,,,87.24502345490578,87.70374917326865,0.09173891173111265,0.12774230484067517,677.0,60.7866,0.08978818316100443,79.25,0.7181560708923542,636.0,732.0,45.348837209302324,72.09302325581395,532.0,898.0,12.285714285714286,101.5625,,,0.033769474494597274,0.049461959698764234,0.04337665154640348,0.126608085739765,0.6827362825949853,0.2667244694308728,0.39066983289227036,-3.006551395782078,62.015915775902315,59.1856063109753,1.0478209085171128,11531.057423732846,0.954361563003367,4.768839244857115,225.93787098497737,0.6046511627906976,0.6190476190476191,0.8269230769230769,0.18181818181818182,47.51552795031055,47.84081085908192,47.15527060499835,46.42857142857143,0.39863893637344394,0.6013610636265562,39.181886607145884,48.12415738285216,0.5755289242326163,0.4244710757673838,44.90034503777729,38.560277616821004,0.48289602892964406,0.517103971070356,42.138232180566675,43.60521490427396,0.7115244508255579,1.3224672454655115,1.0122709208939806,1.1495262989727775,-0.016094522635484054,-0.5587701722719283,-0.3962126445479694,0.0008522534508994544,0.13687362116542642,0.6060798874590541,2.6026896854443833,6.045393969793219,1.398598546627212,1.4603955223552292,1.2388394202324127,1.7328293208744803,1.9356778438203166,1.9609818401584154,2.55689259566157,1.1955841404096927,Relax
89.65362017975096,670.2727272727273,57.822305538294174,,,,,,,78.26737257117682,78.72017580384721,0.08626683316441557,0.11676944232781027,661.0,46.701899999999995,0.07065340393343418,69.75,0.7387791826755168,628.4,719.6,37.5,65.9090909090909,532.0,819.0,11.0,125.0,,,0.030501133025628936,0.05973539151991097,0.06552812533711669,0.1557646498826566,0.5106040531342683,0.19581550145431967,0.3834977420416757,-2.81783061145451,55.663570127097536,60.280876030207615,0.9234034704340348,10541.453206052525,1.0829502292534832,4.729870595208886,261.12475406605654,0.5681818181818182,0.5813953488372093,0.76,0.2,49.65930208548419,49.773855116421316,49.54855909273983,45.348837209302324,0.41382849573031266,0.5861715042696876,35.80851853958776,42.617552885559824,0.6390150044604493,0.3609849955395506,48.18757628822901,36.217972146924076,0.5353739366729885,0.4646260633270117,42.45169318492427,39.54742292734671,0.7190723321620419,1.5464516880621453,1.1125343878015763,1.1933957198164844,0.1751711111211698,-0.1977165467992985,-0.44771169856833015,0.0016306515695554585,0.21245669839243123,0.5050395655415039,1.9278916435526348,6.0730679822736615,1.3114343808923912,1.2147372516514143,1.394312373499086,1.6988269342014073,2.051693040931779,1.9628796677423885,3.6694218095082176,1.1010394804495394,Relax
92.29382943916715,651.0888888888888,66.90369473757093,,,,,,,76.24494825777941,76.6369920439232,0.10275662183660507,0.11710374659886255,651.0,57.080099999999995,0.08768064516129032,77.0,0.8774836401144075,592.4,698.2,32.22222222222222,60.0,532.0,819.0,11.25,125.0,,,0.01632334562041174,0.01713549037737499,0.016379507867933157,0.049838343865719885,0.9526045220138215,0.3275258436434394,0.34382142439450575,-4.066603505601395,54.190536763997585,76.18546181142315,0.7112976081726963,12970.162877034441,1.4058812914737222,4.819915539874177,428.4308617718621,0.5333333333333333,0.5454545454545455,0.75,0.1,47.639577495149815,47.76655188505997,47.506009970853434,51.13636363636363,0.41907445741356014,0.5809255425864399,35.09904816114223,41.32472570441883,0.4605984663403267,0.5394015336596734,51.70509592973188,55.953620493378615,0.4466382051333002,0.5533617948666999,44.18913965512883,49.18607831928916,0.6804000413548369,2.628117107457077,1.180242893115097,1.6028369279755268,-1.0590449614901143,-1.1700920536787192,-0.3392027380890478,0.004133331362480416,0.5643654801618496,0.5556672427862637,1.413693335308005,6.1140753185518975,1.0599713923537661,0.8777284270939871,1.4801286330245762,1.6881669270740047,1.977224302980994,1.9183760929948925,2.7351494441225435,1.1541072171252755,Relax
92.21349243380848,651.4725274725274,65.37674419331908,,,,,,,71.83499611377916,72.23618841241942,0.10035226573092297,0.11026558002756062,654.0,53.373599999999996,0.08161100917431192,76.5,0.9100960218577743,590.0,703.0,30.76923076923077,58.24175824175825,532.0,819.0,10.11111111111111,148.4375,,,0.017146432369207126,0.02481355445105215,0.018511379455129748,0.06047136627538902,0.6910107297618573,0.28354630340451686,0.41033560144896064,-3.696365224669845,51.07869867349087,77.61462306072822,0.6581066384040186,12454.69938588855,1.5195105802687399,4.80230335956813,471.7449636973866,0.4835164835164835,0.49438202247191004,0.7272727272727273,0.043478260869565216,49.561808118081174,49.60844875212268,49.51691477508535,53.93258426966292,0.46488768883606346,0.5351123111639364,34.827423651517016,37.36541391853395,0.4177509237050075,0.5822490762949922,50.165166968457584,59.22403005441033,0.4319966623970432,0.5680033376029567,43.18271306423136,49.51595648469829,0.7246607320584546,2.459559653595575,1.1639031539692013,1.7807396268374516,-1.3058612376253649,-1.9753558543456342,-0.249208573995548,0.004806894441800774,0.5587425199221789,0.5356099437822879,1.1363526166509568,6.125872799515582,1.0479889261493576,1.0569553312566207,1.2210959148641942,1.5434327903362237,1.6950862635601618,1.8206881126479855,3.9620158549955646,1.1442276290459246,Relax
91.9669503011995,653.2666666666667,66.05527137484557,,,,,,,62.27340947860401,62.61344759893611,0.10111532509671228,0.09532617023972448,658.5,67.4583,0.10244236902050113,89.75,1.0607299636860408,589.0,710.6,27.77777777777778,48.888888888888886,532.0,800.0,10.0,156.25,,,0.020479389263309843,0.009625320709431492,0.00500880806160583,0.03511351803434717,2.127657860090091,0.5832337632269549,0.27412008959102996,-4.643358078902988,44.27439339067628,82.33344378362104,0.53774494732703,11451.932338602923,1.8596176588375255,4.765848883378921,612.4349038917135,0.4666666666666667,0.4831460674157303,0.7209302325581395,0.041666666666666664,51.55555555555556,51.655158165956315,51.452690247716845,52.80898876404494,0.5215159065886306,0.4784840934113694,31.9797521168402,30.631979724108298,0.4141833944578267,0.5858166055421731,52.98740155199944,63.01691234928804,0.43826644504139983,0.5617335549585999,43.76282251344957,49.54517849325015,0.9926891228061745,2.339024540057081,1.4625812549859445,1.771568914786695,-0.9372792612472622,-1.117941485058477,-0.3678989234575495,0.0022070690205645235,0.40553459901906136,0.5472974601124876,1.0986122886681098,6.141744485170488,0.970429808341851,0.6770125502755525,1.187255364736234,1.3230913535741562,1.6179786985878983,1.7541214097542654,2.5956484506412236,1.0819755160549458,Relax
91.32364921366575,657.2,65.00910912835926,,,,,,,53.83745824342341,54.142318982481875,0.09891830360371158,0.08191944346229978,659.0,64.4931,0.09786509863429438,83.5,1.2075070266954984,592.4,713.4,26.666666666666668,51.11111111111111,532.0,800.0,12.857142857142858,179.6875,,,0.01875168679591791,0.0052034122098130724,0.003759341058779265,0.02771444006451025,3.603728868636288,0.6766034872892994,0.18775094130356637,-5.258440674401207,38.28440090167807,83.596327768289,0.45796749598611763,10054.46410904543,2.183561079693553,4.70932903813308,730.150750880565,0.5,0.5168539325842697,0.782608695652174,0.043478260869565216,49.821534800713856,49.80849659214968,49.8319052439577,52.80898876404494,0.5217510970523019,0.47824890294769823,27.653805426115486,26.475868086034325,0.42007488579310864,0.5799251142068914,54.18144197691768,63.66095633624355,0.43770280082837254,0.5622971991716273,43.013728094897516,48.7528919786006,1.08285445657343,2.31980301245569,1.437461769409215,1.9312621331847755,-1.362571534565582,-1.6293014383186453,-0.28713694174712073,0.0024748663331963265,0.39345963670281203,0.5717569491195942,1.225951711044711,6.180741985218565,1.0233469069228662,1.3967611779930624,1.256389338131443,1.2949163802355956,1.7348365275398239,1.7349867101494718,2.734731226185381,1.009843814984616,Relax
90.11226091176773,666.375,69.35322092645418,,,,,,,57.66121826630116,57.9732215187192,0.10407536436158947,0.08652968413626136,677.0,71.1648,0.1051178729689808,93.75,1.2027706491762793,591.2,733.4000000000001,31.818181818181817,53.40909090909091,532.0,800.0,8.8,148.4375,,,0.01324534943844379,0.003854173602659345,0.0024013826535937053,0.019500905694696837,3.4366250210692684,0.6792171423117948,0.1976407487426323,-5.5585986652044115,40.99325806311623,88.93892915639792,0.46091467990389373,11453.921580872006,2.169598937939039,4.765924315357649,771.8472249566254,0.5340909090909091,0.5465116279069767,0.8297872340425532,0.13636363636363635,51.93755227209367,51.85086493090611,52.016498766700124,48.837209302325576,0.5389460656366785,0.4610539343633216,30.1059176752639,27.845504000165914,0.40898365861464336,0.5910163413853567,56.87807295730543,68.37410281788132,0.43176990705535623,0.5682300929446438,45.50539233105417,52.203400412106596,1.0355679031968719,2.8259577716497297,1.5057742937753669,2.264728804243714,-1.684474649097309,-2.3164213343154803,-0.23143458897997363,0.007764352041617048,0.7782516293037869,0.5911799646446294,1.374318170073175,6.050340709546388,1.0701131259454428,1.1849210563562775,1.0548846497331221,1.3861480454583526,1.6106185126014763,1.7509701589496076,3.165659738743333,1.0276368484195701,Relax
90.31858488867127,664.8522727272727,66.75337001656503,,,,,,,49.59572191413195,49.880019103851474,0.10040331176539084,0.07459660431134071,673.5,71.1648,0.1056641425389755,94.0,1.345950163446338,600.4,729.4000000000001,28.40909090909091,54.54545454545454,532.0,800.0,8.8,148.4375,,,0.02828120453249872,0.015496266715613528,0.005501217924685457,0.04927868917279771,1.8250334129834969,0.5739033445741533,0.31446182874863504,-4.167156141124847,35.27049975404791,87.83695878456736,0.40154509265915994,9732.821906193003,2.4903803290875266,4.695208886572012,874.9897372958334,0.5795454545454546,0.5930232558139534,0.9019607843137255,0.17391304347826086,50.76586433260395,50.82256134814598,50.7092965760376,53.48837209302325,0.5265027079818877,0.47349729201811236,25.59410360873933,24.271597910238192,0.37815590918761954,0.6218440908123807,54.014795502907155,69.2656711170902,0.39875621400786493,0.601243785992135,42.26497529134355,51.898187157246554,1.2832355348270474,2.0736428164270246,1.307589791404797,2.297657569363235,-1.537971005613569,-2.4931722582589195,-0.02254661694130751,0.004840072162438668,0.43752630571276074,0.6221531788928236,1.4213856809311607,6.0331841754063085,1.064470907866787,1.1710135634257934,1.046926740936843,1.118895686432332,1.6964726949656155,1.6895540856627638,2.6214807357951155,0.9542342163896008,Relax
88.09041734977077,681.5232558139535,50.103358286924305,,,,,,,48.27043913325885,48.5567385925486,0.0735167257456022,0.07082728097900157,679.5,45.2193,0.06654790286975718,62.25,1.0379718765061443,643.0,731.0,27.906976744186046,58.139534883720934,592.0,800.0,8.6,70.3125,,,0.04454583463199245,0.02073640663470618,0.008353688912524217,0.07363593017922285,2.1481944975672316,0.6049469942672298,0.28160717986770506,-3.875864348920338,34.33479913109365,62.45507068558755,0.5497519857745821,6736.775701241485,1.8190020697988631,4.535422197861486,454.4236113860722,0.627906976744186,0.6428571428571428,0.9444444444444444,0.15384615384615385,49.824784963364124,49.810435407308105,49.84022824081214,51.19047619047619,0.525657273558088,0.4743427264419121,24.893583032389614,23.647334491892074,0.468372001468004,0.531627998531996,42.74281953844291,45.53775611781766,0.48166711998709894,0.518332880012901,34.97598532054796,36.28280350811709,0.9879408568301945,1.9990475457122932,1.23388715621211,1.7738399294700806,-1.3576562279651032,-1.764878136397348,-0.2298949820297663,0.0023157731763833477,0.29998553455881105,0.6235232230675964,1.9616585060234524,5.911559376719651,1.2987580656442015,1.3924344607867596,1.308166670443755,1.660052180020261,1.9145426627999542,1.8034562002189625,3.881462123746227,1.1208601316340867,Relax
87.41177804775869,686.3139534883721,51.43957314522076,,,,,,,47.05353646770503,47.32653716941668,0.07495049879689249,0.06855978408794254,683.0,48.925799999999995,0.07163367496339677,79.75,1.093213751967954,649.0,738.0,25.581395348837212,56.97674418604651,592.0,800.0,8.6,70.3125,,,0.025987478667814187,0.013831703943155858,0.008040236284327717,0.04785941889529777,1.878834218445891,0.5429961179567828,0.2890069345266295,-4.280791934592801,33.46491536257173,64.22872512865766,0.5210272396896807,6752.567053589261,1.9192854496352079,4.536439015425385,493.0930303522075,0.6627906976744186,0.6785714285714286,0.9649122807017544,0.20833333333333334,51.068024975353275,50.98029338812425,51.158849181157265,47.61904761904761,0.5271928286386849,0.4728071713613154,24.30143048895525,23.013841590701556,0.5083845599581174,0.49161544004188257,45.795781850271325,45.03415921692133,0.5124011175292683,0.48759888247073185,36.65933141157354,35.76109898434978,0.9682597097552083,2.1010025258114244,1.2398416615111771,1.7693121403079493,-1.4198189688467728,-1.7753504021930877,-0.24799150772449155,0.0022063684668029654,0.3194593211247565,0.5581904562562943,1.82812711339893,5.934815190673139,1.2652760828088045,1.0234626227589134,1.1885536748207315,1.5197767148620003,1.9488027272564357,1.7547986251069458,3.6479681907190153,1.0461361228584811,Relax
87.62808985308278,684.9069767441861,50.019673284201644,,,,,,,45.957525147107944,46.22830932051326,0.07303133853589591,0.06710038984501855,682.0,47.4432,0.06956480938416422,65.0,1.0883891837972335,649.0,738.0,24.418604651162788,60.46511627906976,592.0,786.0,7.818181818181818,70.3125,,,0.017896808845727925,0.00826152948921584,0.00590272618669143,0.032061064521635194,2.1662827529804822,0.5582100629768841,0.2576810724310436,-4.796145540404826,32.68835100332421,63.137407397557546,0.5177335014327615,6483.800296606488,1.9314956386492808,4.518799739917191,487.7985080960209,0.6744186046511628,0.6867469879518072,0.9824561403508771,0.20833333333333334,49.39718687206967,49.37801879288562,49.419250436228396,50.602409638554214,0.520626308988013,0.4793736910119869,23.587097966392356,22.633335086611897,0.47838290911329573,0.5216170908867044,43.66913327159175,45.59976986995781,0.4873131834949735,0.5126868165050265,35.09518764138633,35.99726982241827,1.0487646077652584,1.9295880805157957,1.306008679902697,1.9319006553404243,-1.1897803199959096,-1.985661186659284,-0.175634410391662,0.004136655163578642,0.3670376817880695,0.5617071838439491,1.6625477377480486,5.920337138372714,1.2724226623771486,0.9863823426674041,1.2205465188338134,1.6609712391581728,1.8175462602913417,1.7612503411990834,4.057506163595433,1.0461361228584811,Relax
88.21298405215126,680.5697674418604,48.546773248965344,,,,,,,44.09361698504138,44.35210529047611,0.07133254454050163,0.06478926789648821,679.0,42.9954,0.06332164948453607,56.0,1.1009932178037172,646.0,715.0,20.930232558139537,59.30232558139535,592.0,786.0,8.6,70.3125,,,0.005463192958524588,0.009097488612978185,0.007085543984829573,0.021646225556332346,0.6005166030909863,0.25238547682630036,0.42028059761748265,-4.699756880143685,31.36167441079541,61.431581582165656,0.5105138693010647,6052.583798819514,1.9588106418520657,4.488910920981463,481.33134299579774,0.6627906976744186,0.6746987951807228,0.9642857142857143,0.11538461538461539,49.21301154249738,49.1978461412095,49.23185144092498,50.602409638554214,0.5043597703027334,0.49564022969726673,22.27413084189605,22.080750073526122,0.4906247071672259,0.5093752928327739,43.029510339908256,43.84404698010896,0.4934646506932215,0.5065353493067789,34.261316851911694,34.712101487835085,1.008926508598242,1.8983701340091095,1.2412942166184897,1.7756192913756248,-0.8893354271014413,-1.377445569126146,-0.21853482880669303,0.004039923900522246,0.33929201436650874,0.5441660229139025,1.6677068205580758,6.013360394186668,1.25482479111275,1.2629070028667255,1.2918372971328385,1.398491371621216,1.8032508401478893,1.7923857741874598,3.7784974119374777,1.0461361228584811,Relax
88.8183397069329,676.1149425287356,51.08552457043182,,,,,,,45.911441549098406,46.17170712663425,0.07555745533350734,0.06790478757559351,667.0,48.925799999999995,0.07335202398800598,62.0,1.112697028164541,633.4,712.6,21.839080459770116,63.2183908045977,592.0,815.0,9.666666666666666,85.9375,,,0.013449197312568422,0.015207160288586258,0.011932977101649951,0.04058933470280463,0.8843989974027382,0.33134806005182227,0.3746590181862596,-4.1859888904317915,32.64832720820232,64.26742392834625,0.5080074042582282,6591.764743459443,1.968475245868039,4.5259718091908105,506.0353324746276,0.6551724137931034,0.6705882352941177,0.9473684210526315,0.11538461538461539,51.2956810631229,51.42246642997006,51.170555189589265,49.411764705882355,0.470078774906772,0.5299212250932278,22.38881023032291,23.77121343632449,0.5729123039478276,0.4270876960521725,48.64463698964976,42.00001274441438,0.5518112458739212,0.4481887541260787,37.86528443960387,34.125296033633646,1.092622074087279,1.3326774641429804,1.1899305626810803,1.5133997636561363,-0.6155269618762915,-0.8586142035290756,-0.25727870420389165,0.0011016907121842985,0.11547597292718813,0.5919653493956729,1.642227735257091,6.0894390418008735,1.2468575165477427,1.2956854688910227,1.4170593302060002,1.6766809569730636,1.817145535252161,1.8390707524989276,2.4053840936748636,0.8146250397050115,Relax
87.6903815077617,684.6046511627907,46.759026576132534,,,,,,,45.09258449535343,45.356338906393184,0.06830077256517762,0.0658666055200828,680.5,39.2889,0.05773534166054371,52.0,1.0369560117129863,645.0,715.0,18.6046511627907,62.7906976744186,603.0,815.0,10.75,117.1875,,,0.047752915954650504,0.04053154117853452,0.016182704381573047,0.10446716151475807,1.1781667947021077,0.45710934672906234,0.387983559530414,-3.2056748134410284,32.07177481050586,58.051456214529615,0.5524714951505154,5849.058769287901,1.810048136017515,4.474056094985434,420.30372045684686,0.627906976744186,0.6428571428571428,0.9259259259259259,0.08,49.14030261348005,49.1224673238864,49.156958974692195,48.80952380952381,0.4471053149264614,0.5528946850735386,21.4469167503219,23.849603171301847,0.6070507659252747,0.39294923407472515,45.229899644833324,36.38994018607006,0.5696428969094032,0.43035710309059677,35.39572050387541,30.76549461795087,1.036246632416636,1.3269518291574007,1.1863576589123355,1.26411993170665,-0.24801402797461236,-0.09121577716956697,-0.4413978178516904,0.0002164344611869564,0.07991837413020667,0.5305401841721311,2.3749057545736716,5.998882341886242,1.3010455682268998,1.4245780959509218,1.6406828212427502,1.9222836695492151,2.0661073591232513,1.781915947886397,3.3871545949492146,1.0461361228584811,Relax
86.97378008518088,690.1647058823529,45.48255737324017,,,,,,,44.04948515995554,44.31402311757729,0.06590101896777265,0.0638245983669068,688.0,44.477999999999994,0.06464825581395348,60.0,1.0325332341134241,648.0,725.6,16.470588235294116,61.1764705882353,604.0,815.0,8.5,85.9375,,,0.054918327335449886,0.032243644359732065,0.01571711342448653,0.10287908511966848,1.7032295333227103,0.5338143051288718,0.31341301608802613,-3.4344343292788464,31.334746248096337,56.612838495357515,0.5534918771237007,5573.0249220478745,1.8067112478626466,4.453061095146767,409.1322083319754,0.6235294117647059,0.6385542168674698,0.9245283018867925,0.08333333333333333,49.92897727272728,49.95459834980409,49.90088847795916,49.39759036144578,0.43438247745260444,0.5656175225473955,20.652022276193332,23.56610798971974,0.587539604003418,0.4124603959965822,43.394381575666074,36.358508360037625,0.5516226524466874,0.4483773475533127,33.98218927931875,30.637416470306846,1.215471212860573,1.2783167818206174,1.3478828337172737,1.5463784779554022,-0.5102850331010984,-0.6733958411474088,-0.34472108395899725,0.0002761741652417133,0.07999082199332722,0.49780850753325767,2.5649493574615367,5.912159612531933,1.359626236288546,1.3443679280010439,1.563071994576692,1.8833861031222356,2.091014889796755,1.7601212866694278,3.4745077845587384,0.980259790232825,Relax
88.3613004544542,679.2528735632184,43.08785465059504,,,,,,,41.46166624053911,41.69770043556631,0.06343418824945882,0.061040104288466075,674.0,38.547599999999996,0.05719228486646884,53.0,1.0392214919830194,643.0,710.6,12.643678160919542,58.620689655172406,604.0,815.0,9.666666666666666,93.75,,,0.052941207457072634,0.015864511936348073,0.01091194382063086,0.07971766321405156,3.3370839058575803,0.6641088727716352,0.1990087428146249,-4.143670617965848,29.484726737874194,53.06585743882966,0.555625182762042,4915.4373571402975,1.7997744361206731,4.398532275739762,382.0262945969187,0.6091954022988506,0.627906976744186,0.9259259259259259,0.07692307692307693,48.77140729709604,48.86230533731484,48.67696961343888,51.162790697674424,0.41923701298701316,0.5807629870129871,19.094193758682707,22.47351382248472,0.5874475436688127,0.4125524563311873,40.672393633222775,34.08433103146333,0.5477572593493175,0.45224274065068276,31.771306544978113,28.868671993978055,1.2508852004566278,1.3984723513212378,1.44491196780938,1.658413283593751,-0.5335978275242006,-0.7957933961828214,-0.3473324727638262,0.00035382125064378555,0.1074924951782219,0.5407273656034595,2.100060828882572,5.8192117429005625,1.2845647471452508,0.9435093156135609,1.398952918542718,1.704675980775753,1.9382496326883105,1.7580963875450375,2.814896723088018,1.0367955050791056,Relax
89.45983499377007,670.9545454545455,41.24078694492857,,,,,,,38.42338248825942,38.64550435280545,0.06146584328896609,0.057266744444259006,664.5,39.2889,0.0591255079006772,51.5,1.0733252585851867,635.0,699.2,9.090909090909092,54.54545454545454,604.0,815.0,9.777777777777779,140.625,,,0.053669466936673814,0.01728783780580389,0.005218394713890814,0.07617569945636851,3.1044638166755503,0.7045483969256404,0.2269468863322472,-4.057752041716293,27.326498190242976,51.47718226592269,0.5308468138189608,4419.250513684414,1.8837826166948388,4.352318731036881,387.88728443590804,0.6136363636363636,0.627906976744186,0.9259259259259259,0.11538461538461539,49.61585119288314,49.60991579562253,49.61647696486106,51.162790697674424,0.4359209921910886,0.5640790078089113,18.042424165489567,20.523950841383705,0.5946962682111756,0.4053037317888244,39.697428329763454,32.77216010644279,0.5597892664792488,0.4402107335207514,30.833544118087918,27.34270502512375,1.3287974224091055,0.7729754968461053,1.4131133348288776,1.451505397002212,0.28747440607076413,-0.029257467335588316,-0.45033210971113347,8.473653875769125e-05,0.02723402737329902,0.5611255167424631,1.7730673362159024,5.871085737832556,1.2645145361499612,1.162578076191521,1.2583896220397413,1.5932993149274441,2.0131956392905974,1.7137105605346115,2.4418940073947115,1.1010394804495394,Relax
86.20634951354202,696.4404761904761,43.9537958914186,,,,,,,38.515839332903965,38.749707325447204,0.06311206397974671,0.05530384957460442,695.0,39.2889,0.056530791366906474,52.75,1.1411875387554908,665.6,731.8,16.666666666666664,67.85714285714286,593.0,827.0,6.0,109.375,,,0.05887613981265594,0.017896003964743345,0.006350401558938336,0.08312254533633762,3.289904267379855,0.7083053048294685,0.21529663092402895,-4.023177833250784,27.40018081881775,55.96186939105941,0.4896223288637184,4817.2092882742945,2.0423905141759584,4.3897656250261035,457.1839647994145,0.6071428571428571,0.6172839506172839,0.96,0.06666666666666667,50.23006134969326,50.24281938044521,50.2157190687796,48.148148148148145,0.47967968293158336,0.5203203170684166,18.97720069824481,19.764775269742245,0.5197396572311948,0.4802603427688053,40.34457467753885,38.782033466935204,0.5119930611192477,0.4880069388807526,31.526329093735068,30.778990084909356,1.2500803997276975,0.9070293289791223,1.3821138777286468,1.644944942202134,-0.6095833457066036,-1.6095833457066036,-0.21022870366352064,0.001795355742184402,0.09828288905048486,0.5063759810386985,1.6582280766035324,5.808751351247166,1.3639806176754512,1.2291001856315478,0.9762541377848677,1.1489139491497091,1.7165105628513708,1.7584261510592178,2.6173312142420357,0.9131882032541088,Stress
86.30993353933957,695.0941176470589,43.11850324546124,,,,,,,43.73350029004136,43.99428195255539,0.06203261134106605,0.06291737935875828,692.0,37.065,0.053562138728323695,47.0,0.9859376212628431,663.8,722.0,18.823529411764707,65.88235294117646,597.0,839.0,5.3125,101.5625,,,0.048508234880155404,0.01329117727934661,0.014275267615078682,0.0760746797745807,3.649656750537305,0.6376396854234773,0.1747122343298732,-4.320654826331797,31.10865510208486,52.72980739100826,0.5899633744421691,5153.322164738259,1.6950204763906485,4.419057403595883,357.51241297557584,0.611764705882353,0.6309523809523809,0.9811320754716981,0.06451612903225806,49.38181818181819,49.382586722839044,49.3795612246707,48.80952380952381,0.4214614714303499,0.5785385285696502,20.196623838103026,23.662791695896182,0.544415387058549,0.455584612941451,38.90642984533676,35.591042471143176,0.5126677156346582,0.48733228436534193,30.9968861159306,30.221267470327007,1.0651039624859318,0.559742184861376,1.0844197782698108,1.3168319619651072,-0.1453042884454625,-1.0088496299425564,-0.08478708594590764,0.0002748829991567178,0.024969566697176267,0.5925591612014012,1.9328380674879604,5.894397553657497,1.3728480406559864,1.2665441259333987,1.104052822369953,1.4822905656756291,1.714065350151351,1.7887198728240241,2.977310589203076,1.0556643894815037,Stress
85.88837535676495,698.6823529411764,44.89782362015258,,,,,,,45.84471720098288,46.11483209911478,0.06426070936406293,0.06561596555000244,695.0,40.0302,0.05759741007194245,52.0,0.9793456337252747,664.8,734.2,22.35294117647059,71.76470588235294,597.0,827.0,7.7272727272727275,70.3125,,,0.03160373859987603,0.02201842039187331,0.01376463529058421,0.06738679428233355,1.4353317829984085,0.46899008828739347,0.32674681480798334,-3.8158758854163097,32.60811049056313,54.61439698470947,0.5970607072653846,5594.775307181683,1.674871563027702,4.454752759394415,365.8884017663831,0.6352941176470588,0.6547619047619048,0.9636363636363636,0.1111111111111111,49.03654485049832,49.009839566309964,49.06349104906121,48.80952380952381,0.4294857997349134,0.5705142002650866,21.37220354426163,24.632479293497397,0.5327830832702534,0.46721691672974647,39.864136040644695,37.33072482200707,0.5056321574497121,0.49436784255028793,31.983749206467156,31.625480643628112,1.1367374098547662,0.7289450891950224,1.1760242809518533,1.4526863434070902,-0.48449204675286595,-1.236255135635366,-0.12046240991793196,0.0005571741762565354,0.043978167281577954,0.5481946652144716,1.7346010553881064,5.879749171330008,1.3902773132813804,1.2161330898169411,0.9905728650272241,1.3676708155083817,1.6708368282642247,1.8345135094495737,3.5926343746337843,1.0556643894815037,Stress
86.77673188564542,692.3058823529411,45.696468429089315,,,,,,,52.016366472028594,52.326476066452145,0.06600618251831207,0.07513494800194458,694.0,38.547599999999996,0.055544092219020166,46.0,0.8785017395181235,659.0,715.2,23.52941176470588,65.88235294117646,577.0,824.0,6.538461538461538,140.625,,,0.04680472388516986,0.013875043046956862,0.012181939506202766,0.07286170643832948,3.3733029675490114,0.6423775419641814,0.19042983928328344,-4.277663516871074,37.00040606218389,51.26611175034491,0.7217322476564639,5959.183281215514,1.3855553818567743,4.482156852794945,284.12814817024486,0.6,0.6190476190476191,0.9038461538461539,0.12,50.63803299097417,50.77277727863373,50.51687072432733,45.23809523809524,0.4428433775227805,0.5571566224772196,24.62355126923072,27.61940124805758,0.5864448376015163,0.4135551623984838,39.25942763095959,32.9683417248775,0.53725942806205,0.46274057193794993,32.76905502924205,30.411699076091615,1.0457408379134285,0.8298498231374554,1.0644992030594636,1.3199899488626552,-0.5176141256399145,-1.1018314561366616,-0.1921241185094855,0.0002454580135953564,0.0354894212833754,0.6461962581559133,1.7272209480904839,5.794512553708405,1.3614485494352344,1.2322746060338192,0.9620242694027871,1.1847748032306011,1.6960722811902345,1.8656933857766003,2.3754613094270893,1.1310689887301828,Stress
87.27465308076424,687.7790697674419,52.777535587159605,,,,,,,60.1612538980716,60.510704657533616,0.07673617576790352,0.08747177188514019,680.0,33.3585,0.04905661764705882,45.0,0.8772678787011008,648.0,713.0,25.581395348837212,70.93023255813954,587.0,898.0,8.6,117.1875,,,0.050883717976257486,0.018708830056708158,0.007271630515571032,0.07686417854853668,2.7197701738710722,0.661995209434606,0.2434011578604756,-3.9787596710249398,42.78752959771842,61.245690410326304,0.6986210672302952,8232.706255474079,1.4313911316252328,4.622512729939987,350.6661524144225,0.6511627906976745,0.6666666666666666,0.9285714285714286,0.17391304347826086,51.09964702688027,51.07977166604645,51.1178425810502,47.61904761904761,0.5029660617525931,0.49703393824740694,30.348766351329985,30.169264555330543,0.528186282956605,0.4718137170433952,44.511178588762235,42.06886704532045,0.5199129270069213,0.48008707299307873,38.09391446417856,36.605833539795086,1.052588881495672,1.1024602465049584,1.1350348175090332,1.1726392467218338,-0.26512098434349696,-0.07071542270624942,-0.46589044427496146,0.0001226993119604723,0.04354424697167226,0.5942936869043107,1.5260563034950494,5.850569696512248,1.260719118320228,1.1302899462740696,1.2074512142251168,1.5237576542904971,1.7197722005378868,1.8441244597126474,2.6969802452652614,1.0461361228584811,Stress
87.12286454851616,690.3720930232558,61.90201869019019,,,,,,,71.25001547987448,71.66629796009643,0.08966471749909648,0.10320523700177196,680.0,48.1845,0.07085955882352941,62.5,0.8688000735617418,648.0,738.0,31.3953488372093,73.25581395348837,524.0,899.0,10.75,148.4375,,,0.04114210643631299,0.03424709146108662,0.010381308620027674,0.08577050651742729,1.201331403078736,0.4796766173690898,0.39928750396417584,-3.374153638724068,50.67572527011982,71.6600478996909,0.7071684537673664,11408.457788557638,1.4140902279684622,4.764197049806141,405.33509388281925,0.6395348837209303,0.6547619047619048,0.9090909090909091,0.125,50.93778591033852,50.870360223652725,50.99565577711844,47.61904761904761,0.5365717437451915,0.4634282562548089,37.1239077120058,34.500948917246845,0.4772561999320976,0.5227438000679023,49.50543529828981,51.81094807965624,0.4970327639983958,0.5029672360016043,43.75484343408557,44.01528039842136,0.8673220809822759,1.0884543979815247,1.0608407601032037,0.8110474820688274,0.27697440390567873,0.8084453363970976,-0.7294935630721907,0.00038305160422617113,0.06071126167116768,0.5702736725451096,1.6226831391841208,6.030915917492795,1.2654956833594622,0.6539837280486009,1.1901863641494743,1.2980856143293202,1.8407237763045161,1.8144529262750468,2.983605435140249,1.1208601316340867,Stress
87.05934394388879,689.964705882353,64.97388615707807,,,,,,,77.1380950911138,77.58895474149155,0.0941698692746711,0.11180005938487343,679.0,59.303999999999995,0.08734020618556701,89.0,0.8423060756210322,639.8,746.8,40.0,80.0,566.0,899.0,10.625,78.125,,,0.062334933982869975,0.0366078233041242,0.008957933968623523,0.10790069125561769,1.7027763018034285,0.5777065304910602,0.3392732973081697,-3.3074933099376054,54.8636760428848,73.80634753404814,0.7433463093072752,12721.211991130385,1.3452679961939955,4.811498599889373,397.15726901410636,0.6705882352941176,0.6867469879518072,0.9122807017543859,0.2631578947368421,51.16700201207243,51.18527962958473,51.147950664377554,44.57831325301205,0.47255633983162076,0.5274436601683793,37.72083569836613,39.85130494756849,0.5202881182236623,0.47971188177633756,53.23725664843365,51.11918857792544,0.5032966770222357,0.4967033229777644,46.13603223747316,45.83283728338013,0.9959110113791666,2.022428399060067,1.2798319342623903,1.6159818725924502,-1.2185343580905936,-1.2544051342812925,-0.3337889546614915,0.0008211692738136668,0.23386546865777103,0.4776353926300776,2.995732273553991,6.000509906700483,1.3857907034936858,1.1512925464970227,1.023586140555525,1.151292546497023,2.04344451196719,1.8344101143464917,3.057695247837327,1.0556643894815037,Stress
87.0128504463901,690.8470588235294,71.95559243667698,,,,,,,90.79313221352625,91.33802586242605,0.10415560364288586,0.1314229119946482,677.0,57.8214,0.08540827178729689,96.0,0.7925224153238005,639.8,751.2,42.35294117647059,83.52941176470588,525.0,899.0,10.625,109.375,,,0.03593763574911335,0.058408147272188855,0.008036712487524246,0.10238249550882644,0.615284637974215,0.35101347716236464,0.570489584004655,-2.840299890792878,64.58573746751371,79.16870652926524,0.8157988212632875,16063.4950954349,1.2257924060879026,4.912810154983949,388.17759705350034,0.6823529411764706,0.6987951807228915,0.9310344827586207,0.23809523809523808,50.19885872384575,50.238041980883544,50.166709035251245,48.19277108433735,0.487237253500278,0.5127627464997218,45.08258820249947,46.248412541952206,0.5064378619352069,0.49356213806479327,56.3399727689499,55.61916541904336,0.49876545472014877,0.5012345452798512,51.02270225420328,51.14883783900427,0.8335960650985269,1.3138818322583368,1.0931110431226434,1.0210487708078617,0.11012311313241874,0.24403300355484214,-0.5548468443245912,0.0002554258484368421,0.09397663428577285,0.47396081839372295,2.3978952727983702,5.96809946549856,1.3188145415567973,1.4188689188772057,1.398226636651059,1.7234946650127174,1.8838263100170634,1.86841204298159,3.3440959592720967,1.1310689887301828,Stress
85.827031581921,700.202380952381,81.50641629882413,,,,,,,88.228209023361,88.70597623832212,0.11640408332797027,0.12600386891480905,682.0,70.42349999999999,0.10326026392961875,111.5,0.9238135648570507,638.6,768.8,42.857142857142854,84.52380952380952,553.0,909.0,12.0,85.9375,,,0.04915418274784977,0.05113101382906569,0.018746781029230764,0.11903197760614621,0.961337925200846,0.41294939172136963,0.42955695483988615,-2.9733640416286513,62.72459732989033,95.24416478532338,0.6585663013715236,18768.351670773056,1.5184499995177554,4.9803962423741925,578.4940078893732,0.6547619047619048,0.6707317073170731,0.9272727272727272,0.3157894736842105,52.36654804270463,52.42111876157188,52.31784106419107,43.90243902439025,0.47845191846337204,0.5215480815366281,43.415392909236864,45.32854320699368,0.5859259438342808,0.4140740561657193,72.90540751933345,61.288273593679826,0.5533841712754708,0.44661582872452893,60.000394944631395,53.90236223655715,0.9880668071335216,1.0874175771301835,1.204898844745033,1.1504868607887142,0.3788902891950663,0.35798050392967307,-0.5500378006578835,0.00023090171519383646,0.06837329372785018,0.5819312164815074,1.897119984885881,6.1124391489177246,1.3097431363292922,1.3340823980814156,1.4632826196872433,1.7310690456456956,1.7811147102019627,1.8293590883933337,2.811591426906231,0.9892872201919511,Stress
84.45506415672067,712.6746987951807,80.35562852077722,,,,,,,90.10150102969915,90.60280992283784,0.11275218364931885,0.1264272481989625,710.0,85.9908,0.1211138028169014,114.5,0.8918345155458675,640.8,778.6,46.98795180722892,80.72289156626506,553.0,909.0,13.833333333333334,85.9375,,,0.04774715597505647,0.032365760309453054,0.014427830467593845,0.09454074675210337,1.4752366549878633,0.5050431439922404,0.34234720394498014,-3.43065419554259,64.06586129099445,92.46978111009363,0.6928302470481491,18611.285503043713,1.4433549982272984,4.976746481351405,533.8668830009515,0.6144578313253012,0.6296296296296297,0.8823529411764706,0.3,52.235377275136955,52.41760013141268,52.06729106031316,40.74074074074074,0.4706511501444346,0.5293488498555654,43.97754758235189,46.63934385325043,0.5951183556186801,0.4048816443813198,71.33480894865,58.83880905327906,0.554717823020068,0.445282176979932,59.25655937994721,53.09064816834488,0.8527603188150268,0.9566428395878899,1.0035550325842308,1.0512697310362353,0.24081484338555992,-0.03216842335207959,-0.4501227663267104,0.000154032456557819,0.049558413904326734,0.48157478870876425,1.7346010553881064,6.124980545778692,1.305251039884994,1.2307911423370226,1.3437721303699228,1.3805002676091984,1.6968803505193335,1.8438292696502834,2.7140821309346004,0.998500151897711,Stress
84.96724376109012,709.144578313253,93.16273887863534,,,,,,,111.08626619247478,111.76963729806248,0.13137340639369907,0.15664826269517673,713.0,90.4386,0.12684235624123422,120.0,0.8386521761134356,640.8,784.8000000000001,51.80722891566265,79.51807228915662,304.0,909.0,13.833333333333334,335.9375,,,0.03679313913257443,0.03125237961534636,0.010008225529906337,0.07805374427782713,1.1772908042659032,0.47138211591248835,0.40039564923503973,-3.4656597580077313,79.03306846422085,105.59717372384696,0.7484392401533834,26218.691353262802,1.3361138037004343,5.125581121029047,564.359365776739,0.6144578313253012,0.6341463414634146,0.8653846153846154,0.35294117647058826,49.85677672244837,49.41576738604234,50.099948893515325,45.1219512195122,0.5374609766052341,0.4625390233947661,57.94063586077233,53.75068187910862,0.45332284617999186,0.5466771538200081,71.09778945139341,78.0760362312896,0.48353193785807486,0.5164680621419253,64.8537313838814,67.02612638389147,0.9150156875660621,1.0564511082428094,1.0770121374337613,1.122473524135894,-0.08175479922786799,-0.2890687959495164,-0.4569678271455946,5.7069041847745706e-05,0.050450767814552135,0.5067391383240478,1.8123787564307907,6.100884160236523,1.2105122653364957,1.2432651465997662,1.2608252325427374,1.2743639785109246,1.901620974852579,1.906169955119372,2.424595668354733,0.9216924479055795,Stress
83.5139582574388,721.3170731707318,93.79355818370477,,,,,,,116.42949437532496,117.1384758773316,0.13003096928152755,0.1614123645563104,728.5,83.76689999999999,0.11498544955387782,107.0,0.8055824573226228,662.0,790.6,59.756097560975604,81.70731707317073,304.0,917.0,13.666666666666666,414.0625,,,0.06107245947628942,0.0678542988502678,0.020903449633288648,0.14983020795984586,0.9000529150121547,0.4076111240041574,0.4528746223755665,-2.6903925365613923,82.82941063071799,102.23089863540507,0.8102189429647851,26602.142910918097,1.2342342877602448,5.131886732190675,504.70752145743586,0.6097560975609756,0.625,0.88,0.35294117647058826,51.106752591762394,50.488021853373766,51.54393081280464,43.75,0.5440965663711657,0.4559034336288344,61.105953065147425,55.93478345358995,0.47963368319486477,0.5203663168051353,70.80061264478147,73.74571095952685,0.5051847204761163,0.49481527952388377,66.13117362816264,65.44894913184656,0.8163658180694299,1.2921236819674111,1.028074104571758,0.972394245560779,-0.03457101774564286,0.18723305625122055,-0.5430917409749815,0.00010593878575184601,0.07721631123303464,0.4465034119030542,1.8827312474337816,6.162430053398571,1.2788501572535858,1.3796480832562936,1.1434738916374128,1.1661625873581762,1.9579066481104852,1.9090861940908685,2.676997926497965,1.2404979521206017,Stress
83.73806472696123,719.5975609756098,95.59674302991884,,,,,,,118.15573527246902,118.88630189293373,0.13284750840499168,0.16419696463711864,722.0,91.9212,0.12731468144044322,119.25,0.8090740818418269,645.4,793.6,59.756097560975604,78.04878048780488,304.0,912.0,13.666666666666666,414.0625,,,0.05794506987644273,0.08002279020397543,0.012258114041162924,0.1502259741215811,0.7241070916015635,0.3857193818530113,0.5326827845310643,-2.525443807328467,84.06531025868452,104.91399549448721,0.801278321948017,27707.677218136683,1.2480058084797097,5.149570229622469,523.7331030717365,0.6097560975609756,0.625,0.86,0.35294117647058826,50.65116930401905,50.330314517051335,50.770280645642615,41.25,0.5314952030512291,0.46850479694877095,61.28963003640991,57.54324460785992,0.495311641059979,0.5046883589400214,73.83677071428947,74.53239390427981,0.5094603726727964,0.4905396273272035,67.85384093592107,66.58191474080152,0.8361303772524498,2.6827793087762393,1.0848531896813478,1.8704322213229667,-2.112147414984955,-2.276356920021397,-0.20717716918729182,0.005846393065044471,0.5795859283236249,0.5590715148637813,2.0794415416798357,6.113649565593695,1.274295561610962,1.237935944067016,1.275675009055203,1.4218674652495407,1.8690658923209025,1.911970660037414,3.1172518203702637,1.2404979521206017,Stress
84.60695136590394,712.2168674698795,96.45585976367902,,,,,,,111.82930154001154,112.51372494818732,0.1354304625027127,0.15701580045033256,717.0,97.85159999999999,0.136473640167364,126.5,0.86252760623,636.6,791.6,56.62650602409639,69.87951807228916,304.0,912.0,11.857142857142858,296.875,,,0.04840138446049648,0.10995878807322526,0.010214887585622355,0.16857506011934412,0.44017750021275576,0.28712067150520554,0.6522838431460681,-2.2076496372697902,79.55921788742128,111.00946197237134,0.7166886180136828,27745.999593383167,1.3953060992813318,5.150170485537294,619.5687174719551,0.6024096385542169,0.6172839506172839,0.84,0.2777777777777778,50.575241601472634,50.01978869512478,50.8990524753935,45.67901234567901,0.5451668738877106,0.4548331261122895,58.74484479614749,53.6575791707857,0.4368048551826012,0.5631951448173989,73.36750093662828,83.30852569640884,0.47357826995927865,0.5264217300407213,66.45956283263384,70.0694164959947,0.8129358971359948,2.8927833148631183,1.2404552807230496,1.820291461628349,-1.1850280641678133,-0.9521025604607591,-0.29955768621655776,0.009946670779075165,0.7832275201740885,0.621900432379721,1.461517782357478,6.17317331686303,1.2257148383259688,1.5227076368181398,1.2777806518419574,1.4410206636098062,1.6457793436123067,1.8651759591995252,2.5486564248071963,1.0753078558898426,Stress
85.67175932259244,703.5952380952381,92.16186899978206,,,,,,,112.40374731137105,113.08639383828988,0.13098705620760198,0.15975626500211784,714.5,94.8864,0.13280111966410077,126.0,0.8199181184278785,634.2,788.4,57.14285714285714,70.23809523809523,304.0,912.0,12.0,296.875,,,0.036771191349593016,0.045625222389882404,0.006841612606801069,0.08923802634627649,0.805939991598752,0.41205742501416626,0.5112755655625966,-3.0872945927925683,79.96415594298738,103.19933551349104,0.7748514614469957,25925.200932806285,1.290569934697614,5.12069224102753,532.7438387779331,0.6428571428571429,0.6585365853658536,0.9074074074074074,0.2631578947368421,49.76289270895081,49.29556083835818,50.03027426333865,51.21951219512195,0.5637778065972965,0.43622219340270363,60.04155065351035,52.814331942537954,0.3626924537589354,0.6373075462410643,62.15071950996282,82.38562322893492,0.43813101811832444,0.5618689818816754,61.105236029673115,69.19806562815396,0.9323944518763356,3.148297088669023,1.3214757550415253,2.2369607160629377,-2.0652772725083413,-2.3122985694995335,-0.20921265203454995,0.012230604658577752,0.98084398845513,0.5814739030420393,1.519825753744413,6.088629625108201,1.2887629081509497,1.0229030766218437,0.9160645467183551,1.127175525662415,1.686053079686579,1.8374904893165336,2.4544779871137767,1.2175842710054783,Stress
86.57741422967086,695.8,91.3753118684014,,,,,,,112.99720814081668,113.6758452405992,0.13132410443863382,0.16239897691982852,689.0,94.8864,0.13771611030478953,124.0,0.8086510575954217,624.4,774.8,61.1764705882353,74.11764705882354,304.0,912.0,12.142857142857142,296.875,,,0.02363424155179501,0.03268825632548253,0.004922337937699864,0.0612448358149774,0.7230193411500707,0.3858977044725012,0.533730818125381,-3.420739399360201,80.38096102674021,102.15466538431804,0.7868555070327669,25796.528896420747,1.2708813639380898,5.118531382492963,519.3058419050451,0.6705882352941176,0.6867469879518072,0.9473684210526315,0.3157894736842105,49.95079432025869,49.486923164334975,50.22952355161681,53.01204819277109,0.563092575309335,0.43690742469066524,60.31748332930281,53.13100426735628,0.35677321566509296,0.6432267843349069,61.01748835749299,81.9294927015003,0.4356674519330513,0.5643325480669487,60.66849545125342,69.04833592775073,0.8892155747973584,3.066376598727026,1.311479304144091,2.1204621444830347,-1.6463418329847723,-1.7418923590592534,-0.23617629332457588,0.013199997863269244,0.9707012358825214,0.6033391934647461,1.4190841839428814,6.141686377288718,1.3009954130138468,1.5841143791641552,1.1223955811205886,1.4489541902992777,1.67850395185905,1.85675343314424,2.9308608839511203,1.2818781872275402,Stress
85.9707778018627,698.8928571428571,78.98894506410876,,,,,,,97.35799049514638,97.94695470477312,0.11302010638229064,0.1393031700068526,685.0,93.40379999999999,0.1363559124087591,116.0,0.8113247270448399,626.8,775.6,59.523809523809526,78.57142857142857,562.0,912.0,12.0,31.25,,,0.0168944400179044,0.01846053846353338,0.002318156213886489,0.03767313469532427,0.9151650723123476,0.4484479498331001,0.49001864625362795,-3.992119881127352,69.25895586831668,87.15603481651067,0.7946547363487491,18963.708734854787,1.2584081542063965,4.984893386295656,438.71145960557453,0.6190476190476191,0.6341463414634146,0.9230769230769231,0.18181818181818182,49.518932340161406,49.595891171622114,49.435432073024565,50.0,0.4693080910410537,0.530691908958946,47.44798178647597,50.45566757306757,0.45543014551206173,0.5445698544879385,58.81774234510684,64.31677534175238,0.46080191134578924,0.5391980886542107,53.43611976081876,57.80320916958395,0.7336089177003075,3.1569475829864686,0.7864834994351888,2.261227849530565,-2.0916358035365015,-2.9899260842105484,-0.03285751146356699,0.017027475394707992,1.2062387034735367,0.39522663852552853,1.4350845252893225,6.216664000133955,1.4374888020964662,0.6719618734461726,1.147619094385199,1.4147961713134913,1.7574618468558227,1.8697887105732411,3.6445360662774546,1.0653862371297935,Stress
86.26574552298028,698.4166666666666,80.87536273296556,,,,,,,99.14368300359874,99.66418931489622,0.11579815687812751,0.14195492137491766,686.0,91.17989999999999,0.13291530612244895,119.5,0.8157389385063487,623.8,775.6,58.333333333333336,77.38095238095238,562.0,954.0,14.0,31.25,,,0.0408891775389258,0.025583957815919475,0.00982816985184451,0.07630130520668979,1.5982350281035382,0.535890931723417,0.33530170613223503,-3.6657897717380723,70.47322410602297,85.98019730457499,0.8196448288712301,19035.85774846708,1.220040638061665,4.986542560696273,419.5973391205661,0.6190476190476191,0.6385542168674698,0.9245283018867925,0.125,52.63989883022448,52.3561228621912,52.974895229868594,50.602409638554214,0.5604807770093867,0.4395192229906136,52.803478266807105,46.75963445787559,0.44816300059543834,0.5518369994045618,57.5594236981266,63.87101903111605,0.4933422663631947,0.5066577336368053,55.232665034079375,55.97307605763388,0.7631694057951217,3.0057949104212662,1.1950977673349743,2.1569485353646827,-1.7867660942035055,-2.575988639915942,-0.18000119878607956,0.014439297253872344,1.0511029209138747,0.36711399165142167,1.0986122886681098,6.192854476324431,1.3518761654561873,1.3296613488547582,1.1487799625336477,1.4504736764094184,1.756822344736452,1.8643414882881042,2.990637266975022,1.2175842710054783,Stress
85.94520011583117,699.964705882353,77.53423929661865,,,,,,,95.76639484157468,96.33172853205535,0.11076878397587417,0.13681603377538107,696.0,90.4386,0.1299405172413793,119.0,0.8096184410500438,628.4,774.8,61.1764705882353,82.35294117647058,562.0,857.0,14.166666666666666,93.75,,,0.056972721064017864,0.07977411488114496,0.03339368935716062,0.17014052530232343,0.7141755336164022,0.33485685413738314,0.4688719206631929,-2.5285562020702943,68.11681848843794,85.86293890328022,0.793320370330763,18374.265073192095,1.2605247985540382,4.971180087321272,432.92945505726,0.6470588235294118,0.6666666666666666,0.9464285714285714,0.125,50.88720876407962,50.98719028701718,50.788140087482944,48.80952380952381,0.4894798807343381,0.5105201192656621,47.661330338530774,48.674911278314696,0.46971571524786104,0.5302842847521391,58.84686004152633,62.52592534590308,0.477350800011082,0.5226491999889181,53.54696698406708,56.03007374755656,0.8183675511979283,3.477424454907212,1.223093388687618,2.2677869324543325,-2.3835128082176613,-2.651603882097788,-0.19957836401234208,0.015884888210430676,1.2211726971947132,0.4209052950719627,1.4586150226995165,6.291743877314172,1.4361012992880309,1.0894271274693448,0.8700351641541978,0.8947196397249019,1.6794854659038052,1.8589268383110762,3.5372714099839073,1.1310689887301828,Stress
86.69489588701748,694.0235294117647,74.2534232769597,,,,,,,104.87708224847019,105.50492411824028,0.10698977791126889,0.1511145916585294,686.0,84.5082,0.12318979591836735,113.0,0.7080042816317271,628.2,760.0,69.41176470588235,89.41176470588236,562.0,857.0,14.166666666666666,93.75,,,0.05594443271947767,0.08193497871395511,0.040868878454425626,0.1787482898878584,0.6827905931944698,0.3129788416693419,0.4583818886623127,-2.5018292887758293,74.60324729257982,74.66291960134187,0.9992007771852391,17498.973473254817,1.000799862082786,4.9499826827636895,298.8905585588843,0.6823529411764706,0.7023809523809524,0.9491525423728814,0.18181818181818182,49.627219737020454,49.65939505437429,49.59678281648665,46.42857142857143,0.46847228099873034,0.5315277190012695,51.063213835685225,54.39126435884918,0.5778184605206502,0.42218153947934967,56.75454873800616,48.5126041451263,0.5231880186920349,0.4768119813079652,53.983935618309786,51.53582443066155,0.6896319593625088,1.5022287995938677,0.8468521219233229,1.3249281219005373,-1.3350411066110581,-2.083051111187428,-0.18175553543743553,0.0006327149650228624,0.14349281468205458,0.3818489515730441,2.6026896854443837,6.165215789053424,1.5788949641442453,1.4734255637226994,1.2817143367794612,1.4820675427255636,1.8035448705206247,1.9962474760462854,6.894192618936052,1.0556643894815037,Stress
87.52702824001548,686.9418604651163,73.83245813424477,,,,,,,102.06508880582614,102.67024803677438,0.10747992280489954,0.14857893321091198,672.0,72.64739999999999,0.10810624999999999,110.25,0.7233860176686607,624.0,753.0,66.27906976744185,89.53488372093024,531.0,857.0,14.333333333333334,93.75,,,0.03383969224698178,0.04808808183862756,0.027144656158408987,0.10907243024401832,0.7037022678621271,0.31024973195586786,0.4408820976212252,-3.0347209113953775,72.59882861290798,74.83493694201155,0.9701194599677916,17068.049084010934,1.0308008871744523,4.93915399308769,308.55967756587876,0.6395348837209303,0.6588235294117647,0.9285714285714286,0.125,49.79835905993603,49.87778554871705,49.720879463252636,44.70588235294118,0.4489225483896106,0.5510774516103895,48.64270855162257,53.89374466750027,0.6141627275243987,0.3858372724756012,58.64704373624882,46.48432045446467,0.5340477762505048,0.46595222374949546,53.877587335735335,50.325578796468285,0.731839333045657,1.3046539170682905,0.8207801807039119,1.384166291579802,-1.4196834425745966,-2.405920939515722,-0.06817198530175374,0.0008306431564108892,0.12846588986535937,0.46693065569891257,2.9444389791664403,6.10068335935326,1.579818550543477,1.665615636737046,1.1384692229001352,1.4292569253515555,1.9053372755791014,2.0226109547929565,4.085126415528485,1.3450321579609041,Stress
89.3527073122968,673.6321839080459,76.58877125521985,,,,,,,108.58599635611934,109.21542925026715,0.11369523767539377,0.16119478693277792,666.0,80.0604,0.12021081081081081,109.0,0.7053282543362113,610.4,745.0,66.66666666666666,83.9080459770115,515.0,855.0,14.5,125.0,,,0.01180764957706234,0.02563830590966431,0.019683735613336265,0.05712969110006291,0.4605471835255492,0.20668148820166363,0.4487737534718803,-3.6636677212785083,77.2269706330635,76.29634112424164,1.0121975640654435,18510.688958023475,0.9879494236120738,4.974392693225746,301.50770494961876,0.6781609195402298,0.6976744186046512,0.9166666666666666,0.19047619047619047,49.258805929552565,49.29938838270982,49.226025779763496,45.348837209302324,0.44765630624278224,0.5523436937572175,51.673864141305685,57.398862460546255,0.6205434356971418,0.37945656430285835,60.10212180525401,46.998581079145985,0.5330460120217938,0.4669539879782061,56.046647004025616,52.45710645478726,0.6365715925934047,1.8621388034429045,0.791121064343785,1.5243376921166274,-1.9149479906528981,-2.8124782855035364,-0.10625028251535294,0.0021944205934265257,0.2818422195324977,0.4544369848460832,2.2772672850097555,6.22737007628363,1.479567455159542,1.0374379363480613,1.1687906394520315,1.3182498896409367,1.9279746728863663,2.0051290626517986,5.615450383021456,1.1108523268704704,Stress
89.86758198418727,670.2840909090909,74.22812752862242,,,,,,,107.95800588415274,108.58378017100716,0.11074129393097862,0.16106305870654306,659.5,71.1648,0.10790720242608036,91.5,0.6875648259775651,612.8,736.4000000000001,65.9090909090909,82.95454545454545,515.0,887.0,12.571428571428571,140.625,,,0.026782628345893865,0.04545738321674267,0.04037875950618834,0.11261877106882488,0.5891810405846107,0.23781673420611343,0.40363948909513697,-3.0909800245386965,76.78032728578854,69.9621542019879,1.0974551621740503,16875.746969875236,0.9111989577952393,4.934233115033168,254.9977679758448,0.6818181818181818,0.7011494252873564,0.9508196721311475,0.16666666666666666,50.07451564828613,50.122962580418275,50.030818913979466,44.827586206896555,0.46020085228589547,0.5397991477141044,52.08635495111002,56.411331947517624,0.6987616061133923,0.30123839388660756,58.482737146190956,38.3988603538213,0.5684206523966115,0.43157934760338834,55.376975884402924,48.25303538931666,0.4327935693948239,2.1182541716396828,0.42578414863803427,1.4013626147818747,-2.0477542571470195,-2.8666381762814384,-0.039442207075333274,0.0020116533557913174,0.33565438642236883,0.4664983451161664,2.3978952727983702,6.078638720860856,1.4849467451924814,1.1113131406184393,1.4786309948584409,1.6687834395849073,1.8860285507320047,1.9782399783540716,3.821210639462043,1.1010394804495394,Stress
89.01511052872264,676.0795454545455,113.47116921698293,,,,,,,143.31967323306378,144.1406366093887,0.16783700968307416,0.21198640632842444,659.5,68.9409,0.10453510235026535,85.5,0.7917347748376333,607.0,723.6,63.63636363636363,82.95454545454545,515.0,1456.0,11.0,140.625,,,0.007836170302491932,0.015293802571003708,0.0168336517418405,0.039963624615336146,0.5123755368301225,0.1960825720368913,0.38269307947444464,-4.180307593361712,101.92282159104468,124.23772116631393,0.8203854725780356,39780.916769895135,1.2189391858165544,5.306644897385674,605.7529067446832,0.6818181818181818,0.7011494252873564,0.9672131147540983,0.16666666666666666,49.16091954022987,49.192867021352754,49.272621672193395,45.97701149425287,0.5036742610348143,0.4963257389651857,72.33959802114236,71.80994781122712,0.453991815460489,0.5460081845395109,83.71002824782408,91.80219241035184,0.4739798526251769,0.5260201473748232,78.23166325443928,82.41453493164425,0.08838361553028053,2.8224299051661097,0.5583436829894313,0.283074381065044,-0.9591023437904216,0.7874851707922677,-0.5975291898022129,0.0014020799891357658,0.40323700699147585,0.8460248033776749,2.1400661634962708,6.047333181063542,1.1388419481745202,0.9707043716639424,1.510321906071696,1.728955399051017,1.6780833739655248,2.039058642724269,2.4037924661607213,1.1010394804495394,Stress
87.89830398074106,684.6744186046511,112.18099260837006,,,,,,,134.53064378663717,135.32901912511946,0.16384574851940875,0.19648849165535812,672.5,72.64739999999999,0.10802587360594794,95.75,0.8338694400830104,614.0,740.0,54.65116279069767,76.74418604651163,515.0,1455.0,12.285714285714286,195.3125,,,0.004940622897078317,0.006657292656425859,0.006036356688659984,0.01763427224216416,0.742136954473445,0.2801716356212941,0.37752012473234026,-5.012042385120798,95.69206711469594,127.7141317152331,0.7492676482197176,38394.124072328435,1.3346365646188383,5.291234873958828,681.807800022786,0.627906976744186,0.6470588235294118,0.9272727272727272,0.11538461538461539,50.054054054054056,50.06284215445766,50.16608552639815,47.05882352941176,0.5105033112927173,0.4894966887072827,68.37153403768754,66.95005245561441,0.4564689452955463,0.5435310547044537,86.28684177843238,94.1566799312703,0.47589700478849567,0.5241029952115045,77.84627714529093,81.69391011418539,0.7783644086960938,1.5052181043566977,1.0104955711075099,1.2370629407988472,-0.15288661380726598,-0.3272624701599236,-0.34947871073596476,0.001721030832724713,0.1768364830782338,0.7919208413921268,1.7090677533829417,6.106383650000622,1.0357689433451986,0.9091898456449189,1.3613726186890958,1.6878387816157931,1.672875040342353,1.9393217240822846,2.0272868817991676,1.0461361228584811,Stress
87.01102129740387,692.435294117647,112.22282755843433,,,,,,,137.34324397896924,138.16335214547937,0.16206976812387514,0.19834812746508293,678.0,71.1648,0.10496283185840707,100.0,0.817097545588908,628.0,746.2,52.94117647058824,74.11764705882354,515.0,1455.0,12.142857142857142,164.0625,,,0.034723770398491643,0.051728511262181996,0.003676557725334857,0.0901288393860085,0.6712694711528981,0.3852681409751086,0.5739396137193826,-2.961746174383698,97.69624321353336,126.03800686236754,0.7751331970856763,38683.81192994151,1.290100854614112,5.294499373164101,650.4069614679987,0.6352941176470588,0.6547619047619048,0.9454545454545454,0.11538461538461539,50.6425702811245,50.70111804008718,50.677358968255646,46.42857142857143,0.50996777544547,0.4900322245545299,69.76928415892048,68.39198677785056,0.45175161379090534,0.5482483862090948,84.71325768605884,93.32332584115078,0.47360251799704517,0.5263974820029547,77.60183322522992,81.81291768869781,0.998055666863679,2.3708457026724887,0.998055666863679,1.8019684140287555,-1.2730223253925637,-1.1277827952024846,-0.1609173063186348,0.007018262836705604,0.4950716759157825,0.7562238509410606,1.5432981099295553,6.109275936086795,1.0272665611097862,0.8970554520484573,1.4071454254628841,1.6137052854945686,1.6365220913492304,1.9327052581181003,1.9890987783563978,1.0556643894815037,Stress
85.96685048372612,701.0357142857143,114.11106895704637,,,,,,,144.05968475282853,144.9314205469919,0.16277497227557686,0.2054955001823424,692.5,81.54299999999999,0.11775162454873644,109.0,0.7921096672732089,630.2,757.8,59.523809523809526,75.0,515.0,1455.0,14.0,195.3125,,,0.053313277171021405,0.08933228318886534,0.0054816452193173024,0.14812720557920403,0.5967974316553295,0.35991549940172635,0.603078164065541,-2.415392342557007,102.48199027577729,125.7311370994508,0.8150883913084799,40479.97793618165,1.2268608051142493,5.314210377079177,617.0184163590491,0.6666666666666666,0.6867469879518072,0.9649122807017544,0.12,50.54945054945055,50.59379377893245,50.59168720283312,46.98795180722892,0.5062481313660548,0.493751868633945,72.9190998432593,72.01350652447927,0.45082863057492384,0.549171369425076,84.42062978129411,93.17443911100602,0.4729512649480904,0.5270487350519095,78.8797751474405,83.26890543774965,0.66847010606682,2.035004979801183,0.9212092767700705,1.2152959856496963,-1.0490873545950592,-0.9176903695074767,-0.355486000379047,0.0011734110971116914,0.23940579139584348,0.6328513275290142,1.498212277323876,6.049997333467289,1.07539956920388,0.8846851157666771,1.2808384880627628,1.6921251726700597,1.7385375854348553,1.9661807585774542,2.0965231154008963,1.0653862371297935,Stress
86.68716094259202,694.2352941176471,114.21092090418287,,,,,,,132.4977088750702,133.29336033052903,0.16451327362913987,0.19085418156890302,681.0,83.0256,0.12191718061674009,107.0,0.8619841193772669,622.0,751.4,51.76470588235295,69.41176470588235,534.0,1455.0,14.166666666666666,171.875,,,0.06476201715640664,0.10387661170922613,0.008237736629720351,0.17687636549535313,0.6234513822773697,0.36614285337126096,0.5872837301824543,-2.264551510073935,94.252638976859,132.05146100446467,0.7137568812939701,39100.88633952828,1.401037280631326,5.299156712063626,740.0360793163551,0.6352941176470588,0.6506024096385542,0.9444444444444444,0.11538461538461539,50.11289867344059,50.13733552217986,50.20425752949418,48.19277108433735,0.5081495978094142,0.4918504021905859,67.18769788427008,66.10137340679888,0.4286728866310247,0.5713271133689752,86.45820571432978,99.81265960824952,0.45549683394211193,0.544503166057888,77.4248283250577,84.6521074289865,0.7093851596681051,3.7531395181100713,1.2310152149511624,2.121421399736331,-2.2998670368855194,-2.2343874060593,-0.26275697173295043,0.01524941816375292,1.3073243932436076,0.686950258987229,1.4733057381095205,6.174096818490641,0.9917371854270729,1.1668701115891806,1.4305316814506188,1.9069935621414835,1.6845244263951362,1.9307263863362987,1.9420329916475325,1.1310689887301828,Stress
89.02642791738548,674.9659090909091,118.69350550783632,,,,,,,123.7349781896219,124.44052608996468,0.1758511117512601,0.18332033740233894,667.0,92.6625,0.13892428785607194,122.0,0.9592558809517904,585.0,745.2,40.909090909090914,59.09090909090909,537.0,1455.0,14.666666666666666,15.625,,,0.01381959954910553,0.0234929989238361,0.005435300804906525,0.04274789927784816,0.5882433142702826,0.3232813724782684,0.5495708402216177,-3.751052820353081,87.99273985263551,143.33513609827173,0.6138951149584633,39623.184481159835,1.6289427552582185,5.304919486439902,933.938926084922,0.6022727272727273,0.6071428571428572,0.9019607843137255,0.08,48.80103694102397,48.51940058705079,49.21908262717863,53.57142857142857,0.5154144144144144,0.4845855855855856,63.17804299184226,61.259455843425165,0.39544957174659473,0.6045504282534051,90.13598684227631,111.44714045806231,0.4282900830296221,0.5717099169703779,77.83303039298315,89.92548594951162,0.7094507583573595,5.14916329423397,1.6664352142353729,2.7392387717709967,-2.5113520625665195,-2.3296663724470257,-0.29165478035296555,0.04085023562138789,2.96386481078492,0.6316574273408708,0.8295590360498222,6.178126078839984,0.775463883426189,0.6892095107475117,0.9914039001969002,1.1612604609660515,1.52223355117226,1.8879901590466006,1.8759458867898264,0.8808315843596315,Stress
92.96390467299847,646.0326086956521,78.6274357350078,,,,,,,76.2381318452436,76.65069430689417,0.12170815323665715,0.11800972709283102,626.5,81.54299999999999,0.13015642458100557,122.75,1.031340010988389,571.0,728.4,32.608695652173914,51.08695652173913,535.0,864.0,13.142857142857142,15.625,,,0.004735648664237579,0.005402248708638049,0.008230755696548495,0.018368653069424125,0.8766069316033905,0.25781142723634914,0.29410151567566273,-5.220939984568222,54.200225727061955,97.43435597392597,0.556274274975105,16590.637980714462,1.7976743577523036,4.926833196780395,700.6209731937467,0.5978260869565217,0.6022727272727273,0.8490566037735849,0.07692307692307693,48.76584389593062,48.83020192756787,48.70869929463633,51.13636363636363,0.4122117920648875,0.5877882079351124,34.80301711058971,41.55919473072916,0.4740728105498315,0.5259271894501686,67.08642402742088,70.66021111818736,0.4594512417898471,0.540548758210153,53.4408003719392,57.96564543733415,0.6472474645807064,3.1411416625264055,1.42311876499851,1.8189897296292785,-0.6091421562318171,-0.7535050710937792,-0.37397226640444764,0.01394296685266406,1.1118753746866639,0.5200136661989854,0.9775343571148738,6.181064401662155,0.8220012464718055,0.9392412675594195,1.2988696527386785,1.4972541146190173,1.715189351373701,1.8311731894039955,3.5673641333265294,0.7799911034415993,Stress
92.85398421648954,647.021978021978,81.71263713254558,,,,,,,80.06018569384743,80.50870487437562,0.12629035783660808,0.12373642382071903,627.0,83.0256,0.13241722488038277,120.5,1.0206401149882063,571.0,730.0,40.65934065934066,60.43956043956044,535.0,864.0,13.0,15.625,,,0.0063097338769618466,0.005496658561848539,0.0062453391238693565,0.018051731562679744,1.1479217429943236,0.34953621236018306,0.30449480941830326,-5.203614905576757,56.928251161217446,101.26003317992988,0.5621986224324174,18109.888670350098,1.7787307903270635,4.964885890480088,720.4573553867253,0.6153846153846154,0.6206896551724138,0.8703703703703703,0.09090909090909091,50.01003814495082,50.10651773394776,49.913290015608,49.42528735632184,0.41963745542733427,0.5803625445726657,36.877796980193374,43.36881290264087,0.5225733674887013,0.4774266325112987,73.20010459320842,69.96669927289587,0.4978522338691863,0.5021477661308139,57.957860651377615,58.2073575234614,0.7115795746283127,3.0363278515870755,1.4212326086314326,2.002123212647264,-0.5846951515766339,-1.1295946174452494,-0.30868646852078163,0.020207285652460303,1.2440620340336463,0.4357839913207253,0.9351592161785378,6.213784887427669,0.9580208634217497,0.7903036176581427,1.1432520309415954,1.2552115632942888,1.7506014067191364,1.8354136542961625,3.5441969095145813,0.8581707217844434,Stress
92.6797094639257,648.021978021978,77.98603550522192,,,,,,,64.07365553277988,64.43245066832468,0.12034473852764448,0.09887574450539205,636.0,96.369,0.15152358490566037,130.5,1.217131047959711,571.0,730.0,32.967032967032964,52.74725274725275,535.0,831.0,13.0,15.625,,,0.006052787250351609,0.002271292164263838,0.0025445874015586536,0.010868666816174101,2.664909140966201,0.5569024566420798,0.20897615159973776,-6.087406374083296,45.560622796040064,100.77772013894983,0.4520902311862404,14424.609139674898,2.2119478170897393,4.866074163971038,891.660232290523,0.5934065934065934,0.5977011494252873,0.8653846153846154,0.04,49.830685074238076,49.927142795741936,49.73568138369829,48.275862068965516,0.4091569708435165,0.5908430291564837,29.143099092565656,35.02086055706374,0.529477562300361,0.470522437699639,73.33111856120975,69.1281124215488,0.5090589374328148,0.4909410625671851,55.79772922869399,54.79578725195758,0.9404796395791374,2.6027364519432585,1.525301146664795,2.012303501424178,-0.4363037723263865,-0.9784549910167901,-0.31288833358607,0.012747850701230495,0.8474825394756229,0.480674155459377,0.9808292530117262,6.279718953361735,0.941637337623624,1.011388599513167,1.2599442170070945,1.4926398696653518,1.7807318216178927,1.7599250041405368,3.2006663299469125,0.7151422681537029,Stress
92.95018999413892,646.1208791208791,72.86789190260461,,,,,,,45.75757375075251,45.977419415728825,0.11277749142196065,0.0708189059189836,641.0,78.5778,0.12258627145085803,108.0,1.592477177647695,571.0,710.0,21.978021978021978,47.25274725274725,535.0,831.0,13.0,15.625,,,0.007152152118378968,0.0025518650021028105,0.0025523444624763036,0.012256361582958083,2.802715704978668,0.5835461095015109,0.20820738559566188,-5.970930813761323,32.51094505031988,97.55982319133012,0.33324112310618703,9964.384358018011,3.0008301216814433,4.705420581269741,1171.0418243938368,0.5604395604395604,0.5632183908045977,0.8571428571428571,0.03571428571428571,52.88935870331218,53.08134865418111,52.69111491964602,47.12643678160919,0.5176503677602182,0.48234963223978167,23.409519815184765,22.597230614849117,0.5343938744780659,0.46560612552193426,71.31842444570846,66.57027441512741,0.5327179652760027,0.46728203472399693,53.07694077184439,49.71034232011504,1.1989523752327977,2.65710276046195,1.205090549979853,2.4674555526898505,-1.1349287540774622,-2.0148323485296173,-0.024909227639156435,0.015205319872459008,0.9450975635988006,0.6092756508799466,1.2425064683281788,6.169828843471625,0.8730280128768723,1.461042978113641,1.2476552412114565,1.485317125731532,1.7381723211450772,1.6955004653969146,2.0311669429677557,0.5721138145229623,Stress
90.87008167236652,660.6111111111111,67.43081255551967,,,,,,,37.54802168669169,37.7563623899245,0.10207338541748835,0.05683831388112442,668.0,63.751799999999996,0.09543682634730538,95.5,1.7958552681730091,601.0,712.6,17.77777777777778,48.888888888888886,535.0,831.0,12.857142857142858,156.25,,,0.0060139615505719925,0.0021688695806388347,0.003468600410747618,0.011651431541958444,2.772855317930457,0.5161564507258075,0.18614618923249304,-6.1335491777424265,26.697779878852334,92.01420899955667,0.29014844738795686,7717.55827960198,3.4465116356900656,4.594450027729009,1268.5121678631583,0.5555555555555556,0.5681818181818182,0.88,0.0,50.999607996863986,51.05215092849416,50.938669504832504,44.31818181818182,0.4618615363771845,0.5381384636228154,18.146030119310094,19.58721753871874,0.535139802699828,0.46486019730017236,67.3113846055636,62.73589212162357,0.5294485856231942,0.4705514143768057,49.29554192119716,46.47284826221157,1.165591703575766,2.6265519349264825,1.1720103111175149,2.4742489886704417,-1.633124486714122,-2.6238871219769906,-0.004202197475536893,0.015054256502177496,0.9150702061878901,0.6196041547330373,1.1252805357502709,6.180741985218566,0.9357641055428708,0.7753652545095322,1.0009600797209381,1.204312549837252,1.640080577558884,1.7201321139595942,2.2702966848536423,0.7213170107032971,Stress
88.11745573237062,681.4022988505748,57.64192994407015,,,,,,,37.935839347202325,38.07538961215823,0.08459309579862526,0.05567318955511963,680.0,51.891,0.07631029411764706,66.0,1.5194584049270838,641.4,728.4,17.24137931034483,51.724137931034484,544.0,831.0,8.7,125.0,,,0.02069213428542229,0.008655636924100336,0.015406988160851787,0.04475475937037442,2.390596378622134,0.4623448897173499,0.19340148502351165,-4.749544502755378,26.923366191076916,75.51250383409437,0.3565418284927912,6387.0174348168,2.8047200078243235,4.512268211626962,847.1657213775817,0.5632183908045977,0.5813953488372093,0.9,0.0,54.27095748907429,54.61551032892277,53.96343068196838,40.69767441860465,0.48811861188542793,0.5118813881145721,18.85111948618312,19.30452552854778,0.6534604923746355,0.3465395076253645,61.04196965058983,44.4524034948684,0.6347403347364926,0.3652596652635074,45.174587793946074,34.2686509973251,1.1707634463230263,1.5388032620110128,1.1985454616614348,1.9401650773285328,-1.437721680498809,-2.4253891036679276,-0.01805429974336101,0.0016886522753185333,0.20368273608463094,0.5799250880965632,1.4271163556401456,6.072085306118955,1.0921957804656175,1.119684391799675,1.010821251832632,1.137556426661952,1.89700390567554,1.774210529367952,1.9510882966489163,0.7405682179136469,Stress
86.00479645675752,697.564705882353,48.59880633915854,,,,,,,39.96590809081923,40.194241159340415,0.06966924491640625,0.05729347794376459,691.0,48.925799999999995,0.07080434153400868,67.0,1.2160065581075192,657.0,737.2,21.176470588235293,56.470588235294116,600.0,831.0,8.5,70.3125,,,0.018909194289884967,0.01223180010035353,0.027499740907506905,0.058640735297745404,1.5459044568050488,0.3224583422065647,0.20858879136230432,-4.403716152840652,28.421620488417044,62.7024700962213,0.45327752550740175,5598.650516723632,2.2061539426217824,4.4550534684380985,553.3252064596122,0.5764705882352941,0.5952380952380952,0.92,0.0,48.47801578354002,48.44274129149982,48.51650741326825,46.42857142857143,0.44133232963904256,0.5586676703609573,18.886790181857105,21.249663356653073,0.5392728176005795,0.46072718239942034,46.04568251406655,42.56048493592751,0.5225716271499868,0.4774283728500132,35.191730005497796,33.63735327543174,1.301811573518842,0.7280308657614416,1.3283845169540394,1.6657740412048438,-0.06325009477403043,-1.0631441643845925,-0.036572499714100024,0.0004448768078659127,0.048673737285067506,0.5262437667577204,1.7047480922384255,6.076865494884872,1.2787487325228373,1.342643957119381,0.9929804860853502,1.1457929417412611,2.0504546817251255,1.8060870041055088,3.121267595245389,0.980259790232825,Stress
87.27334419893711,687.6823529411764,40.74900284047448,,,,,,,33.614587253013774,33.8164254630174,0.05925555987614547,0.048880979872823825,683.0,38.547599999999996,0.056438653001464126,51.0,1.2122416537130338,655.0,715.4,12.941176470588237,52.94117647058824,599.0,830.0,8.5,62.5,,,0.054919660642223436,0.006479263164374273,0.006369061093316897,0.0677679848999146,8.476220096166944,0.8104071667961407,0.09560950017834213,-5.039148484284836,23.91182376038904,52.605773429958084,0.4545475182914366,3951.809345656982,2.1999900115147972,4.303766093922313,462.9287043756732,0.5529411764705883,0.5714285714285714,0.8958333333333334,0.0,49.89154013015183,49.89346154243722,49.88980892667458,47.61904761904761,0.49629668650898184,0.503703313491018,16.84550635443617,16.970740234190888,0.49385850715260715,0.5061414928473931,36.96874263482746,37.42565251487241,0.4942760078446186,0.5057239921553813,28.72680817927271,29.057576380871485,1.3765526943985686,0.8211253317320757,1.6150391606783039,1.7704930246655572,-0.6188012500881079,-1.618801250088108,-0.3106819288361982,0.0008771395139327404,0.06993696203712785,0.6158556854338921,1.7764919970972666,5.9592184360613425,1.33192477917449,1.0156633517722626,0.9805114048588988,1.2976584902795447,2.049619229738102,1.7350441317659988,2.9861856291768167,0.980259790232825,Stress
