PPG_Rate_Mean,HRV_MeanNN,HRV_SDNN,HRV_SDANN1,HRV_SDNNI1,HRV_SDANN2,HRV_SDNNI2,HRV_SDANN5,HRV_SDNNI5,HRV_RMSSD,HRV_SDSD,HRV_CVNN,HRV_CVSD,HRV_MedianNN,HRV_MadNN,HRV_MCVNN,HRV_IQRNN,HRV_SDRMSSD,HRV_Prc20NN,HRV_Prc80NN,HRV_pNN50,HRV_pNN20,HRV_MinNN,HRV_MaxNN,HRV_HTI,HRV_TINN,HRV_ULF,HRV_VLF,HRV_LF,HRV_HF,HRV_VHF,HRV_TP,HRV_LFHF,HRV_LFn,HRV_HFn,HRV_LnHF,HRV_SD1,HRV_SD2,HRV_SD1SD2,HRV_S,HRV_CSI,HRV_CVI,HRV_CSI_Modified,HRV_PIP,HRV_IALS,HRV_PSS,HRV_PAS,HRV_GI,HRV_SI,HRV_AI,HRV_PI,HRV_C1d,HRV_C1a,HRV_SD1d,HRV_SD1a,HRV_C2d,HRV_C2a,HRV_SD2d,HRV_SD2a,HRV_Cd,HRV_Ca,HRV_SDNNd,HRV_SDNNa,HRV_DFA_alpha1,HRV_MFDFA_alpha1_Width,HRV_MFDFA_alpha1_Peak,HRV_MFDFA_alpha1_Mean,HRV_MFDFA_alpha1_Max,HRV_MFDFA_alpha1_Delta,HRV_MFDFA_alpha1_Asymmetry,HRV_MFDFA_alpha1_Fluctuation,HRV_MFDFA_alpha1_Increment,HRV_ApEn,HRV_SampEn,HRV_ShanEn,HRV_FuzzyEn,HRV_MSEn,HRV_CMSEn,HRV_RCMSEn,HRV_CD,HRV_HFD,HRV_KFD,HRV_LZC,Labels
60.24742448453163,997.5084745762712,102.91381946700908,,,,,,,113.10926971982325,114.02012775900698,0.1031708723183786,0.11339178824307294,1012.9999999999999,97.85160000000016,0.09659585389930915,121.0,0.9098619390075742,909.8000000000001,1080.6,52.54237288135594,86.4406779661017,782.0,1246.0,11.8,242.1875,,,0.005579614726911673,0.04645371105698569,0.013578779747492888,0.06561210553139026,0.12011128066963368,0.08503940975102932,0.7080051871641465,-3.069298923329421,80.62440553015034,119.72783021204269,0.6733973662377524,30325.747189288133,1.4850072930741698,5.188781620116629,711.1868041953173,0.7288135593220338,0.7543859649122807,0.9534883720930233,0.4166666666666667,52.528856243441766,52.870823549715794,52.19977540109616,50.877192982456144,0.4651842568072936,0.5348157431927065,55.02654861638679,59.0013380758169,0.4824800567087613,0.5175199432912386,83.16388998991061,86.13083494910383,0.47707895169442827,0.5229210483055717,70.5129550185125,73.82302697589218,0.5461467691778351,1.7957393293669701,0.8319596012468342,0.9098951494914039,-0.6719203165003407,-0.3507379620542441,-0.45659974308629564,0.000255361637667768,0.15692851338682498,0.36391433025736264,1.4213856809311607,5.814846439192349,1.1523194707153677,0.6299994923998176,0.9213587938586364,0.9976223120664994,2.00194570252294,1.9208744709724581,2.4065952445971424,0.9970581439596342,Relax
58.2630710634705,1031.107142857143,83.76779128724152,,,,,,,109.46290363738427,110.36310745994555,0.08124062748234431,0.10616055217508086,1024.0,79.31909999999999,0.07746005859374999,98.75,0.7652619152579537,967.0,1096.0,55.35714285714286,89.28571428571429,806.0,1246.0,11.2,195.3125,,,0.00498570045717975,0.04580882988504292,0.016975317631147707,0.06776984797337038,0.1088371056342488,0.07356812219999137,0.6759470657665211,-3.08327841419419,78.03850167774715,86.39111790297225,0.9033162618105474,21180.094279323916,1.107031991205014,5.032897998920179,382.55092509821804,0.7321428571428571,0.7592592592592592,0.9512195121951219,0.36363636363636365,53.00607971177661,53.26404421517429,52.755600803398195,50.0,0.4627771362498996,0.5372228637501004,53.14010133948157,57.25503374279757,0.5536507596438985,0.4463492403561016,64.2816541526901,57.71736473470693,0.5127739494767852,0.48722605052321466,58.97457685722056,57.4866640222238,0.3572829779991946,2.06575950247348,0.7523868449970861,0.7151711459743788,-0.4423330780888275,0.1787958933788426,-0.5180155042143804,0.0006263617442696094,0.23701866829688845,0.35004573829684515,1.5686159179138452,5.700212064914747,1.3216854463630854,0.840093846785475,1.0593512767826485,1.0871134767536177,1.8733550598784499,1.9908148734650002,2.5404578560443563,0.9333248981878292,Relax
58.022821124093404,1033.2105263157894,87.2798734863283,,,,,,,110.40299555977379,111.35901925228676,0.08447443310275778,0.1068543077599563,1030.0,71.1648,0.06909203883495145,83.0,0.7905571134532641,977.2,1094.4,59.64912280701754,87.71929824561403,741.0,1246.0,11.4,265.625,,,0.007529874293042239,0.06038669726307763,0.013236235709875753,0.08115280726599562,0.12469425609150256,0.09278636866327336,0.744111008571119,-2.8069864422874176,78.74271765957525,86.3973604695415,0.9114018904239,21372.766782548308,1.0972108029476353,5.036830856768553,379.1844690133676,0.7719298245614035,0.8,0.9545454545454546,0.6666666666666666,48.12227074235807,47.792676715976945,48.37366715046845,47.27272727272727,0.3849838991816272,0.6150161008183729,48.87646765989837,61.776282592181694,0.5055947006930214,0.4944052993069784,61.433001010633866,60.74940561792645,0.4508447698461514,0.5491552301538488,55.51091200872867,61.26499560858731,0.4557873640845284,1.8044877398791361,0.774561262077726,0.710409176349821,-0.3862731805757704,0.1829040640796089,-0.5355514112454995,0.00031839917187772177,0.16150444325674443,0.44070608681534873,1.7346010553881064,5.69253913697176,1.2358377333638522,0.8482072829979097,1.1634077423416398,1.2658978798089953,1.8528578417412294,1.9631267394471148,2.866978125331709,1.0233140375727616,Relax
58.577160978913625,1025.8245614035088,85.21949031073851,,,,,,,90.66057183646201,91.47158915956706,0.08307413715474235,0.0883782424866318,1030.0,68.19959999999999,0.06621320388349514,79.0,0.9399840369908719,962.8000000000001,1090.8,57.89473684210527,82.45614035087719,800.0,1187.0,9.5,203.125,,,0.011763267523935833,0.025059135482229062,0.006467279770565795,0.04328968277673069,0.4694203250657978,0.27173374276281115,0.5788708503934565,-3.686516828025121,64.68018098063975,102.06261685720318,0.6337303801560803,20738.999372045768,1.5779581211708862,5.023757908413924,644.2021405511053,0.7192982456140351,0.7454545454545454,0.926829268292683,0.4166666666666667,49.10385465259023,49.07628815280502,49.13445100965369,47.27272727272727,0.4534688441676101,0.54653115583239,43.560198680572036,47.821543262425145,0.4169170809255138,0.5830829190744861,65.90093001043857,77.9348778372016,0.42739205517520956,0.5726079448247904,55.85885554382417,64.65580091337334,0.7448086117685611,0.821321702016403,0.8565286153814223,1.0916742781273394,-0.142006460338588,-1.0137884173252059,-0.21369846654652153,0.00019566338368100008,0.045052435465698676,0.39029538277462583,1.475906519809578,5.69253913697176,1.3373648945050027,0.9818291602807921,1.04733625829906,1.297637466339349,1.801963398728876,1.8952468916417122,3.9599277789964065,1.1256454413300379,Relax
58.744702238123665,1022.4561403508771,86.17674325300437,,,,,,,90.1256067940738,90.93622533359343,0.08428404882328842,0.08814618372103993,1030.0,72.64739999999999,0.0705314563106796,103.0,0.9561848881628935,955.6,1085.4,57.89473684210527,82.45614035087719,800.0,1187.0,11.4,226.5625,,,0.006839106941631912,0.017817364791600263,0.0048922555537357325,0.029548727286967908,0.3838450310483686,0.23145182786428212,0.6029824776736962,-4.027581747133934,64.30162158889182,104.56153271340574,0.6149644130135037,21122.42315153807,1.626110355068695,5.031713848680401,680.1143643484927,0.7368421052631579,0.7636363636363637,0.9285714285714286,0.45454545454545453,50.65805810777253,50.66161359819807,50.6515614441053,45.45454545454545,0.45704348743698714,0.5429565125630129,43.47350290171537,47.383637375248966,0.42351637488640786,0.5764836251135922,68.04669617073156,79.38993175223649,0.4327171526868642,0.5672828473131359,57.09771586629936,65.37572314909357,0.8167448310081272,0.9432843791611445,1.0128779130838839,1.1369347631554203,0.18211569493016988,-0.5121052488486559,-0.3684841466559011,0.0003455113808107188,0.0653271174610144,0.3905710195837062,2.0794415416798357,5.727626856270007,1.3273526153289614,0.9878109296453568,0.8958797346140276,1.0789817827253791,1.9039049716948602,1.854542497747282,3.5427548548929355,1.1256454413300379,Relax
60.24211180351972,998.6101694915254,98.15382314635859,,,,,,,120.05695487473062,121.09516513867804,0.09829043018492069,0.12022404592160471,1006.9999999999999,78.57780000000017,0.07803157894736859,106.5,0.8175604924243988,930.4,1073.0,61.016949152542374,83.05084745762711,737.0,1187.0,14.75,250.0,,,0.015803936399036825,0.03036068332860982,0.005238751983956007,0.05140337171160265,0.5205395487309168,0.30744941183439134,0.5906360286820811,-3.494606819178031,85.62721243846404,110.25890514851534,0.776601330505929,29660.28736202398,1.2876619711023858,5.17914546431217,567.9047965405131,0.711864406779661,0.7368421052631579,0.9285714285714286,0.3076923076923077,49.14841849148419,49.198307251164394,49.09700991469901,49.122807017543856,0.47841070439585015,0.5215892956041498,59.23103738306197,61.84622979900131,0.4307790525043442,0.5692209474956558,72.36706579954081,83.1867414442604,0.4487005770544476,0.5512994229455525,66.12604631273804,73.29730585930533,0.6467187244398972,1.5205403248650273,0.9327982422878303,1.2660187850872398,-0.6691679259499992,-1.3899024014332553,-0.2808538600717555,0.001034942480462967,0.17507257300024148,0.3159131555784005,2.833213344056216,5.780948134107604,1.325779567928076,1.1106628141225792,0.9515421046459682,0.9829564081810815,2.1365599816337384,1.9334232185561882,3.095531307439265,0.9970581439596342,Relax
61.27957261806869,980.9666666666667,94.95546978946422,,,,,,,128.389040664349,129.48092882459997,0.09679785564184738,0.13088012572396174,1001.5,79.31909999999999,0.07920029955067398,116.75,0.7395917073460258,901.4,1055.2,55.00000000000001,76.66666666666667,779.0,1168.0,15.0,250.0,,,0.022455027317360675,0.0398291202333076,0.010158067572057408,0.07244221512272568,0.5637841656010865,0.30997157222924787,0.5498053885546205,-3.223156970074015,91.55684280620733,99.21083259654809,0.9228512694630175,28536.438857165664,1.0835982276774385,5.162369885286336,430.01872947209023,0.7,0.7241379310344828,0.9047619047619048,0.3,49.12183398040304,49.19614754082435,49.05204543368971,51.724137931034484,0.47597684827683345,0.5240231517231665,63.17101856236684,66.28270175335446,0.49493862170285247,0.5050613782971476,69.79668023682036,70.50682755889204,0.48621655656412566,0.5137834434358745,66.56633592998733,68.42736763950326,0.8086338619608826,1.417807664188907,1.0910858993738002,1.4064824022883937,-0.09706952816384629,-0.8763450713315684,-0.2775463408183618,0.002125949022250949,0.2068736226641814,0.2890681446434118,2.70805020110221,5.873557262275184,1.2677204710585246,0.0,1.0793720283840775,1.1968729356955115,2.3255801065829598,1.8578123325744258,3.6175165659420547,1.0829299425282284,Relax
62.107000275787584,967.5,90.2535975150397,,,,,,,127.11625534478804,128.1950748130056,0.09328537210856816,0.13138631043388946,974.0,82.2843,0.08448080082135524,108.0,0.7100083090886946,901.4,1046.4,48.333333333333336,73.33333333333333,779.0,1170.0,15.0,164.0625,,,0.0387994268430024,0.07849653504175833,0.03282343674967661,0.15011939863443735,0.49428203196946224,0.25845711610852284,0.5228940147362889,-2.5447007947633904,90.64760671499302,86.40728486562466,1.049073661508548,24606.881268170844,0.9532219106159037,5.098026683686811,329.4612686829736,0.7,0.7241379310344828,0.9285714285714286,0.16666666666666666,51.01167315175098,50.88918026559258,51.154002063723425,51.724137931034484,0.511052557601898,0.48894744239810184,64.8083381182944,63.39123185316774,0.4675334930519606,0.5324665069480395,59.08220875907848,63.05165728192939,0.4903367618554799,0.5096632381445201,62.01140250593636,63.22167255720125,0.9056658334034574,1.552709367625258,1.2763729718044843,1.4565493259257922,0.050233517183599474,-0.4945066916029184,-0.38396002633971815,0.0019172595901234487,0.22570791656030906,0.34502201119750353,2.03688192726104,5.806890595608518,1.2221214361137465,0.0,0.9571603491222738,1.1086943000148528,2.091752922383152,1.8337395574781044,3.420146613059596,1.1813781191217037,Relax
62.53332433376032,962.0491803278688,88.87039743910009,,,,,,,135.62183944090026,136.7663220100555,0.09237614797282279,0.14097183617440429,974.0,83.0256,0.08524188911704311,109.0,0.6552808736813146,891.0,1030.0,52.459016393442624,77.04918032786885,779.0,1142.0,15.25,195.3125,,,0.02616430473236539,0.06245775620519638,0.014831984738384398,0.10345404567594617,0.41891201865155325,0.2529075065302041,0.6037246373219242,-2.7732648514805076,96.70839373125321,78.64370325809239,1.2297029479127686,23893.40246496791,0.8132045236594302,5.085248108457748,255.81366098724237,0.7049180327868853,0.728813559322034,0.9069767441860465,0.2727272727272727,49.95672494374242,49.99431798657663,49.918000417627866,52.54237288135594,0.48312925823466357,0.5168707417653364,67.21959964378831,69.5272779050162,0.4941982808041114,0.5058017191958887,55.285923815878675,55.93119603559136,0.4875354182323802,0.5124645817676198,61.54270041380345,63.09651758557324,0.6427296925338258,1.8786413076180906,1.0429299631560125,1.3993709083450174,-0.3754346761610421,-1.0133656670924087,-0.3102666305996791,0.003211575367787557,0.3462470369078755,0.3785393260160599,2.120263536200091,5.799589796579279,1.2768243359279308,1.1968729356955115,0.8432566261738648,1.0165434213138511,2.1488497138569196,1.8678222834121956,3.5921131501034202,1.36115283157181,Relax
63.20501026691189,952.2786885245902,95.15060538387569,,,,,,,138.00712541990964,139.16493892496305,0.0999188646459126,0.1449230430996314,966.0,105.26459999999999,0.10896956521739129,142.0,0.6894615411658213,856.0,1037.0,50.81967213114754,80.32786885245902,768.0,1142.0,15.25,289.0625,,,0.02392943819410656,0.06706875503323581,0.021069430239339354,0.11206762346668173,0.35678965834759224,0.21352677476221227,0.598466827068709,-2.702036991242923,98.4044720172531,92.42032757544492,1.064749223453284,28571.445416785038,0.9391882876953093,5.162902321666027,347.2003568152867,0.6885245901639344,0.7118644067796611,0.9047619047619048,0.25,50.69280162216966,50.66218749245439,50.71761316371074,55.932203389830505,0.5081793345572728,0.4918206654427272,70.15273893199763,69.01436843764823,0.4259847712915679,0.574015228708432,60.32044548963309,70.02114541397296,0.46965909719681004,0.5303409028031899,65.42156725319569,69.51957945763266,0.6324167771717197,1.1647753823467366,0.6273724224476918,1.143132995378356,0.010037876046098404,-0.8466191780204375,-0.05720168819885837,0.0013108701606864193,0.13508239470307162,0.37188442479209405,2.9957322735539913,5.897950452316984,1.1831374224621567,1.133732460554052,1.1968729356955117,1.2168836126138958,2.3489531157817325,1.866542146720354,5.596419625090839,0.972252022551293,Relax
63.868533565609305,941.758064516129,88.92134772616973,,,,,,,130.30871289264468,131.38753215795393,0.09442058536749257,0.13836750414194404,946.0,91.1798999999999,0.09638467230443964,118.75,0.6823898859274891,856.4,1007.8,50.0,80.64516129032258,779.0,1142.0,15.5,210.9375,,,0.0192528300455247,0.046781316404992154,0.015256233909622545,0.08129038036013941,0.41154955706783364,0.236840201266487,0.575484038796936,-3.0622713778844526,92.90501495225479,86.11033873559242,1.0789066251095107,25132.999806216285,0.9268642686279718,5.107214437851388,319.25038453388714,0.6451612903225806,0.6666666666666666,0.9,0.13333333333333333,50.4395218002813,50.46819315240947,50.40481613359679,56.666666666666664,0.4949565650578006,0.5050434349421993,65.3628972226089,66.02556323122128,0.42216917343146204,0.577830826568538,55.94980235762577,65.4569328131183,0.4613223165789978,0.5386776834210022,60.83867485896911,65.74186281700985,0.6579167457667894,1.3291754448537751,0.8893009790299908,1.213901267960686,-0.49077995567669497,-1.2778167676955252,-0.25578822932106976,0.0008024029550794194,0.13589396102701684,0.3710068599510352,2.3978952727983707,5.857422116838488,1.2597119512770723,1.0474136855066063,1.106048193531495,1.3144721664925096,2.3165685136940297,1.9004478803614382,5.123874178466758,1.1524250923329433,Relax
63.22113995492419,949.6612903225806,72.97808868294626,,,,,,,88.75154120111814,89.4706014542775,0.07684643927958472,0.0934559954222953,950.5,71.9061,0.07565081536033666,92.25,0.8222740438678359,885.4,1005.2,45.16129032258064,83.87096774193549,792.0,1127.0,12.4,195.3125,,,0.014060537040157028,0.054944280839014,0.009009819397277205,0.07801463727644824,0.25590537951264136,0.18022947399387257,0.7042816932458017,-2.901435682911942,63.2652690051586,80.27396225672084,0.7881169338923693,15954.74736009003,1.2688472446102357,4.909860041588312,407.42158329354515,0.5806451612903226,0.6,0.8888888888888888,0.05555555555555555,51.32919254658387,51.212340854610815,51.44857344460608,55.00000000000001,0.5343287123272846,0.4656712876727155,46.25454932580506,43.180724866542015,0.4111450853703978,0.5888549146296019,51.47214317146857,61.59973614983495,0.4583537348173974,0.5416462651826028,48.9329380683272,53.1935263623746,0.7329697090604405,1.2125387590226477,0.9228359950060365,1.1983896284076963,-0.4676766148466118,-1.186771319153888,-0.27274653585196196,0.0003949974471930582,0.09583403838385866,0.3395277633788294,1.9459101490553132,5.825164052322358,1.3679419888876585,1.0438997104319372,0.6597643324038146,0.833051127543801,2.169496061064392,1.900157464155279,3.775918432409168,1.2484605166940221,Relax
63.801467642398286,941.9047619047619,70.74162763312935,,,,,,,97.62461019706573,98.41230489976759,0.07510486250231124,0.10364594611417495,947.0,75.6126,0.07984435058078142,93.5,0.7246290406725292,878.4,1000.4,53.96825396825397,88.88888888888889,792.0,1124.0,12.6,195.3125,,,0.01962475398037331,0.05391485240010678,0.005821274583939279,0.07936088096441936,0.363995320523857,0.2472849814907154,0.6793630784451468,-2.920349284292454,69.58800814682375,72.25464052735055,0.9630939637777675,15796.105405158276,1.0383202860886673,4.905520133021098,300.0938360943697,0.6190476190476191,0.639344262295082,0.9230769230769231,0.10526315789473684,50.89536138079828,50.86778922326349,50.91570244877608,52.459016393442624,0.49545689166433976,0.5045431083356602,48.98669943271821,49.43384385249427,0.469500334663239,0.5304996653367611,49.50894795069672,52.62696220144052,0.48199202264884344,0.5180079773511566,49.248515959855446,51.055372237329905,0.711600247273382,0.7195077732628257,0.8954561788206528,0.8944478061363966,0.5740639599490436,-0.06798945644841448,-0.5014014757334495,0.00024381643747488458,0.03999916619248504,0.31598591245483476,1.6094379124341007,5.774821391719543,1.465758128616462,1.0357680164036986,0.7489330683884978,0.8888370153723535,2.3661622638058906,1.9658673052934363,4.582249526949762,1.328284427444426,Relax
64.49131986451985,932.6984126984127,74.76514517423011,,,,,,,105.34704552098269,106.20703069283148,0.08016004332839512,0.11294867031691473,947.0,84.5082,0.08923780359028512,108.0,0.7097032935711389,860.0,1002.5999999999999,61.904761904761905,88.88888888888889,781.0,1077.0,12.6,171.875,,,0.024100863937048786,0.07188970419256678,0.03213104758596452,0.1281216157155801,0.3352477828047699,0.18810927260354574,0.5611051951776527,-2.632622220717777,75.09971161258892,72.39313683794508,1.0373871736032467,17079.908401340806,0.9639602507582714,4.939455647222335,279.13642535793355,0.6666666666666666,0.6885245901639344,0.9523809523809523,0.16666666666666666,49.9808355691836,49.98504453601739,49.976147233269224,54.09836065573771,0.49368674390619643,0.5063132560938035,52.76719671519729,53.43772229366092,0.482868908002517,0.5171310919974832,50.305099956765375,52.05922761218499,0.48847627261239607,0.5115237273876041,51.550849318127064,52.752977847282274,0.5835162312440774,0.7061195055010256,0.7362574928437235,0.8345338396705839,0.36760312613435975,-0.42969473069624997,-0.3608219344441865,0.00021477820333770572,0.037306083161558944,0.3206259458814764,1.7047480922384255,5.711329328227482,1.54282975331328,0.7271802241410904,0.7008400952266338,0.772760613339579,1.9364454750505664,2.0014284577218975,3.5072708568302486,1.2334069683412527,Relax
64.18893250373364,936.1904761904761,70.44097440819537,,,,,,,100.50252765237363,101.32239464858776,0.07524213950010697,0.10735264906916818,947.0,75.6126,0.07984435058078142,95.0,0.7008875901294979,876.0,1003.5999999999999,61.904761904761905,87.3015873015873,781.0,1072.0,10.5,171.875,,,0.039019612965078734,0.08469160965438005,0.0403827713681723,0.16409399398763108,0.46072583959987035,0.23778818478889555,0.5161164500680253,-2.468738741801335,71.64575234207595,70.34511228823972,1.0184894161303895,15833.402329730705,0.9818462363598854,4.906544357373692,276.2723349860868,0.6190476190476191,0.639344262295082,0.9487179487179487,0.1,49.79318495174316,49.80181455740495,49.78518487462408,52.459016393442624,0.4855049205824539,0.514495079417546,49.9217420355986,51.39058088092299,0.4781649003743458,0.5218350996256541,48.64327131345762,50.81601104740912,0.4819021604506672,0.518097839549333,49.28665220900837,51.10410346561758,0.49557082984957457,0.7723665658181491,0.6822951249676956,0.6739922651264314,0.6443925317645651,0.12018673421058601,-0.5107498954624857,0.0003070029703957884,0.046570832864638846,0.22618101597826845,1.2237754316221159,5.711329328227482,1.5334544328636266,0.9753783304540271,1.069455380418721,1.2715006482754927,2.237229012053806,1.987207006347148,5.561028688384794,1.1385295092380794,Relax
63.50483838079236,946.4354838709677,73.2323096677295,,,,,,,114.39541719583802,115.34363484111577,0.07737696960410417,0.12086974669203561,955.5,74.13,0.07758241758241757,94.24999999999989,0.6401682118293273,886.8,1013.1999999999999,67.74193548387096,88.70967741935483,781.0,1123.0,12.4,210.9375,,,0.04267523636112604,0.0968579732514268,0.03616798480890898,0.17570119442146181,0.44059600803692633,0.24288529455729913,0.5512653090968154,-2.334509566741494,81.56026636285787,65.11792161799234,1.2525010678523016,16685.108639989234,0.7984025129134044,4.929299148737693,207.96124902201277,0.6612903225806451,0.6885245901639344,0.9523809523809523,0.16666666666666666,49.73113616652212,49.75494464497008,49.71002132215233,45.90163934426229,0.4630479853181586,0.5369520146818412,55.50037537410594,59.76551402495143,0.6243338894853836,0.37566611051461635,51.45279666713616,39.91182069233795,0.5258347103301045,0.47416528966989535,53.51486686677041,50.817664732079145,0.5051075749302257,0.6164865543436898,0.6434593764357971,0.729312722864401,0.56505798298255,-0.2658658854982461,-0.36073768223541697,0.0002546056221597327,0.03351685413296362,0.2898349814186454,1.504077396776274,5.748472318416495,1.636904170568735,1.2166985644675914,0.9810173385750259,1.4289919208724744,2.1817610933843223,2.022435451707911,5.7996935758788135,1.2484605166940221,Relax
63.07448327960286,953.5645161290323,82.48469723306792,,,,,,,117.66059830479624,118.63276669341118,0.08650143313628339,0.12339028593727046,959.0,89.69729999999991,0.09353211678832107,121.74999999999989,0.7010392469651887,879.6,1022.0,70.96774193548387,88.70967741935483,781.0,1133.0,10.333333333333334,242.1875,,,0.019114424320742604,0.11435640809611505,0.038952241580510485,0.17242307399736811,0.1671478200388839,0.11085769368103464,0.6632314657483754,-2.168435320764601,83.88603379983265,82.16452241186214,1.0209520038264346,21653.288833790422,0.979477973746162,5.042493978960201,321.9133597031674,0.6451612903225806,0.6666666666666666,0.95,0.10526315789473684,50.507403094327074,50.51895932521757,50.493572447911625,41.66666666666667,0.44723588932899944,0.5527641106710006,56.10139629872563,62.369931323782396,0.6979777855925833,0.3020222144074167,68.6444035087606,45.154785018820014,0.5700030508386217,0.4299969491613782,62.687402242157916,54.44705200205602,0.6377229093074537,1.0948572945381556,0.867260469816741,1.1851515565765314,-0.9108334584580478,-1.9015080115170546,-0.2096506655747435,0.0006858731529048953,0.09497625491931186,0.33671430982989925,1.5260563034950494,5.857422116838488,1.6408818198019315,0.91653061674783,0.5548008710137486,0.9571603491222738,1.9808843171023163,1.9917850584111085,6.312045096866486,1.3444959410551007,Relax
63.539234895288615,945.516129032258,92.24410629100214,,,,,,,135.37470766509463,136.48046358322026,0.09755952697011587,0.1431754610084246,955.5,98.5929,0.10318461538461539,150.7499999999999,0.681398378485929,850.6,1022.0,74.19354838709677,87.09677419354838,776.0,1133.0,12.4,242.1875,,,0.04912006369662683,0.07027306033670412,0.010993334790981319,0.13038645882431227,0.6989885378731837,0.3767267256089307,0.5389598043412832,-2.655366763613444,96.50626129917868,87.2692711271276,1.1058447040149482,26458.59097797736,0.9042861048837492,5.129536822572803,315.6655570543762,0.6612903225806451,0.6833333333333333,0.9512195121951219,0.1111111111111111,49.03971119133574,49.00067159747932,49.077496160532824,41.66666666666667,0.4412539527061783,0.5587460472938219,64.11448094359547,72.14712976503868,0.7056401600314227,0.2943598399685772,73.30827386988427,47.34788976584015,0.5601748958655015,0.43982510413449827,68.86497543907434,61.020615363217544,0.7502046385285285,0.7675547428065398,0.9596900296158943,1.1339820099317983,-0.7679794737109891,-1.7869175114642641,-0.27292566823493153,0.0003200590433645179,0.045521387392692785,0.37206486849427467,2.3513752571634776,5.889680181354617,1.556953213330017,0.8624968864578968,0.0,0.0,2.141193951461792,2.0031270352074815,7.1338594141469285,1.1524250923329433,Relax
63.87022211594126,940.1428571428571,93.0287602326009,,,,,,,129.12303460078735,130.1238487874844,0.09895172794836747,0.1373440574693073,949.0,105.26459999999999,0.11092160168598524,143.0,0.7204660308690859,852.2,1022.5999999999999,71.42857142857143,85.71428571428571,774.0,1133.0,15.75,125.0,,,0.038253141300311835,0.08796323312979451,0.014163063950321969,0.14037943838042832,0.434876481221049,0.27249817880483185,0.6266105217732395,-2.430836357152146,92.01145587172313,92.74002331737606,0.9921439803485965,26807.664271169768,1.0079182253856374,5.135229085886761,373.8974388970892,0.6349206349206349,0.6557377049180328,0.925,0.10526315789473684,48.273782602140805,48.21083326337803,48.33514816319246,47.540983606557376,0.45179358640858047,0.5482064135914195,61.871363115503534,68.15405644447044,0.6335112967700249,0.36648870322997523,73.81495894934534,56.143243228494704,0.5433318490768423,0.4566681509231578,68.10548340061918,62.43812605311749,0.7973620447949888,0.7283599649163611,0.9873856037634425,1.1615420272531694,-0.5042308347532609,-1.5058984932818666,-0.2608923720708269,0.00023565269932862145,0.038603301163862534,0.32910593814679556,2.833213344056216,5.9137878600078535,1.62542402692058,1.4836500411109528,0.0,0.0,2.3356294456693973,1.9654510820564983,5.42299108055157,1.1385295092380794,Relax
63.16188486046912,953.6612903225806,97.14784128924445,,,,,,,145.1349852186792,146.33254104369954,0.10186828623020204,0.15218714096027383,966.0,120.0906,0.12431739130434782,155.0,0.6693619814882602,862.4,1044.6000000000001,75.80645161290323,88.70967741935483,725.0,1133.0,15.5,296.875,,,0.03620585929431822,0.08027924426522812,0.01896869835652282,0.13545380191606915,0.45099900510648316,0.26729304591060765,0.5926688149733244,-2.5222441688348796,103.47273208025872,90.62465225107577,1.141772459369966,29459.280937406504,0.8758312497323708,5.17619225203637,317.4876097504848,0.6451612903225806,0.6666666666666666,0.95,0.1111111111111111,50.58503401360546,50.50426249675921,50.66451384108087,45.0,0.5034656015889003,0.49653439841109986,73.42286201631387,72.91570475556001,0.6334323276834092,0.3665676723165908,72.12676688138352,54.868543764774465,0.5598804668946574,0.4401195331053428,72.77769976932531,64.52618497504315,0.6295211893046708,1.2828174568951438,0.8142697747800591,1.2709299177522428,-1.6155359728954144,-2.623443036748923,-0.14401782925728415,0.0010329700720987044,0.130325828143218,0.3575975989887761,inf,5.889680181354617,1.5428420299416266,0.0,0.44793986730701374,0.7489330683884977,2.26774820999669,1.9875321591878978,5.241005674901271,1.056389667971865,Relax
62.873831203282066,958.2295081967213,105.63181235508914,,,,,,,163.47344330706034,164.84185538914437,0.11023644278485659,0.17059946694263123,959.0,124.5384,0.12986277372262772,163.0,0.6461710857626926,862.0,1048.0,78.68852459016394,91.80327868852459,725.0,1226.0,15.25,164.0625,,,0.043179872043951836,0.07996275505093958,0.029115364000094113,0.15225799109498553,0.5399998038642424,0.283596753992467,0.5251793648128139,-2.526194314579083,116.56079376903621,93.79845565085746,1.2426728453068157,34347.731313192366,0.8047170289241334,5.242868166911943,301.92485819612045,0.6885245901639344,0.7118644067796611,0.9761904761904762,0.23529411764705882,50.69580078125,50.665932995805086,50.71640158670837,45.76271186440678,0.47507568226297137,0.5249243177370286,80.34580980077537,84.45593575791912,0.6517611089199582,0.3482388910800416,75.7251093400164,55.35212821498769,0.544515369868018,0.45548463013198215,78.06965267342942,71.40260213281515,0.5127502850906296,1.191686926213546,0.6396666605804822,0.9611400768012952,-0.8212869834123957,-1.4403878159339656,-0.2302366845273201,0.00024753265721991094,0.077789726169019,0.34299455841274895,2.0368819272610397,5.83237668182518,1.6117090038382103,0.888786465544228,0.7838735539822873,0.911579959923785,1.8296689082266904,2.0082594616115563,6.68071426037232,0.972252022551293,Relax
62.676570919263376,960.7540983606557,108.57895065154278,,,,,,,167.9264223799618,169.32298808426845,0.1130142987022508,0.17478605885366122,972.0,127.50359999999999,0.13117654320987654,171.0,0.646586458001616,857.0,1056.0,75.40983606557377,90.1639344262295,725.0,1226.0,20.333333333333332,179.6875,,,0.028286778101559495,0.1297320462360337,0.04985534300993072,0.20787416734752392,0.21804002112241952,0.13607644693180984,0.6240893127386422,-2.042284138487043,119.72943308515518,94.87128583352401,1.26201971474542,35684.99051376926,0.7923806485081133,5.25945569560516,300.69668397426534,0.6721311475409836,0.6949152542372882,0.926829268292683,0.26666666666666666,50.93955715140635,50.83701525560477,51.042782291680744,44.06779661016949,0.49240494882553143,0.5075950511744685,84.02622673701953,85.31243675107856,0.6709567481024266,0.32904325189757355,77.71091980064172,54.42034380123342,0.5612619683063147,0.4387380316936856,80.93019781244448,71.55342648626697,0.49026826493749504,1.260457932406253,0.6450946254386681,1.0510511001800633,-0.9184123572861562,-1.779479002918194,-0.17792937447233032,0.0005012943876576502,0.10741634074558136,0.35074256936770265,2.9444389791664407,5.799589796579279,1.5024101493710054,1.136998617702687,1.0107628169586376,1.0826833350715828,1.9576995656461373,2.008257865441775,6.2182453194814755,1.2639276293166808,Relax
64.35181740881671,938.015873015873,110.45265984377316,,,,,,,170.61657636065806,171.9609589145121,0.1177513760920164,0.1818909266557485,950.0,134.9166,0.14201747368421053,172.0,0.647373556542904,831.2,1038.6,76.19047619047619,85.71428571428571,686.0,1226.0,21.0,125.0,,,0.033791485708163836,0.15661956331323937,0.05757217690013014,0.24798322592153335,0.21575520320268557,0.136265207384858,0.6315732152093093,-1.8539355778560598,121.59476014779278,97.19842171301339,1.2509952117001617,37129.91423745395,0.7993635712169934,5.276694056057233,310.78750998867895,0.6984126984126984,0.7258064516129032,0.9333333333333333,0.2857142857142857,51.45743816049239,51.48119127672768,51.415142059317766,43.54838709677419,0.5127982220951551,0.487201777904845,87.09844627926662,84.89685158965594,0.5519972918771561,0.44800270812284404,72.21504505442064,65.05782390526744,0.5280753250393357,0.4719246749606641,80.00360015797507,75.63066792355087,0.47443647385311,1.4134790347764936,0.7102771626248692,1.0332145576000586,-0.5326190664206614,-1.2089619277429,-0.2715301132667639,0.0009174029099999515,0.15020643151438204,0.41770370336196594,3.1780538303479458,5.818549764769758,1.5714856929329704,1.1442212525609734,0.9917737587646211,1.6215223608985585,2.0211473406096063,1.973038410264446,3.5173595273619553,1.1385295092380794,Relax
65.29972307359351,920.25,110.02366267856361,,,,,,,156.2308527950845,157.44603509855042,0.11955844898512753,0.16977001118726923,900.5,129.7275,0.14406163242642975,184.4999999999999,0.7042377399224264,817.8,1025.8,65.625,85.9375,725.0,1226.0,16.0,164.0625,,,0.017359755080417393,0.06272927895138888,0.016414966257630698,0.09650400028943698,0.2767408675918318,0.17988637806051172,0.6500173957892917,-2.7689269714176454,111.33115908912016,107.66831332292897,1.034019719016172,37657.76257571559,0.9670995452112459,5.2828246229370075,416.5039073930661,0.65625,0.6825396825396826,0.9069767441860465,0.2857142857142857,48.5462439152743,48.44828251134512,48.62686719619554,39.682539682539684,0.4424465227165869,0.5575534772834131,74.07243621247794,83.15138739555974,0.689060357687183,0.3109396423128167,89.37510032133815,60.03796412566918,0.5615988315820021,0.438401168417998,82.08116216252323,72.52141188008405,0.5607466181403042,2.2410106465451634,0.8860630782940143,1.535479360778245,-1.4508589169373707,-2.1429708339300038,-0.21021276338628797,0.003795766017493842,0.4433487991114,0.41529284816264145,2.4849066497880004,5.812500000000001,1.398030351412618,1.5377678907400092,0.9678002527269727,0.9678002527269727,1.8979908398586731,1.9587452697225007,5.006806338737752,1.3125,Relax
64.45516783276963,933.2857142857143,103.64539866098481,,,,,,,135.68916090497711,136.79608821693057,0.11105430745857854,0.1453886616156191,955.0,126.02099999999999,0.13195916230366492,158.5,0.7638443481389608,823.2,1026.8,57.14285714285714,82.53968253968253,745.0,1226.0,15.75,242.1875,,,0.008527911079020283,0.029757818850601286,0.011351760268961852,0.04963749019858342,0.28657715546406615,0.1718038330484255,0.5995028904876123,-3.514663363013626,96.72944161798478,109.2652616744152,0.8852716786256897,33204.019757986985,1.1295967375262885,5.228160773576526,493.70273244950243,0.6507936507936508,0.6774193548387096,0.9047619047619048,0.2,50.218681661980625,50.29462842374814,50.13685524584157,38.70967741935484,0.420038790520676,0.5799612094793238,62.691084941541256,73.66489254348113,0.7061312505982805,0.2938687494017193,91.81736523133998,59.23232943885579,0.580430175898785,0.4195698241012149,78.61488627853132,66.83930447048266,0.6168853199795219,1.5537536485671988,0.9383566843599067,1.0776629530131583,-0.2481197266486017,-0.5023041806863444,-0.4103421132547535,0.0008803431419755454,0.16668310711580925,0.38124239579653185,1.5755363607584192,5.67958329648145,1.2794058493136113,0.5909984302806723,0.6463535756254107,0.8598425498690881,2.1825311291026166,1.889138519160295,3.8575714243514,1.1385295092380794,Relax
64.23759327304364,935.7460317460317,96.90966333086811,,,,,,,115.64412875770664,116.57102133153917,0.10356406550828966,0.12358495236354185,961.0,106.74719999999999,0.11107929240374609,168.4999999999999,0.8379989920103053,823.2,1020.8,49.2063492063492,77.77777777777779,745.0,1088.0,15.75,242.1875,,,0.00774253711664989,0.01973791102342722,0.005462881620448867,0.032943329760525976,0.3922673026269172,0.23502594221447856,0.59914741973284,-3.925214075124374,82.42815967337302,109.17752040806627,0.7549920474955488,28272.141317479756,1.3245172625555315,5.158328812938298,578.4300418539704,0.6031746031746031,0.6290322580645161,0.8717948717948718,0.11764705882352941,51.17031398667934,51.124280124369825,51.21755505584588,40.32258064516129,0.4423857369075485,0.5576142630924512,54.83275615488412,61.56111184671114,0.665596018265843,0.3344039817341568,89.07146269939258,63.13481998900795,0.5845415208214156,0.4154584791785847,73.96065377939229,62.352930912859726,0.7133512059970737,0.890220535459944,0.9506721650630694,1.0239617875571358,0.44051020589312806,-0.2935778401269371,-0.4176725097043504,0.0006261116143376557,0.07355635044610019,0.40153606851257306,1.5198257537444135,5.723311669531665,1.1427830574836253,0.6763294863418711,0.8762492286712971,1.1012370148294661,2.0171291096855906,1.8407170789849514,4.411794344058418,0.8538971319285595,Relax
65.49213042523124,915.8153846153846,98.301178195459,,,,,,,120.94187653579715,121.78441383190606,0.10733733004140632,0.1320592322071431,930.0,109.71239999999999,0.11797032258064515,166.0,0.8127968658263971,815.8,1004.4,52.307692307692314,81.53846153846153,713.0,1118.0,10.833333333333334,273.4375,,,0.008697544068671702,0.03563811571374455,0.007060954783535316,0.051396614565951564,0.2440517377106254,0.16922406547830324,0.6933942247891467,-3.334339547761916,86.11458486336954,106.19194959473228,0.8109332693487088,28728.845857781933,1.2331470884196647,5.165288289115424,523.8011738254075,0.6153846153846154,0.640625,0.926829268292683,0.1,47.130584192439855,47.08343753697288,47.159995367155105,45.3125,0.41278612662425046,0.5872138733757494,55.37885390938909,66.05102645105598,0.6025451959647202,0.3974548040352799,82.43021038025641,66.94767042546607,0.5271787886849,0.4728212113151001,70.21950243219753,66.50085965848457,0.6486491064679697,1.3082477687410479,0.929942513910174,1.0187596088616189,0.014014375775584398,-0.3124802834280511,-0.43210988233756725,0.0006397781447693764,0.11888096765415093,0.3119579342918035,1.5686159179138452,5.868521659182301,1.2437829208308677,0.577622650466621,0.7911116247102985,1.028964350650323,2.0452046586533528,1.8626365979363189,3.196759160210441,1.0191699375894308,Relax
66.62204657332411,902.876923076923,97.76126976151964,,,,,,,115.05868068077261,115.96439998332272,0.10827751519925669,0.12743562022680013,889.0,130.4688,0.14675905511811022,170.0,0.8496644423792395,800.4,994.8000000000001,50.76923076923077,78.46153846153847,744.0,1118.0,13.0,125.0,,,0.00715998307674115,0.039082756385529695,0.009105826213899448,0.05534856567617029,0.18320056564362788,0.12936167341051444,0.7061204912552295,-3.2420739224235287,81.99921360443666,110.52227204978924,0.7419247911180906,28471.435501144133,1.347845512067317,5.161379474351775,595.867793463166,0.5846153846153846,0.609375,0.8974358974358975,0.1,50.549048316251834,50.52857278734838,50.56719689406015,45.3125,0.46466036560033214,0.5353396343996676,55.897440098128,59.998280398638514,0.6037912040621808,0.3962087959378194,85.88022929337195,69.56837525460456,0.5543938907017261,0.44560610929827377,72.45666840604096,64.95980482713571,0.4442923913862035,1.5177035267914605,0.7859543871349993,1.0259342914261507,-0.2550374728126066,-0.9066238850050419,-0.34187958975196764,0.001444933749336955,0.1968818219046089,0.36119825257821425,1.83258146374831,5.764600312995171,1.378382799582868,0.6872180489056163,0.8047189562170501,0.8605048440456026,1.7454719893450765,1.883910755560461,3.914850786246356,1.111821750097561,Relax
66.14848207167238,908.4153846153846,90.4528351386256,,,,,,,106.90796275301479,107.75087006609272,0.09957210838841371,0.11768620893433979,914.0,103.782,0.11354704595185995,135.0,0.8460813657781057,816.0,988.8,47.69230769230769,75.38461538461539,744.0,1118.0,16.25,132.8125,,,0.011275480955081565,0.06743181496335703,0.0108400192829753,0.08954731520141389,0.16721307236367208,0.1259164602503184,0.7530300022025934,-2.6966383403386947,76.19137090248473,103.91739698830702,0.7331916802251882,24873.902070968852,1.3638998190662308,5.102714030131592,566.9316758007426,0.5692307692307692,0.59375,0.868421052631579,0.15789473684210525,49.56452889944576,49.56503398484837,49.56252631643284,50.0,0.5032783030475368,0.4967216969524633,54.052884157224064,53.6996349489528,0.531939099784515,0.46806090021548497,75.79127562138969,71.09506267321196,0.5219183529879623,0.4780816470120376,65.82564753206664,63.00062987843348,0.7012627004639591,3.671301641468595,1.3991517930775481,2.2873403395885585,-1.3507661548519057,-1.7869637241701684,-0.25807257663641137,0.03398248372810178,1.8768149138880827,0.3836196977897188,1.8718021769015913,5.764600312995171,1.3483014539692262,0.8348390021215469,0.9544280814892262,1.0172566885594527,2.2534832174272146,1.8186630056991908,4.547477154191779,1.204473562605691,Relax
65.47805225666298,917.65625,84.73585825731142,,,,,,,104.18695040608796,105.02331928408078,0.09233943348319311,0.11353592416124007,920.0,94.1451,0.1023316304347826,126.5,0.813305869180715,846.8000000000001,989.6,46.875,71.875,744.0,1118.0,12.8,218.75,,,0.007996990055717754,0.05474741270961838,0.007344113092988979,0.07008851585832511,0.14607064808950854,0.11409843621004384,0.7811181623574853,-2.9050251678474743,74.26270124849343,94.7277744617717,0.7839591046073066,22100.288807013018,1.2755767413415149,5.051368059052899,483.3301834499229,0.546875,0.5714285714285714,0.8333333333333334,0.15789473684210525,49.790532048596546,49.77836587825502,49.802476759207174,50.79365079365079,0.5230003217032725,0.47699967829672746,53.706114867802036,51.289893992934424,0.5088809468808588,0.49111905311914106,67.57490276037747,66.38511709265725,0.5142554957703699,0.48574450422963017,61.03570372031446,59.31962996012477,0.6634460921691256,3.542570137860029,1.3715595765710105,2.0437824505100934,-0.9194523295923638,-0.9819032892423771,-0.31024430066890507,0.029918761529439567,1.6525093304255645,0.321310528513143,1.9459101490553135,5.738204882778696,1.4238859650339455,0.7611306094308558,1.0063379226837874,1.0621238105123396,2.3093014438904076,1.8664018769066357,3.6069335050080573,0.9375,Relax
66.56831065402473,901.8787878787879,84.37854542322312,,,,,,,105.96429006618581,106.73833029350867,0.0935586317776481,0.11749282884833451,887.5,83.76689999999999,0.09438523943661971,121.25,0.7962922732792327,835.0,986.0,50.0,71.21212121212122,744.0,1118.0,13.2,125.0,,,0.025087393221195353,0.11188353451045337,0.02236840661101586,0.15933933434266456,0.22422775014183538,0.15744632877180267,0.7021714692860715,-2.1902968191697987,75.47539716306947,91.42116717528992,0.8255790151787692,21677.142938885412,1.211271097756115,5.0429721513132675,442.9432700902349,0.5454545454545454,0.5692307692307692,0.8108108108108109,0.21052631578947367,47.9117415287628,47.954765429878485,47.87128434923657,52.307692307692314,0.501997676228475,0.49800232377152515,53.50102218649657,53.287692059236335,0.5000607060174475,0.4999392939825524,64.64845144632841,64.64060282271525,0.500846244130628,0.49915375586937205,59.337094845502335,59.236752351407745,0.6622550218951019,3.6297593935048003,1.367732152280933,2.1314054303971885,-1.0808815402360779,-1.2701683220187001,-0.2896077410853195,0.033179552937036165,1.785262763719962,0.3828332683527207,2.4849066497880004,5.851138248113551,1.4287714850194924,1.1303653426677984,1.170532806781055,1.2624640018123843,1.934370041238026,1.8814572351088066,3.071353295275354,1.2821442071366418,Relax
69.78413923027831,861.3970588235294,86.82202411725599,,,,,,,97.71127129105132,98.44585395083199,0.10079210652963563,0.11343348609119061,856.0,87.4734,0.10218855140186915,117.25,0.8885568979922525,788.4,933.4,44.11764705882353,69.11764705882352,698.0,1060.0,11.333333333333334,171.875,,,0.024365129003627462,0.06666277563839121,0.011614107310286772,0.10264201195230543,0.36549826751581493,0.23737969024758773,0.6494687152992221,-2.7081085682296697,69.61173090833375,102.07693797521209,0.6819535566911104,22323.379344159956,1.4663755180808422,5.0557300493057165,598.7324912300305,0.5882352941176471,0.6119402985074627,0.8048780487804879,0.29411764705882354,50.532141336739045,50.535383563032795,50.52953308006776,50.74626865671642,0.5349814439049403,0.46501855609505965,50.91719361925404,47.471203392321435,0.5120240931448603,0.4879759068551395,73.04202962518501,71.30612298133232,0.5193118362320215,0.4806881637679786,62.959108546051574,60.57259415834871,0.6581032606442097,1.7900415623577381,0.9689461465148747,1.422998612663197,-0.7521348328724375,-1.4997354047052724,-0.2463452940443064,0.0023629127769272105,0.2874534940825409,0.5002627259357864,1.7917594692280552,5.881580488309165,1.2912725739893574,1.028688889870557,0.9009824839290594,0.9222198635284842,1.8579103827950425,1.8452048168785293,3.3179573897185115,0.9847366360846136,Relax
69.80031192554296,860.7205882352941,84.0798919273478,,,,,,,85.79279098545882,86.43764402642773,0.09768546619726376,0.09967554181706846,852.0,84.5082,0.09918802816901409,116.5,0.9800344639865913,788.4,933.4,38.23529411764706,66.17647058823529,698.0,1060.0,17.0,62.5,,,0.007625790257759807,0.015108054390507988,0.0025999014576342386,0.025333746105902034,0.5047499870367755,0.30101313188668993,0.5963608511489836,-4.192527274025355,61.12064424087591,102.58757386777398,0.5957899376746626,19698.47270871881,1.6784439225391223,5.00140266506304,688.7499595455942,0.5441176470588235,0.5606060606060607,0.7567567567567568,0.25,50.56603773584906,50.57945980915027,50.556393280826015,46.96969696969697,0.5456993553646275,0.45430064463537234,45.15209985385088,41.19769411022902,0.5215798323343437,0.47842016766565604,74.08924247165686,70.95769487555256,0.5278988039207251,0.4721011960792749,61.35115309118519,58.01829221052623,0.9429237992022409,1.431492968733227,1.1907961944011287,1.4041593433010215,-0.5724832932102846,-1.0218484502893816,-0.3509506134083882,0.0003765504906261742,0.12107451521230601,0.46144007538180976,2.1102132003465894,5.8227569588974,1.2669802988134011,0.0,0.0,0.0,1.8662210618524562,1.8126791976598282,2.761313549881277,0.8952151237132852,Relax
68.81911861942868,871.9411764705883,85.62498630185159,,,,,,,75.2038026983909,75.74538092712696,0.09820041605150624,0.08624871118347469,868.0,88.2147,0.10162983870967741,109.5,1.1385725618856726,799.8,947.0,38.23529411764706,70.58823529411765,698.0,1120.0,13.6,171.875,,,0.007195476184163713,0.018480939781002674,0.004770382426342244,0.030446798391508628,0.3893457946094409,0.2363294850131262,0.6069912357733108,-3.991015360111256,53.56007249712965,108.91961836827527,0.49173944326571345,18327.243071539855,2.0335972916039724,4.970067249835748,885.9945636650514,0.5147058823529411,0.5303030303030303,0.7142857142857143,0.23529411764705882,48.20652173913044,48.20858245477566,48.219144770689724,48.484848484848484,0.48931453634746624,0.5106854636525336,37.47868080858123,38.28837943815329,0.49575596597980554,0.5042440340201945,76.6902380109008,77.34397623165047,0.4945009822288688,0.505499017771131,60.35745240365985,61.024956613348415,0.805179246640553,1.8120917090922997,1.0789399495906866,1.2340964640359149,-0.48254899992732625,-0.23815323751849116,-0.4143771180748086,0.0008056124731289638,0.1900425122586739,0.4788478769276545,1.8191584434161696,5.910992253015046,1.1926574975697024,1.1024914981688185,1.0227744261587466,1.4568027712612164,1.9493355081671038,1.793915176729364,2.671759063176578,0.9847366360846136,Relax
68.24792252377178,880.1492537313433,91.91386839851808,,,,,,,79.72176996317006,80.28822931725277,0.10442986574021895,0.09057755786895699,874.0,97.85159999999999,0.11195835240274599,120.5,1.1529331127618032,799.4,959.8000000000001,43.28358208955223,71.64179104477611,698.0,1120.0,13.4,195.3125,,,0.0042960315451350045,0.010008521861639495,0.0013364556713846092,0.01564100907815911,0.4292373643705337,0.2746646027546857,0.6398897802326103,-4.604318362728611,56.77235139969,116.79300768178138,0.4860937527559363,20830.68720431856,2.057216317491107,5.025673707519739,961.0739246872995,0.5671641791044776,0.5846153846153846,0.7631578947368421,0.3125,52.24186523187292,52.18843273422057,52.284687265238496,47.69230769230769,0.5238195138115752,0.4761804861884247,41.11194847842057,39.19791988201571,0.5189936302686795,0.4810063697313204,84.13909888335345,81.00134988044279,0.5199168101618254,0.48008318983817455,66.21774787998697,63.63055714643253,0.8619729332540388,1.603335216656117,1.0762650654722894,1.3963300883011251,-0.9260885786408082,-1.2646028564489535,-0.3003754801217697,0.0005463624542518008,0.1489544937529729,0.4127219543778664,2.6026896854443837,5.946686205383145,1.2382560556411115,0.9972460116410686,0.0,0.0,1.927883880663334,1.8426163748071138,2.658164479535745,0.905386446336981,Relax
68.33468431372346,879.1363636363636,100.61654342695743,,,,,,,103.2866809493773,104.07243686675456,0.11444930227977165,0.11748653021489584,873.5,100.8168,0.1154170578133944,129.5,0.9741482880669915,798.0,962.0,45.45454545454545,75.75757575757575,698.0,1175.0,13.2,132.8125,,,0.005196737757356242,0.011131419761285722,0.001976737208396623,0.018304894727038588,0.46685309410665854,0.28389880602154016,0.6081116514067268,-4.497983560169089,73.590325843091,122.14682015131184,0.6024743480995206,28239.22437156842,1.6598217055289688,5.157822874020954,810.9677733939626,0.5757575757575758,0.59375,0.7894736842105263,0.3333333333333333,48.64218987616772,48.71241563430548,48.592389602714015,48.4375,0.46080709056010066,0.5391929094398993,49.96381503148052,54.04656557081124,0.5264411170814898,0.4735588829185101,88.62516698330134,84.05608514711398,0.5089576063785477,0.49104239362145236,71.94026353620775,70.66277909995783,0.7746357133882859,1.9254888130498533,1.110968057415727,1.1212623662715797,-0.5236816205715744,-0.026585520686690067,-0.49465366467668687,0.0003984362208609869,0.19196502842532287,0.46497387390761746,2.6741486494265287,5.953485028449361,1.1314281920914833,0.9431902345236596,0.6685371623566322,1.0445565115507007,2.0341790978042,1.8390593001104691,2.8847886755646517,1.0989807489742642,Relax
68.05112289026242,883.2835820895523,102.67598432287458,,,,,,,111.65429601310385,112.48750979615409,0.1162435104703041,0.12640820940990127,875.0,106.74719999999999,0.12199679999999999,127.5,0.9195883005775652,793.2,975.0,47.76119402985074,77.61194029850746,698.0,1175.0,13.4,132.8125,,,0.010226636254543394,0.04494694741721704,0.010048884019269108,0.06522246769102955,0.227526825339557,0.15679621787677206,0.6891328863872299,-3.1022724309997485,79.54068097564874,121.81666122107002,0.6529540391137479,30440.085615528784,1.5315013616537179,5.190415979555051,746.2495301287136,0.582089552238806,0.6,0.8205128205128205,0.3125,51.41318977119784,51.54287406795748,51.28811106939123,47.69230769230769,0.5103931570331102,0.48960684296689,56.836607921303674,55.66721172771689,0.532460821068744,0.467539178931256,88.88951177478744,83.29437944716842,0.525862750297563,0.47413724970243687,74.6047763335568,70.84063843948378,0.6936753530405744,2.028005977546043,1.0423693970924426,1.252546824881709,-0.6412674566401471,-0.49684898324397997,-0.3963625205663405,0.0014390510319560491,0.26879572451705513,0.483986482145744,3.4011973816621555,5.946686205383145,1.1573336074362681,1.347221434797729,1.023586140555525,1.1968729356955115,2.1812420854275585,1.9003385073810612,2.5255398552884256,0.905386446336981,Relax
96.39941984579099,622.8105263157895,101.23853176310801,,,,,,,56.810060541451676,57.098264867113514,0.16255109296559334,0.09121563965450181,597.0,78.5778,0.13162110552763817,108.5,1.7820528758148204,539.8,714.4,29.47368421052631,70.52631578947368,479.0,904.0,15.833333333333334,46.875,,,0.013436298724771072,0.0014317850962881757,0.0004903857540359128,0.01535846957509516,9.384298495356559,0.8748461986446212,0.09322446414907876,-6.548833294130135,40.374570281521564,137.26629313932938,0.2941331725228434,17410.918856720116,3.3998205351092676,4.947791801462409,1866.7230487736815,0.6736842105263158,0.6881720430107527,0.890625,0.4,48.44130540672188,48.64224614979324,48.251888369977834,48.38709677419355,0.45039126622584663,0.5496087337741532,27.10364416239485,29.940532458040348,0.5722324191453962,0.42776758085460376,103.83652248872568,89.77756863304258,0.5625256149934722,0.4374743850065281,75.88356518190666,66.91953120551443,1.433852964879049,0.9038664755107826,1.6495610043758857,1.6860493602550348,-1.0548938819801563,-2.0548938819801563,-0.45963081177612075,0.0024912204715199734,0.11653028460909519,0.6262515358869938,0.9604619501872924,6.3303304767292286,0.8016961005443894,1.0188744086469,0.9380638368718085,1.116105108870415,1.729074485931206,1.6853019282396358,2.387108494575332,0.5532509985962903,Stress
96.6244484166787,622.021052631579,94.70098282391977,,,,,,,53.077322159841245,53.332020331012295,0.15224723089880826,0.0853304272183192,602.0,83.0256,0.13791627906976744,109.5,1.784208000146084,539.8,701.2,29.47368421052631,68.42105263157895,479.0,856.0,15.833333333333334,46.875,,,0.014752993061865661,0.0020171853483220946,0.0006513645824461891,0.017421542992633945,7.313652696385723,0.8468247082421699,0.1157868363999094,-6.206052131162019,37.71143323043761,128.1208849660868,0.2943425909087321,15178.988804744205,3.397401636347197,4.888212950615634,1741.1124169361372,0.6421052631578947,0.6595744680851063,0.8709677419354839,0.375,52.16489499611098,51.91887163023357,52.41486573430607,46.808510638297875,0.5312725391496771,0.468727460850323,27.502688040669145,25.833107872758774,0.5535467892858298,0.44645321071417,95.32286739737125,85.60672938289619,0.5517690314511511,0.44823096854884875,70.15285774050545,63.229192537948855,1.404103535538034,0.5282644664040173,1.7416255209803984,1.4874443252925744,-0.20286320467740282,-1.2028632046774028,-0.9811627732943633,0.0013915458028418888,0.0686065244377416,0.658141126055833,1.1939224684724346,6.39348837146607,0.8228934051870535,0.820674405912541,0.9708639010426495,1.1900433410667732,1.883865160215296,1.6903771556748057,2.590676264851971,0.5532509985962903,Stress
91.69144502000823,655.4333333333333,113.89153621965026,,,,,,,58.17650400271168,58.25521935609513,0.17376524877127134,0.08876036820837871,632.0,133.434,0.21112974683544303,204.25,1.9576895891568464,545.8,777.4,31.11111111111111,63.33333333333333,479.0,958.0,15.0,78.125,,,0.013476639807537698,0.0030676986409529754,0.0009414363058174401,0.017485774754308115,4.3930781295229195,0.7707201995277531,0.17543967505341226,-5.7868276268489405,41.19266064620469,152.08822989678015,0.27084713047263087,19681.82301068303,3.6921196036117876,5.00103543204556,2246.1117403220733,0.6,0.6136363636363636,0.8518518518518519,0.16666666666666666,56.38496400959745,56.16025153165028,56.73241715045815,44.31818181818182,0.5856530587176855,0.4143469412823142,31.659678255988755,26.629827773996723,0.6002494216697988,0.399750578330201,117.83152012107124,96.15904813949352,0.5992438217981079,0.40075617820189213,86.27456856256988,70.55391649783222,1.4411851527495485,0.9431370268090644,1.4411851527495485,1.7614476252975977,-0.6367453864094514,-1.1789153047434136,-0.1604284812869663,0.0008122805320952106,0.06135509246257515,0.5591663913350078,0.9236708391717774,6.336297540774121,0.6983912529524424,0.6669091341338081,1.144373628450971,1.4448684259086988,1.8047314129157426,1.6512040318692907,1.8467504672276323,0.6491853096329675,Stress
87.18914312711058,689.2558139534884,101.92594613351422,,,,,,,75.6407142156843,76.07430762164086,0.1478782537195867,0.10974258422546813,659.5,114.9015,0.1742251705837756,167.75,1.3475011069155083,597.0,795.0,39.53488372093023,68.6046511627907,532.0,954.0,14.333333333333334,85.9375,,,0.029434917910911296,0.006072348786634903,0.005702307901696857,0.04120957459924306,4.847369435645208,0.7142737627641504,0.14735286267057077,-5.104009798734358,53.79265879333371,133.6347021302677,0.4025351045486403,22583.545930118016,2.4842553822014923,5.060762243165363,1327.930912064043,0.6395348837209303,0.6547619047619048,0.8909090909090909,0.1875,51.39459459459459,51.63591004144011,51.16661663524622,47.61904761904761,0.49864803456096596,0.5013519654390342,37.993342148579764,38.09621278515003,0.5139640607908684,0.48603593920913146,95.80443761391416,93.16514019163502,0.5118276484703191,0.48817235152968075,72.87655423432635,71.17255361267586,1.3661260092446506,0.7457764617873801,1.3709577797771937,1.7211129996170604,0.05948369629561512,-0.9047138226618245,-0.030482339170828453,0.00040028270940040443,0.04786641655708665,0.5203795995258713,1.0340737675305385,6.1704508012137245,0.9014745101797764,0.6243746143027684,1.0390368052129801,1.5409200113430235,1.8064527861922262,1.650709577669891,2.189268627081185,0.7472400877560579,Stress
80.59405377629238,745.379746835443,115.23023817418185,,,,,,,82.89304198939988,83.31951267344998,0.15459266053766438,0.11120914183854276,745.0,136.39919999999998,0.18308617449664427,183.0,1.3901074856067794,633.6,839.4000000000001,40.50632911392405,72.15189873417721,555.0,997.0,13.166666666666666,78.125,,,0.03950660963170049,0.007954816014518215,0.006028309592972096,0.0534897352391908,4.966376288225595,0.7385830095258132,0.1487166832841208,-4.833977745741658,58.91579241655497,150.62959776974685,0.3911302512180504,27879.944981876884,2.5566930629523514,5.152262022354375,1540.454590772859,0.6075949367088608,0.618421052631579,0.8936170212765957,0.1875,53.49620893007582,53.65192855890223,53.346730633927876,44.73684210526316,0.5183241970452908,0.48167580295470924,42.47229807646513,40.9432613423827,0.530767586430934,0.46923241356906603,109.73938269390713,103.18208958068215,0.5291127581647335,0.47088724183526637,83.20645473139662,78.49488601044837,1.3366714484098103,1.4533946824658412,1.5227932581476775,2.010328242701995,-0.9252344307011491,-1.8248428781880293,-0.16455430831275533,0.001345640738709461,0.176447702653726,0.4537776200057788,1.0001722158548572,6.126565558303684,1.011210706034514,0.697982921270728,0.792590235206271,0.9865704913582101,1.782900489068125,1.6182434486711992,2.1975389802430256,0.7979469301490004,Stress
78.12816469317916,769.7922077922078,120.44755767141518,,,,,,,95.24138308861112,95.86233184450849,0.15646762392784305,0.12372349593115119,775.0,143.8122,0.18556412903225805,188.0,1.2646556965615738,636.2,873.8,44.15584415584416,75.32467532467533,569.0,1022.9999999999999,15.4,70.3125,,,0.015567504599908497,0.004779823551268101,0.003946954958385446,0.024294283109562043,3.2569203513335534,0.6407888032629885,0.19674684491458813,-5.343351647120758,67.78490490760706,156.85867703574294,0.43213997585967845,33403.45672035344,2.3140650156483398,5.230761521590586,1451.9247077171774,0.6883116883116883,0.7027027027027026,0.9423076923076923,0.16666666666666666,51.05204872646733,50.98441735304594,51.10684742808685,45.94594594594595,0.4974049522041227,0.5025950477958775,47.81255065356794,48.06134968280992,0.5224929146787977,0.4775070853212024,113.38321062451682,108.39230650687327,0.5185442735451041,0.4814557264548958,87.01089716674441,83.84147375617063,1.182474279348472,1.6137897690469396,1.3852031925978276,1.9893691638719417,-0.6983336429588753,-1.7013860580241271,-0.1256228767450186,0.004614232698087544,0.31702585462785776,0.45192822023889256,0.9946225751440622,6.084968358876722,1.021771099441637,1.1463611474487134,0.7616288773216094,0.9093973629727996,1.7208046420494796,1.6709206554651461,3.5080598743129108,0.9766420582901144,Stress
77.25088774034953,777.8026315789474,115.41496375968379,,,,,,,98.8257726169309,99.49083528801187,0.1483859260354908,0.12705764753754248,775.0,123.79709999999999,0.1597381935483871,158.25,1.1678630047958847,678.0,874.0,46.05263157894737,73.68421052631578,569.0,1022.9999999999999,19.0,132.8125,,,0.023925551510017816,0.012106949706984504,0.006198838713701487,0.042231339930703805,1.9761832739930485,0.5665354580100126,0.28668163801694313,-4.413975635309558,70.35064429806704,148.08825162810948,0.47505891604917416,32729.43872373606,2.1050020665152367,5.221908667629271,1246.9043028151953,0.6842105263157895,0.6986301369863014,0.9607843137254902,0.2,50.198771232381645,50.24489710907061,50.15390849015352,45.20547945205479,0.4780461166705349,0.5219538833294652,48.64126820892906,50.82601483279781,0.5455743320044365,0.4544256679955635,109.38243082402664,99.82792243304122,0.5331404742056338,0.4668595257943664,84.64776767861615,79.2114192559415,1.2735423905782093,1.1905080545086366,1.6143219937712168,1.8687964178325276,-0.09625993279079026,-1.0936867314128556,-0.28624720505033363,0.0031449798979899333,0.1912450065223675,0.5058160388873372,1.5141277326297757,6.09003277660148,1.038503873027751,0.9381819303424354,1.2131381752928587,1.5012428230240773,1.6799094118375046,1.6481225740461283,2.9303419107555357,0.986514870543724,Stress
74.90324827955475,802.5342465753424,121.49852333256528,,,,,,,123.00287937009172,123.85209940645552,0.15139356837547607,0.15326807534380296,809.0,115.6428,0.1429453646477132,166.0,0.9877697494137505,696.4,893.6,57.534246575342465,86.3013698630137,569.0,1184.0,18.25,164.0625,,,0.012864002043126302,0.01047921998828788,0.00339801967109144,0.026741241702505622,1.2275724774843717,0.4810547762230862,0.39187484653362187,-4.558361031457672,87.57665935449508,148.36343492376656,0.5902846573988699,40819.25998829739,1.69409790253836,5.317835237095587,1005.3687356709576,0.726027397260274,0.7428571428571428,0.9807692307692307,0.23529411764705882,50.96981187108064,50.95924125296389,50.94990643209966,47.14285714285714,0.47017411476133686,0.5298258852386631,60.05742557084163,63.7534865105707,0.5457789845924914,0.4542210154075088,109.60624110981745,99.9909032470218,0.5262394114009307,0.47376058859906917,88.37539945148937,83.85310898949662,0.9990540617009076,0.8552503235187858,1.0199341273326432,1.4145648068850467,0.10618039686147185,-0.8036018055740417,-0.03857874273725976,0.001168037163856073,0.08497475042024805,0.4342968485875396,1.845826690498331,5.960305552001065,1.2146306487456653,0.9892815348428052,1.0208987938043599,1.1327481705931874,1.8996078399840428,1.7592931965157954,3.0904963389730744,1.017505406939181,Stress
80.1586868980371,751.1518987341772,148.8404832412096,,,,,,,120.34634846867432,121.04721560171636,0.19814964655222458,0.1602157282321712,751.0,180.8772,0.2408484687083888,241.0,1.236767755192441,614.4,882.4000000000001,56.9620253164557,83.54430379746836,400.0,1022.9999999999999,19.75,578.125,,,0.02449979594133365,0.014457147010304266,0.006962996741227023,0.04591993969286494,1.6946494300619295,0.5335328422728839,0.31483375429063604,-4.236566383910116,85.59330699572368,191.85437267977585,0.4461368578686892,51589.507370092695,2.2414646590224754,5.4195314907625685,1720.1391841625789,0.7088607594936709,0.7236842105263158,0.9636363636363636,0.3333333333333333,47.618374558303884,47.82365689231468,47.51716196190458,48.68421052631579,0.4379446451381038,0.5620553548618962,56.6799513330497,64.21099553855203,0.54711820539691,0.4528817946030901,141.909766362823,129.11126413756196,0.5289760961333816,0.4710239038666181,108.0532245522268,101.96266590093464,1.0869507223105928,0.6551120601874609,1.3960122228701222,1.1301456981592626,0.7850980679560076,0.58782466803126,-0.9058336594120733,0.0002917195547081978,0.02616462422439148,0.4880809917051603,1.349926716949016,6.117010020301616,1.1120859316623284,0.7392118581987823,0.9908410945139344,0.9862901860655565,1.8055472620882773,1.7075433427157243,2.5144598046530073,0.8777416231639004,Stress
82.51157540321462,729.4691358024692,155.21662978074812,,,,,,,114.03694576758885,114.74682919421599,0.21278025643949763,0.1563286781724355,716.0,182.35979999999998,0.2546924581005586,245.0,1.361108268342129,587.0,879.0,49.382716049382715,82.71604938271605,400.0,1022.9999999999999,20.25,203.125,,,0.00523793259773434,0.008148947700915602,0.0029175920861154517,0.016304472384765394,0.6427741089988607,0.3212574117165895,0.49979830739753545,-4.809866476517686,81.13826104288462,204.51234062607182,0.39674017125077526,52130.8837722633,2.520541332750271,5.424065197523833,2061.927230422066,0.6790123456790124,0.6962025316455697,0.9636363636363636,0.3157894736842105,49.10822249093107,49.43903859506851,48.85965621590171,46.835443037974684,0.43490292727283214,0.5650970727271679,53.51286370844379,60.99911806791383,0.5239799691589353,0.47602003084106487,148.03924505863856,141.1016633169956,0.5118640489473377,0.4881359510526621,111.30868038884056,108.69814118899659,1.0381538558819545,0.3929110151429178,1.093564826325831,1.232558210893317,0.5830553838066477,-0.2979180650652138,-0.1462471673976144,0.00038148321657854693,0.020068422337659694,0.5768951433037923,1.1913940221190764,6.182382255944334,0.909362015325917,0.7092425611077141,0.9957313526702741,1.0801262785970622,1.737738252153472,1.7812784640839954,2.446206025157661,0.6261580249762592,Stress
85.21389555241329,706.0963855421687,134.6548084020796,,,,,,,111.89825517940449,112.58519474816832,0.19070315492223672,0.158474476672876,704.0,158.63819999999998,0.22533835227272725,214.5,1.2033682579428064,587.4,829.4000000000001,49.39759036144578,83.13253012048193,400.0,1022.9999999999999,20.75,203.125,,,0.02048807959607403,0.019050442139912506,0.006940259378088592,0.04647878111407513,1.0754647816361982,0.4408050104797099,0.40987396147838046,-3.960664968234536,79.60975466763789,173.7542765802636,0.45817436114076404,43456.191376415,2.1825752045797517,5.3450217708168,1516.9271030151021,0.6265060240963856,0.6419753086419753,0.9038461538461539,0.3,50.38109756097563,50.52991064367025,50.284890761104116,45.67901234567901,0.457255975222549,0.5427440247774509,53.833476665329194,58.650302852511835,0.5418314841569306,0.45816851584306945,127.89913905756896,117.61104904839247,0.5271571351364324,0.47284286486356764,98.12296617393888,92.93066469942723,0.8924137931040034,0.6731289625300554,1.054199335733884,1.015150588117758,0.7952035129339601,0.35686999246871265,-0.5580107970237312,0.0003521300592017243,0.03740759177598674,0.6080758187774,1.2286654169163076,6.173173316863031,0.9900749871587826,0.9928074578059323,1.2617602917764537,1.3081870302990664,1.8030959785454506,1.7806961031400577,2.913771883249734,0.8448847439134477,Stress
87.17790561425211,690.6235294117647,118.43332225656886,,,,,,,99.46242410842302,100.04258057876302,0.17148752860685745,0.14401829632584293,698.0,114.16019999999999,0.16355329512893982,157.0,1.1907343232200518,587.8,786.8000000000001,44.70588235294118,81.17647058823529,400.0,983.0,17.0,312.5,,,0.015052027274522919,0.008638457014715412,0.0028221911622047747,0.026512675451443108,1.7424439629533537,0.5677294734773222,0.3258236623661914,-4.751531298374388,70.74078713464493,151.67924337722002,0.4663840981769372,33709.00350326073,2.1441554373507374,5.234716024172712,1300.8954976820485,0.6352941176470588,0.6506024096385542,0.8888888888888888,0.3684210526315789,51.34338706881609,51.358274059620115,51.380553919387914,45.78313253012048,0.46425902504593886,0.5357409749540609,48.208632931837286,51.787157081212875,0.5356601180228887,0.46433988197711107,111.01222569088826,103.35801187446103,0.5229003990886743,0.47709960091132575,85.57974801902999,81.74591199930258,1.005659798734559,0.6562500444775599,1.1583361180678762,0.9838522276920718,0.7545923918061543,0.5460078553715584,-0.7658801958858698,0.00022448849162054748,0.03028933294828795,0.529106018950726,1.2809338454620645,6.212274612582834,0.9830553243717479,0.737608030755675,1.0911923454657941,1.39489639835521,1.8820994017321035,1.737550210328132,2.933624752767943,0.7540459924867884,Stress
90.1312185805518,668.7159090909091,131.71145307234457,,,,,,,124.10627629613239,124.80989982084982,0.1969617460595497,0.18558893935221252,657.5,128.9862,0.1961767300380228,169.5,1.0612795501016026,559.4,793.6,46.590909090909086,80.68181818181817,346.0,983.0,17.6,242.1875,,,0.015214376667657986,0.012870828639863203,0.00253591258788449,0.03062111789540568,1.1820821404253963,0.49685895595407753,0.4203252371068501,-4.352791874064995,88.25392652253656,164.64275072069128,0.5360328719984472,45648.50120986322,1.8655572302343741,5.366396632752773,1228.6018960506453,0.5909090909090909,0.6091954022988505,0.8301886792452831,0.35,51.19080587094989,51.42858357095972,50.97269503336154,42.5287356321839,0.43908236231778064,0.5609176376822195,58.48737689291556,66.10566770198741,0.5190311491972995,0.48096885080270063,118.61492116505879,114.18290520862827,0.5011831295561544,0.4988168704438457,93.51543396361657,93.29441340243308,0.9999957173661719,1.42570455914059,1.237207659473445,1.4903061942940725,-0.3415936778363289,-0.8387549341234029,-0.32247476645989365,0.000755487361228529,0.1423543182457283,0.534498541498114,1.211940973975113,6.254886164091841,1.0278954471909865,0.9738990232481519,1.1818936368477813,1.3491892067965963,1.7215571158395595,1.776248337844305,3.0156344262329333,0.9542342163896008,Stress
90.01679672158684,668.3522727272727,116.64604478888377,,,,,,,97.79852618591924,98.36515009531844,0.1745277895336525,0.1463278127069777,662.0,120.0906,0.18140574018126887,161.0,1.1927178183353662,574.2,776.6000000000001,42.04545454545455,79.54545454545455,346.0,939.0,17.6,242.1875,,,0.030547074177735865,0.0304249406838814,0.003914323509681502,0.06488633837129877,1.004014255775334,0.470778209165333,0.4688959409264384,-3.4924925896952814,69.55466466483225,150.19415929111355,0.4630983321396543,32819.28974734363,2.1593686061871518,5.223099288075967,1297.2982096236117,0.5568181818181818,0.5747126436781609,0.8,0.3,50.190641247833604,50.51729612527264,49.85928316261215,42.5287356321839,0.37368107331189404,0.626318926688106,42.518532211205844,55.045963880514286,0.5895791064901577,0.41042089350984234,115.32516551166582,96.22053671057586,0.5514537185121327,0.44854628148786735,86.91294317214341,78.38510644378229,1.156825433879884,0.6524407046532867,1.210715256062592,0.9635329862957234,0.7956996730256858,1.0697978503034036,-0.8788578303038644,0.000563850075118238,0.0407763068258573,0.5758370323779967,1.2407867774486523,6.155398806112712,1.0736105330529842,1.2435750410591924,1.2530713700075036,1.5654854577426975,1.6934448627517804,1.7558025286815258,2.657627697274735,0.8074289523296622,Stress
88.1674657875213,682.9302325581396,112.34262620873116,,,,,,,100.02487925805377,100.61574156651827,0.16450088289094325,0.1464642718823235,672.0,109.71239999999999,0.16326249999999998,145.5,1.1231468314887827,597.0,789.0,41.86046511627907,81.3953488372093,346.0,939.0,14.333333333333334,414.0625,,,0.045230375059725006,0.03817484492105816,0.007028756140470632,0.0904339761212538,1.1848214486072437,0.5001480306370711,0.4221294535349564,-3.2655784902024396,71.14607315579825,141.9194316153641,0.5013131207333276,31720.693268402076,1.9947612752229316,5.2083127803901865,1132.381545551909,0.5697674418604651,0.5833333333333334,0.7959183673469388,0.3684210526315789,50.548876110820714,50.886012087318235,50.22770448443617,44.047619047619044,0.41916669704370657,0.5808333029562935,46.06342676912222,54.22363304826025,0.5785074615656057,0.42149253843439416,107.94346268921193,92.13758154353044,0.5465039598773033,0.4534960401226966,82.98683757997884,75.59608559192435,0.9959454118241666,2.069639625855794,1.3600255260316694,1.6476094784337836,-1.0133711212679142,-1.157625977286401,-0.3610463634299626,0.0009946440402326458,0.268364465939297,0.5694351196254552,1.1913940221190757,6.083127836047133,1.0956179606670267,1.2505710111002237,1.0141315257837755,1.4192705215731607,1.6259133792445297,1.7034333400451545,2.490187308319041,0.9714121140828752,Stress
87.2439569329478,689.4069767441861,104.69118485358027,,,,,,,99.65617362299473,100.24076338624774,0.15185686885270291,0.14455347419550924,672.0,94.1451,0.140096875,113.0,1.0505238265482004,615.0,789.0,41.86046511627907,75.5813953488372,346.0,939.0,9.555555555555555,312.5,,,0.025234642765317054,0.032887590468753856,0.007539898126718511,0.06566213136078942,0.7672998357630431,0.3843104425998893,0.5008608430336896,-3.414659881764204,70.88092354173196,130.74223148025646,0.5421425253280595,29113.547883576197,1.8445334082488425,5.1710652433418725,964.6336553373463,0.5697674418604651,0.5783132530120482,0.8125,0.3888888888888889,49.11654470819205,49.40625770445745,48.86418826501186,46.98795180722892,0.41338127024929966,0.5866187297507004,45.575813343315794,54.292144042779384,0.6006592069883908,0.3993407930116089,101.32811470966287,82.62048330663757,0.5581138193418617,0.4418861806581383,78.56380080074842,69.90629859527782,0.941071575909107,2.7400003250184843,1.4981760940602697,1.9474566214417246,-0.5567850926735574,-0.7634313812624485,-0.3360290240555267,0.012044941730632091,0.8472270175675247,0.5402628104844869,0.9416085398584447,5.988943353836553,1.0841802652078434,1.0957068188393422,0.851879447278321,1.3182507642540666,1.519291943860291,1.7449203698611955,2.440471427673022,1.0461361228584811,Stress
84.57261271988668,710.6987951807229,133.42996106844154,,,,,,,101.69406534714436,102.23875499626249,0.18774474077237147,0.14309024587734764,675.0,97.85159999999999,0.1449653333333333,152.5,1.3120722493782018,615.0,803.0,44.57831325301205,78.3132530120482,346.0,1062.0,9.222222222222221,312.5,,,0.02006695207961553,0.022155090049939805,0.005718394683709857,0.04794043681326519,0.9057490641826594,0.4185809186048754,0.46213784276178016,-3.809688009796412,72.29371695792722,171.3835897596498,0.4218240326236176,38924.1970391197,2.370656773110586,5.297189772304677,1625.1666714548796,0.5783132530120482,0.5875,0.8297872340425532,0.3333333333333333,52.94953802416489,52.57809329604396,53.42544151313832,41.25,0.4133119815852965,0.5866880184147035,46.514036113366416,55.41771789590513,0.6571564582827064,0.3428435417172936,138.9324279433274,100.34996414885299,0.6202723870383375,0.3797276129616623,103.59965031259377,81.05935714483,1.1871190317195899,1.6507127090882925,1.4028023114287613,1.3384120973592193,-0.21338426116286158,0.5593037629863229,-0.5390075230626324,0.0003062040759807873,0.12085864297115992,0.48345992798133386,0.8001193001121131,6.109979190383072,0.9519807937883437,0.8984044167349918,0.853368193303511,1.040450987738116,1.4958555341637934,1.6761052279558724,2.603231237407684,1.0753078558898426,Stress
82.6885381288784,731.0864197530864,156.79861267967777,,,,,,,140.47304011802407,141.35536509275596,0.21447343083275186,0.19214286618190332,675.0,127.50359999999999,0.1888942222222222,230.0,1.1162185466188894,613.0,894.0,54.32098765432099,80.24691358024691,346.0,1062.0,10.125,312.5,,,0.006494591024847769,0.004063095231899035,0.0014239922331165766,0.011981678489863382,1.5984343595639245,0.5420435067041949,0.3391090184348089,-5.505810223437785,99.95333721418793,198.63052973239573,0.5032123578829987,62372.502963704515,1.9872325954135428,5.501963282287963,1578.9002525139026,0.6172839506172839,0.6282051282051282,0.8571428571428571,0.3333333333333333,50.5594033031433,50.794255003701316,50.330047164630166,42.30769230769231,0.4091867929715559,0.5908132070284439,63.9396471761665,76.83065382442484,0.6046400729076892,0.39535992709231105,154.45233001426504,124.89421561840525,0.5651455677963014,0.43485443220369857,118.2027933846068,103.68585839454026,1.0602099133218783,1.3994495139389853,1.2905911540847854,1.6125517576036938,-0.1370844910170259,-0.7691248045030363,-0.26993767884294995,0.0020954562802611818,0.19037877616535126,0.4137863003853095,0.7519876805828787,6.0929364226377105,0.9430432916150436,1.1846369833782826,0.7275556457386607,0.9248476049049739,1.4772632096276477,1.8193927396754765,2.7875763829739,1.017506790586421,Stress
78.43661022900883,766.1298701298701,133.75894959230033,,,,,,,105.02299247007019,105.68927230661473,0.17459043800188373,0.13708249288370294,741.0,143.8122,0.19407854251012144,210.0,1.2736158668342974,646.0,912.0000000000001,57.14285714285714,77.92207792207793,511.0,1062.0,11.0,148.4375,,,0.005541662161117861,0.008048692255311374,0.001656462932461788,0.015246817348891023,0.6885170889048329,0.36346353696700734,0.5278932692072156,-4.822245653504894,74.73360114667885,174.04533665262713,0.4293915745403615,40862.80488104814,2.3288766228597786,5.318298283872343,1621.320463392254,0.6493506493506493,0.6621621621621622,0.9183673469387755,0.4,51.66070516096066,51.678334254182175,51.59711504441542,43.24324324324324,0.40657332329675394,0.5934266767032461,47.666689976684275,57.58761440911868,0.6106848203387557,0.3893151796612445,136.01003545665853,108.59580777177726,0.5788938773503568,0.4211061226496434,101.90888842062513,86.91772776291995,1.0868621086707053,1.4519699022102133,1.2808248912568017,1.627932006653094,-0.17360501851481214,-0.609401829486881,-0.26094055746753425,0.002978545065731544,0.21162193684281522,0.4368449680111097,0.7316134613877411,5.997242547160313,1.0172428985742794,0.6845832944256733,0.8794439390914999,0.926952797561723,1.6506014657937575,1.7543645048544712,3.0141974173089614,0.8138683819084287,Stress
77.2705285547813,780.5263157894736,146.40405037058324,,,,,,,119.76365614548236,120.39061799368297,0.18757093439252068,0.1534396134028432,760.0,162.3447,0.21361144736842103,238.5,1.2224413906731402,645.0,922.0,59.210526315789465,78.94736842105263,511.0,1138.0,12.666666666666666,148.4375,,,0.003081231569979549,0.006094531837759901,0.0014662180481757308,0.01064198145591518,0.5055731353947743,0.28953551392131904,0.5726876957084294,-5.100363329866949,85.1290223745724,184.96014520786716,0.46025603125960074,49465.8727964023,2.1727037389673325,5.40127578631502,1607.454396212295,0.6710526315789473,0.6891891891891893,0.9215686274509803,0.4666666666666667,53.79491945477076,53.611095504922844,53.983072212453095,41.891891891891895,0.45646758075761096,0.543532419242389,57.60096892953817,62.85466935287672,0.6067506702075959,0.393249329792404,144.07322909041963,115.98775786596951,0.580415678301278,0.41958432169872173,109.7154660067626,93.28416112672674,0.9546904207194798,2.481569338329626,0.9657893133324891,2.180614069746533,-0.7413802866524559,-1.7116582463769354,-0.010461087002406068,0.020492373470282325,1.0031206458170558,0.4369314882239492,0.7323678937132267,6.09003277660148,0.9427197681106247,1.0173489353487277,0.7980763483752343,1.004615976032558,1.666953035899595,1.8197707669479786,2.48255872020237,0.8220957254531033,Stress
72.71118732350287,827.3661971830986,133.54627228435197,,,,,,,120.14794451603645,120.9100147920702,0.16141132274805492,0.14521737161259363,827.0,173.46419999999998,0.20975114873035064,231.5,1.1115152474916223,676.0,965.0,60.56338028169014,77.46478873239437,599.0,1128.0,14.2,62.5,,,0.01111480777481308,0.01959422837359883,0.004268956623559853,0.034977992771971764,0.5672490675769155,0.31776574051211687,0.5601873298258525,-3.932520226845439,85.4962913728386,167.1259133437214,0.5115681324475497,44889.104622205734,1.9547738347492323,5.359111052821376,1306.7734500514966,0.676056338028169,0.6956521739130435,0.9375,0.42857142857142855,52.85041416274161,53.27738618529527,52.432730774522796,40.57971014492754,0.4046504309308284,0.5953495690691717,54.433445601027316,66.0255220745538,0.6151159843486231,0.3848840156513769,131.0757345099176,103.68328087815645,0.5714009159168218,0.42859908408317793,100.358976123998,86.91833034198274,1.0011301433975777,2.4350063807156723,1.479482705951344,1.8167090197982014,-0.1302818220395663,-0.03231702980715889,-0.36150906358292856,0.015043397250609263,0.7437732398918849,0.41560374795639055,0.6085897925318824,6.008902049082148,1.0817304688829108,0.6703682823654326,0.645007420261706,0.7313785289118492,1.718713706975209,1.7881569081151631,2.409227748150594,0.9527777227401621,Stress
69.75243449352398,863.0147058823529,114.06249827113425,,,,,,,134.13058907413006,135.0955087047106,0.13216750246974746,0.155420977371404,865.5,133.434,0.15416984402079723,178.75,0.8503839359722429,754.0,969.8,72.05882352941177,88.23529411764706,599.0,1128.0,17.0,156.25,,,0.04143395864250747,0.06779164154606152,0.005628285084661085,0.11485388527323007,0.6111956827945355,0.36075365272962884,0.5902424753397721,-2.691316372667059,95.52695031294711,129.53776937696804,0.7374447682123814,38875.16095487758,1.3560337575166086,5.2966423101103945,702.6303525942794,0.6764705882352942,0.7014925373134329,0.9574468085106383,0.3333333333333333,51.66433566433568,51.71493368828776,51.5984562055697,46.26865671641791,0.4318971825073544,0.5681028174926456,62.80127387243033,72.02640509079313,0.6041581279960777,0.3958418720039223,100.68661154780862,81.49993834464692,0.5434502345077343,0.4565497654922657,83.91005227319106,76.9091768922418,0.9408573703409467,0.9951759331007937,1.009521660928606,1.1297709664832385,-0.12449496962560147,-0.23309101863715753,-0.3791677917893806,0.00024108957820744391,0.04437437858217558,0.30612978212184583,1.5686159179138452,5.881580488309163,1.4865315176367364,0.840093846785475,0.9120143648984202,0.991627797678054,2.0910304394302273,1.9265083792691227,3.675573536135573,1.0742581484559421,Stress
71.82828870785242,837.1,115.9361580941131,,,,,,,152.16443241688782,153.2388200689681,0.13849738154833724,0.18177569276894973,829.0,128.2449,0.15469831121833535,176.0,0.7619136499420612,741.8,945.0,77.14285714285715,90.0,599.0,1128.0,14.0,234.375,,,0.051886586684853096,0.09329503449098576,0.015920799519425436,0.1611024206952643,0.5561559301408096,0.32207204870620754,0.5791038650341536,-2.3719883934348767,108.35620881179254,121.82767114986855,0.8894219826175299,41471.48783983252,1.1243257076433435,5.324719726445611,547.895930304466,0.6428571428571429,0.6666666666666666,0.9347826086956522,0.2777777777777778,48.58451779631155,48.60720293134993,48.542325194656385,46.3768115942029,0.3860200159361351,0.6139799840638648,67.34000646412379,84.9269149466348,0.5978717536427246,0.40212824635727534,94.1997955502452,77.25529092620464,0.5042746070218252,0.4957253929781747,81.87880663607717,81.18177399652417,0.7492788894294051,1.8564522460494994,0.977080827976869,1.3887365495598474,-0.9829223607662776,-1.2208891216315925,-0.2782567677358924,0.0015762058742812004,0.23580669363972218,0.3178580700425502,inf,5.900711588373539,1.6239452720726786,0.5756462732485114,0.0,0.0,2.372010637461621,2.0058820853859767,5.538496367404817,1.2258566033889933,Stress
71.90922353363439,837.0140845070423,109.14780188320611,,,,,,,149.32548342463184,150.38997546544417,0.13040139216712043,0.1784025934433072,822.0,118.60799999999999,0.1442919708029197,164.5,0.7309388818305459,743.0,944.0,73.23943661971832,90.14084507042254,617.0,1128.0,14.2,164.0625,,,0.05507996834178369,0.071930453929359,0.020813531759167336,0.14782395403031,0.7657392013107032,0.3726051620192085,0.48659538571543204,-2.6320555444129417,106.34177147409407,112.60585955724179,0.9443715619437776,37619.65023218285,1.0589052448188123,5.282384863352146,476.95574112997565,0.6338028169014085,0.6571428571428571,0.9347826086956522,0.29411764705882354,49.1580078824794,49.30089253349668,49.01451465935627,47.14285714285714,0.42798521590885064,0.5720147840911494,69.57573290088759,80.43536427521762,0.5994718172987564,0.4005281827012435,87.18572340284013,71.26520358034988,0.5186229566568529,0.48137704334314707,78.87373762530908,75.98873951920662,0.7843237882923466,0.8804536303673287,0.8796556277771181,0.9732960678058522,0.099227399323917,-0.20698481340281916,-0.3936452337760628,0.0001266522546349961,0.03679947935595772,0.33891531200823666,inf,5.885593774403789,1.6511848900152342,0.7783788273025936,0.0,0.0,1.9947467197438558,2.0066704900610435,4.237371712432904,1.212626192578388,Stress
71.93554356438355,840.3142857142857,126.47718965531134,,,,,,,184.55410423857916,185.87342148624762,0.1505117689958144,0.2196250942963609,829.5,149.0013,0.1796278481012658,205.5,0.6853122566800797,731.4,971.6,80.0,94.28571428571428,565.0,1128.0,11.666666666666666,210.9375,,,0.047486111214481465,0.10928026822355037,0.056155761395569055,0.2129221408336009,0.43453509024466325,0.22302101147664094,0.5132405103373121,-2.2138394287011907,131.432356775271,120.02987248953934,1.094997054060233,49561.16573654435,0.9132444660851047,5.402111622899764,438.4664672638902,0.6428571428571429,0.6666666666666666,0.9347826086956522,0.2777777777777778,51.143431250598034,51.216643937731234,51.08473196835867,44.927536231884055,0.4439941195367964,0.5560058804632033,87.59259806224563,98.02085612406228,0.6564643134016342,0.34353568659836603,97.25118586624087,70.35180976680657,0.5405960238223386,0.4594039761776614,92.5479777944506,85.31548913520643,0.6822417604091687,2.254426752359632,0.8599057090605822,1.6662848152063563,-2.282207415046015,-2.900177998712792,-0.14231301580245867,0.003351638735301331,0.3967703732163018,0.4141448777693282,inf,5.986425874087824,1.711976528918317,1.000784962309667,0.8654928084817017,1.4059248670626212,1.8812128396497736,2.033701020254683,6.256557068046723,1.1382954174326365,Stress
71.64157932809914,844.5857142857143,128.11515346196893,,,,,,,199.48426257349914,200.8992358965116,0.15168993661030472,0.23619185027562017,834.5,163.82729999999998,0.1963179149191132,226.5,0.6422318824010763,723.4,979.4,84.28571428571429,94.28571428571428,565.0,1092.0,14.0,156.25,,,0.025458775134016343,0.04074014693492965,0.0668917252564499,0.13309064732539588,0.6249063159904459,0.19128898721013576,0.3061082634553823,-3.200541261539769,142.05721203761922,111.65430451605997,1.2722949881183148,49829.74107939768,0.7859812459679412,5.404458740498672,351.03275752486695,0.6571428571428571,0.6811594202898551,0.9574468085106383,0.2222222222222222,51.25978890023835,51.44764751754081,51.07719338471303,46.3768115942029,0.46182583917744446,0.5381741608225555,96.56124237711403,104.23777964769947,0.6344175091756228,0.36558249082437716,88.93302216498245,67.51000878068218,0.5277135120016917,0.47228648799830825,92.82552440145173,87.81547697146026,0.5616288343902389,0.6141466773181228,0.6444023400944953,0.6970708875770832,0.2782186588967024,-0.2722647027630347,-0.41424109349156973,1.2162933540291224e-05,0.01593984206200766,0.42619365355129135,3.4657359027997265,6.04356873123068,1.6726463779396783,1.1337324605540517,1.3569896663782692,1.764891121214301,1.7786116396921008,2.0187424439966795,4.7782766987792495,1.2258566033889933,Stress
71.47954157389388,846.0434782608696,132.3214040289566,,,,,,,205.60245048894438,207.01945795057347,0.15640024115658574,0.24301641200707746,834.0,149.74259999999998,0.17954748201438847,211.0,0.6435789248342241,724.0,991.2,85.5072463768116,95.65217391304348,565.0,1153.0,13.8,171.875,,,0.00949201500714848,0.03713707811104075,0.051750896258598585,0.09837998937678782,0.25559401789142183,0.0964831879661502,0.37748609596620897,-3.29313939844533,146.3848625544138,111.06279367815368,1.3180369204345708,51075.73623427611,0.7587040882514046,5.415184745475361,337.0551824649498,0.6666666666666666,0.6911764705882353,0.9574468085106383,0.15789473684210525,51.891535481744015,51.91844750841397,51.900614888313925,44.11764705882353,0.4682811501464071,0.5317188498535931,100.22675782980623,106.80002934763976,0.6694758806091122,0.33052411939088777,90.87325013512134,63.851362941411075,0.541734124009368,0.4582658759906321,95.66438881630656,87.98648424085519,0.4804837450687353,0.808209937873603,0.5625171344577073,0.770199388874875,-0.38268618021840073,-1.09752929405549,-0.24303427279850226,4.553805849591807e-05,0.02999475425887937,0.41193862374168067,2.1102132003465894,5.9346114132999075,1.6836276471849496,1.0466108725092493,1.0165328744851438,1.2955289467470892,1.8514805247066746,2.0411117371547576,4.465684724009851,1.239410759346295,Stress
71.11192345189232,851.7971014492754,132.86100429419872,,,,,,,213.20043731331378,214.76369755099904,0.1559772909160464,0.25029486124168254,836.0,160.1208,0.19153205741626794,240.0,0.6231741640330205,726.4,999.1999999999999,88.40579710144928,95.65217391304348,565.0,1092.0,13.8,171.875,,,0.013832362934712449,0.021577962935677188,0.04166481899084064,0.07707514486123027,0.6410411852103937,0.17946593496018579,0.2799600698062543,-3.836082719544834,151.86086689100813,111.08756156520833,1.3670375400387729,52998.207508893385,0.7315088069722192,5.431231291219921,325.04611852007395,0.6811594202898551,0.7058823529411764,0.9583333333333334,0.2222222222222222,50.81233812102659,50.91312354372825,50.7161324822369,45.588235294117645,0.457472432795486,0.5425275672045142,102.72416332754081,111.86675843069308,0.6252897582478253,0.3747102417521748,87.84278402448453,68.00067374174843,0.515962228670274,0.4840377713297258,95.57355396896025,92.56960427462882,0.42581467182388394,0.8232579068013843,0.502430332406471,0.7161682062130436,-0.4069099211583431,-1.088945203330786,-0.2403755590553495,5.4871944767851914e-05,0.03108789735244285,0.3796264976043835,2.0149030205422647,5.9056259060535305,1.6535518356794856,1.0631611608641767,0.6040568221627275,1.1222336486395597,1.9514364232329118,2.037931996666931,10.060424524473353,1.0623520794396815,Stress
72.61005242626575,832.8169014084507,152.89906192921197,,,,,,,222.1763778108349,223.7803363197836,0.18359265004184086,0.2667769799521272,838.0,176.4294,0.210536276849642,248.5,0.6881877517122593,688.0,993.0,87.32394366197182,95.77464788732394,454.0,1092.0,14.2,281.25,,,0.012771934314010594,0.0559316397504569,0.05265269945321702,0.12135627351768452,0.22834900551804868,0.10524329681357113,0.460887913984161,-2.883625052672861,158.2365933079252,146.05552278154238,1.0834002733645496,72606.37938657975,0.9230198889413733,5.567944890588508,539.2486096683739,0.6619718309859155,0.6857142857142857,0.9583333333333334,0.2,49.91816693944353,50.20813051828633,49.671177402954825,44.285714285714285,0.43200542692463084,0.567994573075369,104.00445921320818,119.25578404834502,0.5830033822729072,0.4169966177270928,111.52019514363438,94.31575589537175,0.501469424546817,0.4985305754531832,107.82782910989671,107.51140367212413,0.38173947238192973,0.6357890933872872,0.4452633842714066,0.6259737043628175,-0.14287166404980578,-0.9646993993065889,-0.2157700218972893,3.220787046406054e-05,0.01914988143109285,0.35504512167486313,1.4880770554298328,5.913762788488296,1.6660264180761346,0.9433361277782023,0.6216636199869574,0.6466723360244856,2.1252377798761852,2.0162623412126557,5.152347066302019,1.212626192578388,Stress
74.20630715235627,815.5833333333334,148.84236391489705,,,,,,,208.67334132629804,210.13369319098854,0.1824980450576034,0.2558577803122077,806.5,162.3447,0.20129535027898324,213.75,0.7132792476934341,694.8,974.6,77.77777777777779,88.88888888888889,454.0,1092.0,10.285714285714286,265.625,,,0.008152084853720916,0.0678183704914713,0.02535735327946134,0.10132780862465356,0.12020467013058218,0.08045259208080291,0.6692967252720272,-2.6909221695347934,148.58695941112143,149.94592989257188,0.9909369298491524,69994.71510585147,1.0091459606336675,5.552035360161582,605.2693178581919,0.6666666666666666,0.6901408450704225,0.9387755102040817,0.2,50.9407492985641,51.26855043935774,50.646151905775184,46.478873239436616,0.4484255080759099,0.5515744919240902,99.51241846408631,110.36572319856766,0.5691443682689383,0.4308556317310617,113.12169482839224,98.42389979319142,0.5093273113248533,0.4906726886751467,106.53459360559678,104.5654266658991,0.4086010642335228,1.3957048156975644,0.6681367365384866,0.9412214139927599,0.0433635109849968,-0.578714504098284,-0.30433923105883437,0.0024087475298777946,0.19574260077654834,0.4064111440218352,1.3862943611198906,5.9754805569978675,1.589031050760614,1.04229818174026,1.0108012844154728,1.3037339394022465,1.9077439651562753,1.9908902780758744,5.004924172400558,1.0283208335737186,Stress
73.28336226541569,824.9722222222222,146.87725758262297,,,,,,,201.71881140151365,203.1370472359942,0.17803903407436034,0.2445158830416678,811.5,157.1556,0.19366062846580406,208.75,0.7281287082852643,702.6,974.6,75.0,88.88888888888889,454.0,1098.0,18.0,250.0,,,0.0042383253742948965,0.049443357157601356,0.017031248737982188,0.07071293126987843,0.0857208251613089,0.05993706240403437,0.6992123826531673,-3.006927564464885,143.63958361078352,148.20889874091895,0.9691697653180531,66880.3120059752,1.0318109744909647,5.532268400441754,611.6942729524013,0.6527777777777778,0.676056338028169,0.9166666666666666,0.15,49.19713016740691,49.570696498178734,48.86751394385261,47.88732394366197,0.449031922199331,0.5509680778006689,96.26095484967634,106.62886234840116,0.5331530016124737,0.46684699838752636,108.21817597186782,101.26551266506195,0.49240555730045155,0.5075944426995481,102.41422029984307,103.9817732610675,0.4276953856252323,1.3255767025695362,0.710591831586697,0.9115280184519703,0.30528189583152354,-0.2890966234460417,-0.34841602415328154,0.0026855264292594,0.1922106544625803,0.2965582616263287,0.9903987040278769,6.086591668108979,1.5199616883152265,1.1279250692965166,0.6998706988404294,0.8825457132522239,2.025159229296071,2.0014270576727506,3.1360747224669243,0.9426274307759088,Stress
73.73598801180425,819.9722222222222,146.04243761223847,,,,,,,206.21003240577005,207.65697996447844,0.17810656709375608,0.25148416838672455,795.5,128.2449,0.1612129478315525,200.75,0.7082217868278265,710.2,973.0000000000001,76.38888888888889,88.88888888888889,454.0,1098.0,18.0,273.4375,,,0.0062335163724273,0.04059598467535726,0.019675976008620966,0.06650547705640553,0.15355007206442253,0.09372936859231075,0.6104156600655077,-3.2040861168870824,146.83565869360172,144.21586770877175,1.0181657609973984,66526.46634060207,0.9821583462209502,5.529964565776179,566.5712725106664,0.6944444444444444,0.7183098591549296,0.9411764705882353,0.2222222222222222,50.86560173956678,50.98463976392609,50.796988779245964,46.478873239436616,0.4675865646186964,0.5324134353813036,100.41670322070071,107.15179486530843,0.5711390234578625,0.4288609765421375,108.98932544474535,94.44333453501812,0.5184256072249921,0.4815743927750079,104.79071367877714,100.99764992550689,0.4762008377888506,1.4602002726596826,0.781227661031624,0.9018996690488844,0.3316673290489396,0.09929130239741668,-0.4173592757947769,0.002489119841335052,0.20255982429170657,0.43587805617179187,1.0986122886681096,6.114369445886757,1.5346747749052811,1.0693837061052438,1.0017919671624278,1.3797798609775138,1.941026021550755,1.982380619019653,4.84416976913041,1.0283208335737186,Stress
75.30790192100605,801.3698630136986,136.8025246324581,,,,,,,192.34152928811002,193.66967212604158,0.17071084270375114,0.240015925436445,783.0,120.0906,0.15337241379310343,183.0,0.7112479823717135,703.2,921.2,71.23287671232876,86.3013698630137,454.0,1100.0,14.6,296.875,,,0.007579621780057997,0.06559972167669835,0.020058948841380486,0.09323829229813684,0.11554350516018046,0.08129301377401417,0.7035706045209198,-2.724183825774351,136.94513847049927,137.2185036449768,0.9980078111390516,59034.94612644857,1.001996165599821,5.47807928121339,549.9696580064473,0.6986301369863014,0.7222222222222222,0.9423076923076923,0.2222222222222222,49.035144961312575,49.23950803790728,48.888357375054674,45.83333333333333,0.4376708880528627,0.5623291119471373,90.60850626983486,102.70472512684252,0.5748761234589111,0.425123876541089,104.03987332159409,89.46855593890606,0.5064026467034396,0.4935973532965606,97.55561657132829,96.31428519480752,0.4812306957389283,1.332626265635916,0.7806560740076249,0.8617645632227803,0.38797872805557887,0.0733655732837244,-0.4391363570517266,0.0016747811375106738,0.16250673942292082,0.43813191760711323,1.658228076603532,6.107632778058097,1.4720408180402955,1.0720540486602486,1.268578568481886,1.4229687464364955,1.9425943686368867,1.942795737868118,4.308553720631692,0.9327132896942493,Stress
76.78738979722635,788.5333333333333,141.0385545653169,,,,,,,207.97033962121176,209.38347688499024,0.17886188015554225,0.26374324436237545,768.0,118.60799999999999,0.15443749999999998,208.0,0.6781666790668249,690.4,924.4,74.66666666666667,89.33333333333333,454.0,1102.0,18.75,296.875,,,0.020739297552396455,0.06233001312184751,0.028422009846259734,0.1114913205205037,0.3327337267177159,0.18601714873923675,0.5590570892052962,-2.7753122176392195,148.05647637379332,132.71578344108082,1.1155905690714096,61730.508879414316,0.8963862080981695,5.49746996707811,475.85839149411305,0.7066666666666667,0.7297297297297297,0.9444444444444444,0.2777777777777778,49.49671408368688,49.89168249747089,49.13749433827429,44.5945945945946,0.4353808617884707,0.5646191382115294,97.6957115476136,111.2547674828869,0.5933986812838967,0.4066013187161034,102.23412011113699,84.62661436853936,0.505779357696191,0.4942206423038094,99.9906679888001,98.8415073416849,0.3646353151769436,1.4909323192288038,0.7140733896799671,0.8330306979855702,0.2806699531127972,-0.08481358585061849,-0.4202128045844934,0.002306348650844218,0.21471450024850505,0.5606599782436117,1.8718021769015916,6.14881869049588,1.455921919712842,1.501542023240115,1.4227018662086666,1.5185958903592602,1.8260552957331306,2.000835776174418,3.5134861126648156,1.411865569845733,Stress
73.8333029384746,817.0555555555555,125.43814915916029,,,,,,,178.84724775117178,180.0100567277807,0.15352462669918307,0.21889239542538194,781.0,103.782,0.13288348271446862,194.25,0.7013703075469242,715.0,925.6,73.61111111111111,88.88888888888889,611.0,1133.0,14.4,148.4375,,,0.03252788007067305,0.1169932105404764,0.05271226371183048,0.20223335432297995,0.27803220306890636,0.1608432999569591,0.5785060082306233,-2.145639375436739,127.28633179398882,118.46330540876453,1.0744789819495575,47371.32037729493,0.9306836306705402,5.382485599916294,441.00743671624804,0.6944444444444444,0.7183098591549296,0.9215686274509803,0.26666666666666666,52.19237606162355,52.174279032830974,52.23709117005744,43.66197183098591,0.4811504031210508,0.5188495968789492,88.34619403234075,91.74199069751461,0.6376982500215872,0.36230174997841297,94.60007025295413,71.3048486184941,0.5537634730201261,0.4462365269798738,91.52656251565404,82.1613482534495,0.5477633083173432,1.2053556518005166,1.332519173679442,0.8744166816544172,0.544460706165526,0.23491483559074822,-0.8800558709296529,0.0019036606597864112,0.1414971212613865,0.5690785575169803,2.2192034840549946,6.003258334775647,1.5410901877327472,1.246116476013796,1.0585266261493147,1.1960382103791327,1.9016828355742312,1.9565292930759337,3.7535393400536723,1.0283208335737186,Stress
73.73601365837082,820.4225352112676,135.55543536257787,,,,,,,204.33652215332012,205.8115808993705,0.16522636756640394,0.24906254202378933,790.0,120.0906,0.15201341772151897,182.5,0.6633930828129998,715.0,936.0,87.32394366197182,94.36619718309859,539.0,1102.0,17.75,296.875,,,0.021839684204126415,0.12112165280537489,0.058028356066322256,0.20098969307582357,0.1803119731136732,0.10866071722338205,0.6026261891931026,-2.11095984337079,145.5307645006686,126.84181023628037,1.147340646034415,57991.87023577473,0.8715807318918992,5.4703372249176185,442.21151120092253,0.7464788732394366,0.7714285714285715,0.9444444444444444,0.35714285714285715,49.896136269214786,50.07713606938553,49.73823443612514,42.857142857142854,0.44307103713331913,0.5569289628666808,96.87063688164268,108.60638943490827,0.6467219286790702,0.3532780713209296,102.00494475664534,75.39122010692155,0.5309882224662844,0.4690117775337156,99.47092299928995,93.48578473569457,0.5274433833214182,1.9664555874098284,0.7256075626356833,1.294577202879331,-1.7345822610805417,-2.1841125864164193,-0.21066234910848824,0.0014166731692155097,0.2512863843445511,0.43754890385993317,2.0476928433652555,6.093409091335668,1.5951562267146766,1.3466632308322488,0.9598630781483276,1.1113970290409065,1.9724116185290468,1.99914988706274,8.23541122611382,1.039393879352904,Stress
74.1367506155521,812.8767123287671,124.47991194538172,,,,,,,181.55979272221407,182.80074101461668,0.15313504502886527,0.22335464895048243,793.0,115.6428,0.1458295081967213,168.0,0.6856138690124834,713.8,920.4,82.1917808219178,87.67123287671232,540.0,1102.0,14.6,250.0,,,0.03231805010637534,0.08196374742219067,0.03791944002057378,0.15220123754913978,0.3942968827414256,0.2123376302767651,0.538522214024231,-2.5014782340823705,129.2596435773613,119.41072016357806,1.0824793904625263,48490.44216851009,0.9238051170403492,5.392626254284956,441.2489372663465,0.684931506849315,0.7083333333333333,0.9215686274509803,0.3333333333333333,48.83065652296422,49.07731977258455,48.612265171185015,41.66666666666667,0.4159606135488886,0.5840393864511114,83.38114590815927,98.80133716378596,0.6568667805357554,0.34313321946424463,96.77918646808631,69.94790316056462,0.526865510372425,0.4731344896275749,90.32891681621773,85.59910449856307,0.519739439142636,2.079297873914993,0.724958734681024,1.3909227804209183,-1.6899808757683488,-2.2805031205764266,-0.1797168630360845,0.0027502600956247594,0.33805166357025607,0.38044751711612124,1.7227665977411033,6.080235517784125,1.6454944481716096,0.0,0.0,0.0,1.9056097350351893,1.9696254282256425,4.078305528421833,1.1022975241841126,Stress
