PPG_Rate_Mean,HRV_MeanNN,HRV_SDNN,HRV_SDANN1,HRV_SDNNI1,HRV_SDANN2,HRV_SDNNI2,HRV_SDANN5,HRV_SDNNI5,HRV_RMSSD,HRV_SDSD,HRV_CVNN,HRV_CVSD,HRV_MedianNN,HRV_MadNN,HRV_MCVNN,HRV_IQRNN,HRV_SDRMSSD,HRV_Prc20NN,HRV_Prc80NN,HRV_pNN50,HRV_pNN20,HRV_MinNN,HRV_MaxNN,HRV_HTI,HRV_TINN,HRV_ULF,HRV_VLF,HRV_LF,HRV_HF,HRV_VHF,HRV_TP,HRV_LFHF,HRV_LFn,HRV_HFn,HRV_LnHF,HRV_SD1,HRV_SD2,HRV_SD1SD2,HRV_S,HRV_CSI,HRV_CVI,HRV_CSI_Modified,HRV_PIP,HRV_IALS,HRV_PSS,HRV_PAS,HRV_GI,HRV_SI,HRV_AI,HRV_PI,HRV_C1d,HRV_C1a,HRV_SD1d,HRV_SD1a,HRV_C2d,HRV_C2a,HRV_SD2d,HRV_SD2a,HRV_Cd,HRV_Ca,HRV_SDNNd,HRV_SDNNa,HRV_DFA_alpha1,HRV_MFDFA_alpha1_Width,HRV_MFDFA_alpha1_Peak,HRV_MFDFA_alpha1_Mean,HRV_MFDFA_alpha1_Max,HRV_MFDFA_alpha1_Delta,HRV_MFDFA_alpha1_Asymmetry,HRV_MFDFA_alpha1_Fluctuation,HRV_MFDFA_alpha1_Increment,HRV_ApEn,HRV_SampEn,HRV_ShanEn,HRV_FuzzyEn,HRV_MSEn,HRV_CMSEn,HRV_RCMSEn,HRV_CD,HRV_HFD,HRV_KFD,HRV_LZC,Labels
74.35095501743635,811.027397260274,149.69078987131547,,,,,,,170.3228551897836,171.4860843120399,0.18456933807289974,0.2100087565045892,845.0,83.0256,0.09825514792899408,132.0,0.878864963275312,730.6,902.6,64.38356164383562,83.56164383561644,301.0,1143.0,10.428571428571429,578.125,,,0.040603932447990064,0.13088418091744303,0.047140301111344374,0.21862841447677747,0.31022796004355596,0.18572120437850487,0.598660431356444,-2.033442461975305,121.25897309617142,174.12474589281632,0.6963913858103385,66332.17752276617,1.435974109352853,5.5286943643172926,1000.1545075989152,0.6027397260273972,0.625,0.8444444444444444,0.2777777777777778,48.628948281846576,49.45933426322527,48.09760640691668,37.5,0.36569396149108235,0.6343060385089179,73.34219430033936,96.59272710498169,0.7534269127688461,0.2465730872311538,151.14057159201818,86.46360362069059,0.6267685989914069,0.3732314010085931,118.79088737346544,91.66817790447611,0.8712560920424348,1.8447693106466123,0.928549067797479,1.793640747365741,-1.2531131959968835,-2.259901521280794,-0.031056986596856594,0.005861491935433022,0.40523292116523135,0.6158263690228272,1.4469189829363254,6.0254409972361795,1.234256527035696,1.3206339459209364,1.083538586910495,1.27066845678265,1.6192444204323775,1.9195878611455022,2.6550675831092314,1.017505406939181,Relax
70.82488344796442,849.8550724637681,94.40623660890438,,,,,,,146.0782928674169,147.16430154956288,0.11108510105754438,0.17188612223485278,859.0,54.856199999999994,0.06386053550640279,74.0,0.6462714942499298,802.4,903.4,55.072463768115945,82.6086956521739,597.0,1143.0,9.857142857142858,281.25,,,0.033698848920384473,0.0906548517369007,0.02782392194748518,0.15217762260477036,0.371726921115988,0.2214441804489598,0.5957173609706459,-2.40069582157092,104.06087557427784,84.96242713965349,1.2247869920574666,27775.651787212235,0.8164685014494998,5.1506343689074905,277.47658226490074,0.6666666666666666,0.6911764705882353,0.9361702127659575,0.3333333333333333,49.919437527464495,50.162301091160764,49.68486788345092,42.64705882352941,0.4145955702208687,0.5854044297791311,67.00389830494716,79.61882137043922,0.7810414666669461,0.21895853333305387,75.08686227129613,39.756472928472135,0.5611677718586922,0.4388322281413078,71.16023915715958,62.92747355539648,0.5045696803145338,1.5719114157017746,0.8103208269591772,0.9657254972573422,-0.35696906494999503,-0.5953941787739774,-0.4011364961499531,0.0007208600740843423,0.16077484110353576,0.5343683530451973,1.6274564179367785,5.8476548915607784,1.401372238383119,1.0021582100978577,1.17123230496907,1.4028823988379506,1.763433894540298,1.9548558166203425,3.9025195377201,1.4164694392529087,Relax
70.17357556821145,858.0735294117648,98.69072998196059,,,,,,,146.13957752574416,147.24209105606226,0.11501430425154363,0.17031125249362633,868.0,60.7866,0.07003064516129032,81.5,0.6753182926409862,811.4,910.6,52.94117647058824,83.82352941176471,597.0,1143.0,9.714285714285714,289.0625,,,0.01763294088531754,0.07200327817309644,0.026043347559176182,0.11567956661759017,0.24489080681754258,0.15242917483956311,0.6224373091846254,-2.631043630820654,104.11588106182873,94.31289763033537,1.1039410693319667,30848.77617218181,0.9058454547806025,5.196208049410114,341.73163858251024,0.7058823529411765,0.7272727272727273,0.9583333333333334,0.35294117647058826,49.82148170187444,50.05881817251597,49.594744508333896,43.93939393939394,0.41898897480194336,0.5810110251980565,67.39374352762033,79.3616100612579,0.7587960200568343,0.24120397994316556,82.15492628375324,46.3194424269247,0.5721453662515352,0.4278546337484647,75.13770218523986,64.9759797858268,0.5021934197634027,1.8890216902857346,0.9140208360588464,0.986236615931778,-0.3001977538595728,-0.22156591579176999,-0.46177080430346557,0.0012236615092480533,0.24422722946902517,0.5256613804721244,1.7346010553881064,5.782243907394995,1.297659554867141,1.069455380418721,1.2991617261347554,1.5534784968062687,1.7241390232603533,1.9803732427322878,3.7595627954439217,1.1637796608272708,Relax
70.57173111227588,859.8529411764706,113.52023485953355,,,,,,,145.9424850933541,146.9857892871773,0.1320228488190231,0.16972958758932918,869.0,51.149699999999996,0.058860414269275026,68.0,0.7778422766127272,822.8,920.0,52.94117647058824,82.35294117647058,301.0,1062.0,7.555555555555555,578.125,,,0.038206083099033304,0.10664231291827948,0.04941627094948085,0.19426466696679362,0.3582638265573892,0.19667026276870003,0.5489537268066779,-2.2382749143157596,103.93464834302007,119.81972173590704,0.8674252187974612,39123.57480467782,1.1528371303134712,5.299408640305751,552.5304966439269,0.7058823529411765,0.7272727272727273,0.9791666666666666,0.2777777777777778,47.96687860416976,48.30756749745061,47.851921846818335,45.45454545454545,0.3862886085742095,0.6137113914257906,64.62314999403475,81.45434675976847,0.6474911709618971,0.3525088290381029,96.41513908739591,71.13990913424257,0.5352899016973769,0.46471009830262316,82.0732312035825,76.47122752280394,0.4205739523940941,2.224809816781148,0.8629035934757552,0.8516071754838502,-0.4132313300559982,0.2045719513746458,-0.5050774757944247,0.0010751907889088002,0.3025396776450807,0.6365677163662116,1.4929040961781488,5.752832142689113,1.1426694069284251,1.0966588322996715,0.9541370603489919,1.0419750062590125,1.534762711311335,1.984975319661147,2.407119896605277,1.253301173198599,Relax
71.88265689703803,839.1285714285714,128.6784467193458,,,,,,,152.81252130197535,153.93153724486666,0.15334771225853702,0.1821085903937465,866.5,62.2692,0.07186289671090594,78.75,0.8420674276099548,779.8,908.4,57.14285714285714,84.28571428571429,346.0,1062.0,8.75,531.25,,,0.021698111659896872,0.0419631319119503,0.02923032951376303,0.0928915730856102,0.5170756011592562,0.2335853612889038,0.45174315083755207,-3.1709638578212354,108.84603382431483,147.30689673053982,0.738906570161618,50371.57864091398,1.3533510735752075,5.409155671784252,797.4317873412331,0.6857142857142857,0.7058823529411764,0.9583333333333334,0.2777777777777778,50.180698701646364,50.451884442280104,49.98801604792171,45.588235294117645,0.4353753107030811,0.5646246892969189,71.82008771924468,81.78882420420214,0.6740448730127171,0.3259551269872829,120.93930967050207,84.1011605199615,0.589755418410865,0.4102445815891351,99.4596441366487,82.95304987012295,0.6113171561171886,1.7533854943156815,0.9497863018490644,1.1839235669162527,-0.40851470663276146,-0.6791137445106972,-0.3664656084892682,0.0014842804573241015,0.2308489845220071,0.6181247814396227,1.4929040961781488,5.900711588373539,1.173758775352923,1.1437733611445422,0.9502689598678143,1.0458702355369291,1.5663132504904684,1.9651013949313163,2.6950422412275534,1.1382954174326365,Relax
72.72064772656559,829.8142857142857,135.66842496355258,,,,,,,159.26484186747703,160.43133993630917,0.16349251549311689,0.19192829601672307,865.5,68.9409,0.07965441941074523,117.0,0.8518416454803074,766.6,905.6,60.0,84.28571428571429,346.0,1062.0,11.666666666666666,570.3125,,,0.010106923046673499,0.048198271802459204,0.015059802726303492,0.07336499757543619,0.2096947186840383,0.13776219424366837,0.6569654930186597,-3.0324321132891416,113.4420883838084,156.06392005865746,0.72689503340151,55619.43810502792,1.3757144485091521,5.452196707055224,858.7975588626895,0.6571428571428571,0.6764705882352942,0.9130434782608695,0.2631578947368421,49.867273416761485,50.18055595061253,49.63749764688164,45.588235294117645,0.4368351136009782,0.5631648863990218,74.9779869655872,85.13199094554844,0.6640066502381654,0.33599334976183454,127.17118728908315,90.46234723662631,0.5854707843639945,0.4145292156360056,104.389198210176,87.83761196068826,0.6662449355635911,1.4787742551834628,1.0764820577113485,1.259879178000732,0.3466152452520488,-0.35201819067897766,-0.3759803129879142,0.0039517091982782205,0.28041679378631423,0.5405961591038562,1.5712166996139028,5.986425874087824,1.1998051328412167,1.411317155444616,0.9711148579995009,0.9937718182100326,1.6842810619499464,1.8981588672594163,2.672631119777386,0.8756118595635667,Relax
73.0793481223379,824.8169014084507,128.1158303878793,,,,,,,141.14966727353124,142.1686252744337,0.15532638840100116,0.17112848564633582,861.0,63.751799999999996,0.07404390243902438,105.0,0.9076594572455214,778.0,897.0,54.929577464788736,80.28169014084507,346.0,1057.0,7.1,539.0625,,,0.02443404632952578,0.05070738028926738,0.009118517025062946,0.0842599436438561,0.48186370879620144,0.2899841285534424,0.6017969879447547,-2.9816838111433204,100.52839900352127,152.23368491899737,0.6603558145295624,48078.33273037884,1.5143351175190305,5.388919508670468,922.1312605686597,0.5915492957746479,0.6086956521739131,0.8571428571428571,0.15,49.88314344142566,50.221556207503845,49.63085166550987,46.3768115942029,0.4248959936212288,0.575104006378771,65.52856440990591,76.2364266845134,0.6687247347634336,0.33127526523656653,124.4899961414888,87.62040678237385,0.59468477873717,0.40531522126283,99.47801740317074,82.12590467791468,0.754976654011536,1.466880479840881,1.118206953632492,0.9338899800396352,0.5892712397427928,0.9733738680307265,-0.6256523459994848,0.0010240256803011303,0.16121464185616155,0.5482638385623422,1.409824858530085,5.874961556063458,1.1349958290999838,1.07007669210439,1.1818808191592205,1.3715482280119522,1.5683403679151022,1.8522131740926158,2.5634247390675173,1.039393879352904,Relax
72.46028059696533,831.7464788732394,131.53540732548666,,,,,,,141.04041973845654,142.05579051572528,0.15814362989991454,0.16957140585617256,869.0,75.6126,0.08701104718066743,121.5,0.932607883395442,778.0,917.0,53.52112676056338,76.05633802816901,346.0,1057.0,6.454545454545454,531.25,,,0.027442587057712436,0.072665232261196,0.024814426680251828,0.12492224599916027,0.377657735394965,0.21967734280007187,0.5816836839587759,-2.62189224458081,100.44861278048498,157.523476182613,0.6376739214670291,49709.4666226204,1.5681996179166393,5.403409213191406,988.1130206498981,0.5633802816901409,0.5857142857142857,0.8048780487804879,0.15789473684210525,49.52871870397645,49.93637677417599,49.20995751049841,47.14285714285714,0.42421872531361576,0.5757812746863841,65.42564094262755,76.22226271459888,0.6404928564007384,0.35950714359926156,126.06729439142028,94.44936650651087,0.5779704629019754,0.4220295370980248,100.43275662831985,85.82108181214727,0.7988792485370855,3.060239410742487,1.4581500568463612,1.7927010546697966,-0.903495618800207,-0.6587685176023634,-0.3906781617643878,0.007667913551731077,0.8357429773461218,0.553007465582922,1.4403615823901663,5.874961556063458,1.1013976497697542,1.2105679129788642,1.1290889134975974,1.3974776580535253,1.5102689700576946,1.8693875812520275,2.344426368267135,0.9527777227401621,Relax
73.51206527213813,820.0,129.4970770239486,,,,,,,140.67843663906444,141.666968556115,0.15792326466335196,0.1715590690720298,865.5,79.31909999999999,0.09164540727902945,115.25,0.920518311958473,753.4,901.6,52.77777777777778,73.61111111111111,346.0,1057.0,8.0,539.0625,,,0.032124985813653785,0.08539006426048525,0.022964260689736317,0.14047931076387535,0.3762145642103681,0.22868126017254647,0.6078479727453471,-2.460525528510086,100.17367413617032,154.34290783575113,0.6490332179226096,48572.46609626298,1.5407531885667514,5.393360263770631,951.2173095223911,0.5694444444444444,0.5915492957746479,0.8095238095238095,0.2222222222222222,49.01238207547171,49.477563795245814,48.64592765401799,45.07042253521127,0.41062898542473253,0.5893710145752673,64.19740760231011,76.91075533184083,0.6314841801562466,0.3685158198437533,122.65010256495754,93.69463986803389,0.5660163736117902,0.4339836263882095,97.88859688965755,85.71449651521861,0.9013757679299776,2.646903608905887,1.3252571580282164,1.89736799770669,-1.2416769780797843,-1.437289835504036,-0.2838565644198283,0.006111074410773913,0.6230144992464631,0.5669778270658421,1.475906519809578,5.937218230578931,1.1410740308791945,1.179517067615113,1.2161924814040337,1.5499686059352853,1.4098883603076255,1.860354757342957,2.3774180454586324,1.0283208335737186,Relax
74.05188264110576,813.9305555555555,126.20800251283022,,,,,,,133.76708789091919,134.71463542610329,0.1550599146958991,0.1643470526789786,849.5,94.1451,0.11082413184226016,117.75,0.9434906934338508,748.2,899.8,48.61111111111111,76.38888888888889,346.0,1034.0,10.285714285714286,437.5,,,0.02543446178978774,0.04068869707365236,0.007788790893568712,0.07391194975700881,0.6250989493162616,0.34411839862708915,0.5505022828841556,-3.201804938281108,95.25763223487112,152.28388849834727,0.6255266605955163,45572.57966375531,1.5986528840321148,5.365673722744918,973.7963101580315,0.5416666666666666,0.5633802816901409,0.775,0.1,49.381933438985754,49.795414958964095,49.06481400266661,43.66197183098591,0.4128386207070263,0.5871613792929737,61.20749253855399,72.9950096141608,0.6309827166672056,0.3690172833327943,120.96582440584595,92.50757818682261,0.5696290531128956,0.4303709468871045,95.86210882575841,83.32443654343702,0.859096231909283,2.608618410356577,1.3054317055651832,1.9079773126014468,-1.3536069576586254,-1.8215086203171778,-0.2690173447200733,0.0051691553873773975,0.6056692286299358,0.6506827772261019,1.5184661342283738,5.964996008356708,1.0701021896204923,1.3051090934982381,1.2011468562890464,1.507811776356796,1.4408787990899088,1.9187325687787986,2.418179337124465,1.0283208335737186,Relax
71.0070807940868,845.9,91.20944999349541,,,,,,,104.62839695453314,105.38035481808589,0.10782533395613597,0.12368884850991033,873.5,72.64739999999999,0.08316817401259301,118.5,0.8717466065463183,775.8,909.4,48.57142857142857,77.14285714285715,534.0,1084.0,10.0,367.1875,,,0.015878828772097058,0.025067056737713155,0.005577403135480516,0.04652328864529073,0.6334540563833929,0.3413092503662545,0.5388066378719025,-3.6862007754705894,74.515163495713,105.90344188248814,0.7036141807213028,24791.602866132398,1.4212334364478845,5.10127471633481,602.0540505532298,0.5428571428571428,0.5652173913043479,0.8205128205128205,0.1,48.85408708938121,48.94149834772526,48.80638634399004,44.927536231884055,0.44802541868008205,0.551974581319918,49.88339344086838,55.368684077469176,0.5266003933236374,0.4733996066763627,76.85120200805838,72.86584764122452,0.5005765576334403,0.49942344236655956,64.78603318331763,64.71137044192749,0.9487781332015746,2.102124896560895,1.3120536358120947,1.7234333531945165,-0.6795010506134709,-1.0559676244950547,-0.30430291365872475,0.00350653997256182,0.38789179028533965,0.5338811921379456,1.5198257537444135,5.900711588373539,1.2820950370838797,0.0,0.6809496395175874,0.8542364346575737,1.5457463211482294,1.9424827631514188,2.7392381871604674,1.2258566033889933,Relax
69.57771561017536,864.7794117647059,88.67967604210332,,,,,,,123.8420394949496,124.76818305356363,0.102546007497033,0.14320650770608917,880.0,74.13,0.08423863636363636,125.75,0.7160708625581038,778.4,927.2,51.470588235294116,79.41176470588235,655.0,1084.0,13.6,125.0,,,0.03860145461415715,0.0846316554031604,0.020326552082658593,0.14355966209997614,0.45611130291935253,0.2688878898814541,0.5895225313655461,-2.469446905014522,88.22442831349932,89.99890571725318,0.9802833446738932,24944.566130002662,1.020113220767477,5.103946064459305,367.2362943071026,0.6323529411764706,0.6567164179104478,0.8863636363636364,0.1875,50.80739137672715,50.82438568656369,50.79151213802721,44.776119402985074,0.4784379443132286,0.5215620556867714,61.02830937732542,63.71937767201663,0.49522060955466557,0.5047793904453346,63.333951352646494,63.9422679951504,0.48699578346034766,0.5130042165396522,62.19181593824841,63.83092012211921,0.6174238982660171,2.5306261278568893,1.159349938464829,1.5084127291278522,-1.0753678289850352,-1.2471639971934765,-0.3620646539524058,0.003425639025558933,0.5085319961882835,0.49421100790432115,1.791759469228055,5.852168723603281,1.2608795064836236,1.0310347706500822,0.7225929394740411,0.8502993454155388,1.6728373143321082,1.9378814230851227,4.116336360860077,1.1637796608272708,Relax
69.82381966385717,863.4057971014493,115.88461792568398,,,,,,,148.45661873779432,149.55484648486487,0.13421802160087612,0.17194304142522548,892.0,88.95599999999999,0.09972645739910313,137.0,0.7805958327150145,775.6,939.8,59.42028985507246,82.6086956521739,457.0,1136.0,8.625,445.3125,,,0.056990528486666636,0.10502029908662863,0.04200140714156238,0.20401223471485763,0.5426620280299961,0.27934858204127194,0.5147745145452314,-2.253601622874854,105.75124610876104,125.95882089404628,0.8395699908759594,41846.96374854207,1.1910859259710522,5.328634062730976,600.1111152752281,0.6666666666666666,0.6911764705882353,0.9148936170212766,0.17647058823529413,50.60074575334896,50.62676302334344,50.55292626521334,45.588235294117645,0.4555404533465184,0.5444595466534817,71.37811864216879,78.03410085034868,0.6768015658675666,0.32319843413243343,103.62374026430527,71.6082747638444,0.5853176853768731,0.4146823146231267,88.97391574854882,74.89013923800859,0.668145768030249,3.0098514251946282,1.1497082924602409,1.9903548181444948,-1.9521048019907692,-2.583100806745514,-0.22070165369378833,0.008750197120072857,0.8796860751254814,0.5514677886948545,1.6094379124341003,5.8367144929786985,1.2793277971715187,1.3743529290291825,0.9967177925417713,1.2954596950416923,1.7061691336497624,1.9619732207093996,3.003127873148744,1.1508814193929884,Relax
73.39725055825251,822.5416666666666,139.645621656704,,,,,,,160.69304129652522,161.80988173458928,0.16977331035717017,0.1953615820432909,852.5,96.369,0.11304281524926686,133.25,0.8690209640068818,742.0,910.6,66.66666666666666,88.88888888888889,312.0,1032.0,12.0,609.375,,,0.059166185152670914,0.035149314216839186,0.03557258887305722,0.1298880882425673,1.6832813518827012,0.45551663707743134,0.27061229934493675,-3.3481501711052863,114.41686463752134,161.71802595727263,0.7075084175696735,58129.73548272617,1.4134107456064615,5.4713684566812315,914.2959825850953,0.6805555555555556,0.7042253521126761,0.94,0.15789473684210525,48.773295588582194,48.55756700741934,48.85661071629935,46.478873239436616,0.4887601042882545,0.5112398957117456,80.00370527133639,81.82284871249944,0.5238298654794,0.4761701345206001,117.04518681842951,111.59365646019505,0.5121285009897087,0.48787149901029164,100.25010876428993,97.84713264471422,0.8967581407940438,1.266770961845019,1.106714936324832,1.3429112721030316,-0.3800358273102731,-0.9282008057027316,-0.3135445610197871,0.0004939854895166879,0.10470718434790477,0.6071176807893601,1.7047480922384253,5.992773786134486,1.25386405989475,1.2245341835286223,1.208786708171052,1.5433449704578701,1.797836135539768,1.9015615281699492,2.6216084948968037,1.1997076391693386,Relax
74.24424252112821,813.2739726027397,135.0625637203791,,,,,,,160.8803040220344,162.0091841327182,0.1660726498945186,0.19781809014146293,835.0,97.85159999999999,0.11718754491017963,141.0,0.8395220567328163,739.0,904.2,65.75342465753424,89.04109589041096,312.0,1004.0,12.166666666666666,601.5625,,,0.04578469549786031,0.07587094702105816,0.03945630341595821,0.16111194593487668,0.6034549098899827,0.28417939608504894,0.4709206792879659,-2.5787214475556044,114.55779271474502,154.5060621446182,0.7414452942792532,55605.79236962454,1.3487171713350525,5.452090143686614,833.5399163592292,0.6986301369863014,0.7222222222222222,0.9615384615384616,0.2222222222222222,49.91886879925822,49.638156864485296,50.0370961185058,47.22222222222222,0.5047372256428363,0.49526277435716354,81.38748389777919,80.62000066386909,0.5223328083497579,0.47766719165024213,111.66554156464943,106.78450293235518,0.516091104888873,0.48390889511112684,97.70648829053708,94.6110843758606,0.7974077805157376,1.5196709045486299,1.0786378096054785,1.2125760855372778,-0.3636235103640466,-0.5576684125482068,-0.41186363078288885,0.0004773333645604848,0.13832860011509687,0.6163469155120036,1.6259672143853108,5.987702812275036,1.256570189899059,1.251175051952753,1.035296543770382,1.0206757468016536,1.8262073421599188,1.8760582329497368,2.9409590918452246,1.1022975241841126,Relax
73.89251564719949,817.0555555555555,135.58759851147727,,,,,,,161.36037002338742,162.50670192030262,0.16594660863579186,0.19749008366226786,841.5,91.9212,0.10923493761140819,130.5,0.8402781828761631,739.0,907.8000000000001,69.44444444444444,87.5,312.0,1004.0,14.4,515.625,,,0.04387729420140898,0.06020315382240115,0.02319225087039155,0.12727269889420167,0.7288205254303897,0.34475024559574224,0.47302488550546407,-2.8100305389631903,114.90959091610691,155.05986122585136,0.7410659986902487,55976.47448085522,1.3494074775625764,5.454975652149709,836.955744831917,0.7361111111111112,0.7605633802816901,0.9629629629629629,0.3125,49.654364381956654,49.39507012514072,49.75759439051619,49.29577464788733,0.5060414715907215,0.4939585284092785,81.74385079537875,80.76204023461234,0.5154432928333037,0.4845567071666967,111.32426522652501,107.93733614998374,0.5121103209453647,0.4878896790546352,97.66050678519652,95.32307086432887,0.9657409388596605,0.7322830389294825,0.9531838928218456,1.0690305946853016,0.037492506247138735,-0.23253426350701645,-0.3418006485131607,0.0005087306568620512,0.029297528551317592,0.6296129283451202,1.6094379124341,5.909440452801153,1.214307111806806,1.03934637036441,1.0155188254133287,1.0018332963081176,1.6993368485444815,1.8864699186246612,2.7671291679455208,1.0283208335737186,Relax
72.69860051722705,829.3943661971831,125.25716162852889,,,,,,,141.7866606661471,142.80194917216852,0.15102244087193356,0.17095204217053753,853.0,71.1648,0.08342883939038687,108.5,0.8834199285041433,754.0,903.0,59.154929577464785,85.91549295774648,312.0,1004.0,14.2,570.3125,,,0.03286113909874181,0.1062670505701716,0.01976477383582547,0.1588929635047389,0.30923168491481307,0.20681305436009284,0.6687964540796185,-2.241800008097943,100.97622662629703,145.3890532729139,0.6945242736862155,46121.21278505274,1.43983448511088,5.370870828769427,837.3446906398572,0.7183098591549296,0.7428571428571428,0.9423076923076923,0.3125,49.2241379310345,48.880799768380726,49.32169092591096,51.42857142857142,0.537233823322499,0.46276617667750114,74.01615569825162,68.69508346856871,0.4678110227323525,0.5321889772676475,99.44133220509786,106.06318051458557,0.4904031345960999,0.5095968654039001,87.65549000225958,89.35438644415613,0.8789143159565107,0.6454653336595073,0.9652049670075606,0.9055361933870232,0.32841061384011727,-0.007562597271911997,-0.5924430337447273,0.00025056152575724753,0.020423413784338717,0.6539977944180921,1.7292391122467208,5.924395006828627,1.1127286225081492,0.8884979659884216,1.0973117441878197,1.3132143626991302,1.7102100545601016,1.917464167094659,2.1930523508362305,1.039393879352904,Relax
73.35801549237055,821.5,118.42499260392393,,,,,,,124.61732974686721,125.48968710382738,0.14415702082035778,0.15169486274725164,849.0,67.4583,0.07945618374558303,104.25,0.9503091812710025,763.4,894.8,51.388888888888886,77.77777777777779,312.0,1004.9999999999999,14.4,546.875,,,0.023827555609015113,0.09128895433718225,0.026056446703449133,0.1411729566496465,0.2610124716842121,0.1687827199663228,0.6466461885029228,-2.3937254807682375,88.73460872009439,141.61194248198532,0.6266039937371981,39476.87725594548,1.5959042872289875,5.303312901270704,903.9964245193006,0.6666666666666666,0.6901408450704225,0.9183673469387755,0.2222222222222222,48.82383690538422,48.475213466947004,48.899064814649485,52.112676056338024,0.5523651973121542,0.4476348026878458,65.95637086091727,59.37525939792961,0.4564330676681022,0.5435669323318978,95.6727880936561,104.40622525456757,0.48348426318812526,0.5165157368118747,82.16910988551744,84.9296217478888,0.9476196199132496,1.4392137670370557,1.2142758132253018,1.2535102562819822,0.06141570170465194,-0.05102836528473986,-0.47273897460176934,0.000754708459417556,0.1321333744954054,0.725625836486008,1.7525387560747736,5.9754805569978675,1.0989198135689915,0.9971692487702425,1.0319054014303053,1.1519520950807434,1.6838032968361882,1.9163608177286477,1.9838693864742798,1.0283208335737186,Relax
73.56766515849725,819.6111111111111,103.31253766210887,,,,,,,116.48889205340991,117.28300910767985,0.12605067972059647,0.14212702887286507,840.0,78.5778,0.09354499999999999,106.0,0.886887460606461,762.0,883.8,51.388888888888886,73.61111111111111,312.0,1062.0,10.285714285714286,546.875,,,0.013000854532070122,0.030705009067253958,0.02002829661320918,0.06373416021253325,0.42341151906498453,0.20398565680816044,0.4817669043549404,-3.4833294758986213,82.93161105800402,118.41944769995075,0.7003208735454904,30852.68791395794,1.4279168846379438,5.196263116105708,676.3725153610384,0.6805555555555556,0.7042253521126761,0.92,0.3125,51.860722181282235,50.990001657233876,52.41574197632871,49.29577464788733,0.5319872623893815,0.4680127376106186,60.50625705542479,56.751651958335096,0.3708018493088369,0.629198150691163,72.10974785184462,93.93268791163574,0.4238629814535165,0.5761370185464838,66.56133591700872,77.60186807772335,0.8494668637057797,1.8722105402051437,1.174564627111876,1.3120427861814221,-0.38963973605916813,-0.37536497973327876,-0.4265690710968424,0.0011107666201203828,0.22475522015581673,0.7491873234972037,2.093234863812172,5.9754805569978675,1.1221407302595905,1.2980745646308842,1.0472209198789204,1.126140345096696,1.6294145582919735,1.911877390857604,2.1972606751688355,1.1140142363715286,Relax
71.45731604559137,841.9285714285714,109.67466004460931,,,,,,,130.9219814140899,131.71520952204926,0.13026599139938325,0.15550248068187483,848.0,90.4386,0.10664929245283018,120.5,0.8377100534227482,767.6,906.6,51.42857142857142,72.85714285714285,401.0,1185.0,11.666666666666666,453.125,,,0.05183935485388813,0.020822342248999856,0.014609573791938727,0.08727127089482671,2.4896024776644947,0.5940025202149437,0.23859331983481138,-3.871728722170997,93.13671783844796,117.47412785848861,0.7928274892207932,34372.651226284695,1.2613084354363395,5.243183141329138,592.6844336537551,0.6857142857142857,0.7101449275362319,0.9387755102040817,0.3125,53.91259284850578,53.867182636916866,54.18548510485761,47.82608695652174,0.4667146924111714,0.5332853075888286,63.70791575159058,68.10005614578319,0.712447179855404,0.28755282014459616,99.1559010256954,62.99426964331778,0.6174560189755167,0.3825439810244832,83.33844022307252,65.59685836590748,0.7639419967618563,1.4493098459754088,1.1449300801403834,0.9596239880613977,0.48967299057463887,0.5805880824518326,-0.6278581613128225,0.0009936778366008896,0.1616985781731009,0.6219493671918408,1.9136492868370918,5.957854445516396,1.054656818952104,1.1201609092310978,0.8327565173858908,1.0091872565133553,1.6333260576378916,1.921420569193312,2.5109098123025086,1.2258566033889933,Relax
70.38439123727727,855.9420289855072,113.08155360805276,,,,,,,144.29030174086748,145.358630548647,0.13211356584753878,0.1685748530328455,853.0,83.0256,0.09733364595545134,109.0,0.7837086224349101,777.6,911.4,49.275362318840585,73.91304347826086,401.0,1178.0,11.5,445.3125,,,0.049481685828450625,0.10861036915744086,0.017456374795098716,0.1755484297809902,0.4555889664339719,0.2818691451138739,0.6186917723669784,-2.2199883957691586,102.78407336493834,123.87826579594608,0.8297183747651555,40000.99686674526,1.2052282200970192,5.3090409244980545,597.2063271758142,0.6521739130434783,0.6764705882352942,0.9130434782608695,0.23529411764705882,49.36268829663964,49.99619148258724,48.92064903889957,47.05882352941176,0.381909377364048,0.618090622635952,63.52129740394631,80.810031518555,0.6977634810396027,0.3022365189603973,103.47828800111344,68.1033673834832,0.568974099635875,0.4310259003641251,85.85659937221476,74.72727026661529,0.8314109015664425,1.889183498681184,1.2827187851997826,1.3527052261199375,-0.35844245672495134,-0.4598934120123013,-0.4629541328468031,0.0013131908648142644,0.25246332953001943,0.6121421786567711,1.580450375560848,5.963596920546285,0.9817574767974804,1.0052398189893208,0.9480729455082697,1.193634701903531,1.628468798141172,1.882720760949638,2.44214016302492,1.1508814193929884,Relax
69.94432365617544,861.0441176470588,120.83248967846521,,,,,,,159.0266099952054,160.21733176112096,0.14033251862710516,0.1846904319255686,858.5,90.4386,0.10534490390215491,127.5,0.7598256020304291,770.8,931.4,51.470588235294116,75.0,401.0,1178.0,11.333333333333334,445.3125,,,0.05423455052047069,0.08403866123124223,0.011522340920420645,0.14979555267213357,0.6453523857458647,0.36205714757885415,0.5610224050855679,-2.47647833326975,113.29076175190343,129.01836966315386,0.8780979177437083,45919.369814005135,1.1388251580979964,5.3689660292433,587.7174609167478,0.6323529411764706,0.6567164179104478,0.9090909090909091,0.2777777777777778,50.84944346807263,51.35795995065337,50.48176485210756,46.26865671641791,0.41126207953994176,0.5887379204600582,72.65735275311721,86.93231431825149,0.678962020545189,0.32103797945481116,106.31004217540465,73.10208371313297,0.562407008254537,0.43759299174546284,91.0519521384007,80.31544657140734,1.0105043994021434,1.3810523294942083,1.472682642901979,1.3489560445081183,0.5692546102424849,0.2940880570192599,-0.5895886388600307,0.002283524459581803,0.20441126319711317,0.589731039226999,1.504077396776274,5.910992253015046,1.0504830377931802,0.9886632318508894,1.136153937418777,1.246885150715392,1.637739175914897,1.8783883601851121,2.8482745375136376,1.0742581484559421,Relax
71.26586655896544,846.8857142857142,145.16862187975715,,,,,,,177.17427758475878,178.46396089054898,0.1714146542219055,0.20920683227511075,849.0,115.6428,0.13621060070671379,141.25,0.8193549529801787,762.0,955.2,57.14285714285714,77.14285714285715,401.0,1178.0,14.0,507.8125,,,0.047788589844814974,0.0453945895264268,0.006026832237334483,0.09921001160857625,1.052737569462865,0.48169120303463275,0.4575605706561841,-3.0923623544632743,126.19307694311799,163.41621372673183,0.7722188274055891,64785.907468370104,1.2949697216780942,5.518450656351927,846.4761952295754,0.6571428571428571,0.6811594202898551,0.8936170212765957,0.3333333333333333,50.73346593734461,51.41090589128714,50.164488544970034,44.927536231884055,0.3917694694269517,0.6082305305730483,78.98980760757905,98.42147511953821,0.564317443434156,0.43568255656584376,122.7600004344782,107.86492109164968,0.49985667068428546,0.5001433293157144,103.22162421836677,103.25121783013915,1.136443116418004,2.084443788836328,1.5055454783840134,2.0562740706144336,-1.2282209184367314,-1.924239116167132,-0.23579110399620198,0.0031083007915270627,0.3809334310293059,0.5589910608080086,1.5621850275835547,6.0149973026592525,1.0607213231439414,0.9104066423158477,0.7968434754086259,1.0671535474807354,1.7407294538179678,1.851178432875144,3.279308821561249,1.05073423147628,Relax
70.44894982913324,857.0869565217391,149.97340343917796,,,,,,,188.90964226628685,190.3133615714491,0.17498038244311334,0.2204089571412062,855.0,121.5732,0.14219087719298246,159.0,0.7938896164324719,768.4,962.4,65.21739130434783,85.5072463768116,401.0,1178.0,17.25,421.875,,,0.04955319806013736,0.05508542163135111,0.018502150796513402,0.12314077048800187,0.8995700966357828,0.40241097943240123,0.4473369901215481,-2.898870178024047,134.57186851757896,165.70897249253068,0.8120976582824734,70056.78122599109,1.231378997096145,5.55242028964767,816.2021934307404,0.6521739130434783,0.6764705882352942,0.9130434782608695,0.38461538461538464,50.20989836500222,50.79110758001354,49.753017506715686,44.11764705882353,0.40141615836446615,0.5985838416355339,85.26162546022333,104.11628831521661,0.5675856792904459,0.43241432070955416,124.84229363571133,108.96726703145819,0.5015479342303562,0.4984520657696437,106.8998200567816,106.56938297851411,1.0177842238003398,2.040072991026469,1.34779007574736,1.9949849654252447,-1.219981032239982,-2.071566562922036,-0.1827589539567177,0.004380718491373655,0.42171998583861026,0.45186698678005666,1.6341305250244718,5.992582427792661,1.1507986927820872,0.9435491721301856,1.022323365892456,1.1971290295800867,1.911168557360904,1.904710016787531,3.2532054252027405,1.0623520794396815,Relax
72.69494739339682,833.2816901408451,188.07477108081937,,,,,,,246.47723743061664,248.1853995435345,0.2257037125693115,0.2957910156275676,860.0,142.3296,0.16549953488372093,191.5,0.7630512782494263,723.0,962.0,66.19718309859155,88.73239436619718,345.0,1228.0,17.75,476.5625,,,0.031244661859469225,0.0755951521017544,0.052096748938257456,0.15893656289948108,0.4133156821671916,0.19658574018131883,0.4756309732806057,-2.5823631234909556,175.4935790087259,198.8370963635034,0.8825997875562308,109624.72482047298,1.1330163615480018,5.746878626173059,901.1427338501843,0.676056338028169,0.7,0.9183673469387755,0.3125,48.27758362456315,48.70868793157747,48.0665222465985,42.857142857142854,0.4134810651060112,0.5865189348939888,112.87924803825175,134.43963140664147,0.5402075099703818,0.4597924900296182,146.14290004836357,134.82745883433077,0.4846984562071288,0.5153015437928714,130.57463741521005,134.63368476810842,0.7067168044395531,2.1199260221922125,1.0825247796344257,1.4910970830989292,-1.0099932192913865,-1.3644907755791817,-0.30727049001360934,0.0022706462788538726,0.3446075817440622,0.49162230370978177,1.6863989535702284,6.065240077251162,1.2714975456540918,0.868859926367955,0.7839208040301001,1.2038752408707036,2.1082967240839103,2.009608817688111,3.3170044507460608,1.126010035965646,Relax
72.30485136787851,839.3,169.24943859218004,,,,,,,235.9557499660243,237.6831272271066,0.20165547312305498,0.28113398065771994,857.5,104.52329999999999,0.12189306122448978,140.75,0.7172931306677229,738.0,938.0,67.14285714285714,90.0,345.0,1135.0,14.0,578.125,,,0.011813422501895869,0.06572790339281015,0.04875423617675094,0.12629556207145698,0.17973222774649034,0.09353790670183591,0.5204292400680068,-2.7222317344797937,168.06735103591203,172.79249452358414,0.9726542318825823,91234.29115455782,1.0281145829844278,5.667128212107373,710.601933799815,0.7142857142857143,0.7391304347826086,0.9411764705882353,0.4,50.22760456926909,50.77626217520472,49.854674861731375,43.47826086956522,0.4444959278505762,0.5555040721494237,112.05198373444145,125.26486644189535,0.6091113888268017,0.39088861117319823,134.85691927856192,108.03174295723592,0.5290847533326154,0.47091524666738444,123.97990913072992,116.96611528789903,0.590305399468904,1.654846567192447,0.9560381209450057,1.092387434859762,-0.3887583646787576,-0.6693043944490131,-0.4176060689746715,0.001030394649519926,0.19053378918588376,0.5245913647885478,1.9252908618525777,6.043568731230679,1.3507909180980529,1.1889586498797922,1.1365410923455996,1.5216523525823868,1.9074033926124176,2.020443745728431,4.30683418714692,1.2258566033889933,Relax
71.33471610606817,850.3188405797101,172.58923461362917,,,,,,,236.58448932302238,238.32940431363411,0.20297002298098604,0.2782303272990276,874.0,99.3342,0.11365469107551487,122.0,0.7295035913279302,749.6,960.8,73.91304347826086,91.30434782608695,345.0,1129.0,13.8,578.125,,,0.011679164789550785,0.057296658620101415,0.04661300246392172,0.11558882587357391,0.20383675192977793,0.10104060406604487,0.4956937505600242,-2.859512970747074,168.52433794632105,178.24637528684076,0.9454573069164821,94369.83797984215,1.0576892184179143,5.6818033193865,754.1170774518592,0.7536231884057971,0.7794117647058824,0.9622641509433962,0.5,50.73203379904627,51.159042438779856,50.47499824198922,44.11764705882353,0.46039224815040863,0.5396077518495914,114.35425450060026,123.80193015639037,0.6069761054407259,0.3930238945592741,138.86938251972572,111.74553638283444,0.5377862401122201,0.46221375988778,127.20377534451947,117.92790766382471,0.5250765209116186,1.9738902914255536,0.8938440565376451,1.1901098505365035,-0.5528362709292018,-0.7698183780136743,-0.34990766949621405,0.0023899256137664485,0.3110936483529113,0.6118285245842547,2.0149030205422647,5.992582427792661,1.4413231310354608,1.3317698684470178,1.1854220791494254,1.3332972399622052,1.8817224106991157,2.0211090478486655,4.366506024019912,1.1508814193929884,Relax
68.74437364852268,878.3134328358209,132.64742615410907,,,,,,,190.27579664234435,191.73246949888235,0.1510251593509492,0.21663769393574986,883.0,68.19959999999999,0.07723624009060022,90.0,0.6971324177580106,823.4,941.0,62.68656716417911,89.55223880597015,395.0,1129.0,11.166666666666666,515.625,,,0.007350622938172867,0.1065834741190483,0.05143262467535121,0.16536672173257236,0.06896587861231279,0.04445043634631726,0.6445279497734308,-2.2388268062941377,135.57532935630257,131.5781278541526,1.0303789206256275,56042.079728596356,0.9705167487246517,5.455484353597188,510.79510739315486,0.6865671641791045,0.7121212121212122,0.9361702127659575,0.3125,50.25806451612903,50.217117172135694,50.21996854905913,48.484848484848484,0.48886095210673924,0.5111390478932608,94.79305394871015,96.92891923783833,0.39432558903783627,0.6056744109621638,82.62494495352138,102.40079199416033,0.44300775527592595,0.5569922447240739,88.91739032803288,99.70240113870547,0.5508010592481599,1.2761962699199951,0.7919042214852936,0.9609867964041033,-0.2545406488127906,-0.7424437402174904,-0.3675105241222735,0.0004359365567375246,0.10446252448928249,0.6095789249194161,1.9980959022258835,5.886984712845832,1.4118695226351063,1.4588324645161048,0.9860015128202992,1.0989977937560635,1.6437847130044982,2.020802925203527,3.389595187955387,1.086463735604377,Relax
68.57586762960047,882.0746268656717,136.8153271398675,,,,,,,206.38923215980807,207.96848649565007,0.1551062948336033,0.2339815995990988,885.0,75.6126,0.08543796610169492,99.5,0.6628995403884772,826.0,960.0,59.70149253731343,83.5820895522388,395.0,1226.0,13.4,476.5625,,,0.0029384476091627552,0.0548316995094115,0.059523269425202335,0.11729341654377659,0.053590306983980866,0.025052110303787248,0.4674746556550943,-2.9034867940696807,147.05592707417708,127.81138310162224,1.1505698749637472,59047.557893911835,0.8691345234738643,5.47817205060514,444.34114218625587,0.6268656716417911,0.6515151515151515,0.8837209302325582,0.2222222222222222,50.34519956850054,50.01398649991504,50.55439225044961,45.45454545454545,0.5185162394135243,0.4814837605864757,105.89330624592048,102.04180892766831,0.3530289042466163,0.6469710957533837,75.94071239532839,102.80446416007268,0.44730336907949536,0.5526966309205047,92.14223816144874,102.42384639445649,0.3347982723292026,1.5411608452860883,0.5842817756531572,0.5491507812045231,-0.41412890840438266,-0.11006381105012009,-0.5227951511719808,0.0002084916233825741,0.10872629243473479,0.5860598004607072,1.667706820558076,5.946686205383147,1.3821247869157243,1.1377780078255697,1.2269467438102528,1.4761917964112121,1.7330075747783138,2.0020584926427,3.7444364140114743,1.1770023802380751,Relax
68.87915253720816,877.7313432835821,131.1593504666553,,,,,,,193.56253394046726,195.0390792232224,0.14942994968823808,0.22052594500767425,885.0,69.6822,0.07873694915254237,89.5,0.6776071164009203,833.2,955.8000000000001,55.223880597014926,82.08955223880598,395.0,1226.0,13.4,476.5625,,,0.003233079999442794,0.039280421999009336,0.04780616125864264,0.09031966325709477,0.08230766969673424,0.03579597047699167,0.4349044336801576,-3.2370290521979466,137.91345551512083,124.662537483192,1.1062943070103592,54012.27565914598,0.9039185989326762,5.439462585435721,450.7391448847966,0.6716417910447762,0.6923076923076923,0.9111111111111111,0.29411764705882354,50.63855421686747,50.29537730633534,50.854255289317585,47.69230769230769,0.5335071453817678,0.4664928546182322,100.73762569551275,94.19852195476072,0.3365806734030671,0.6634193265969328,72.32368568982754,101.53833138272111,0.44495992955754815,0.5550400704424516,87.68918046865929,97.93721018706022,0.4628020258892849,2.5488057318173105,0.7933844318773063,1.3558904537691685,-1.8002776489920844,-1.8383850690073096,-0.27930604326960906,0.0028998622572654533,0.4447279295623646,0.582851109049153,1.504077396776274,5.916835459114489,1.334418167434471,0.8063027578662539,0.8239592165010823,1.2166985644675914,1.7271557908797348,2.0240187395144806,3.048720101715987,1.2675410248717731,Relax
67.1695719660187,895.1060606060606,88.9833396312744,,,,,,,146.63560277095056,147.7743813672097,0.09941094530297934,0.1638192491643573,884.0,57.8214,0.06540882352941176,86.5,0.6068331152173814,836.0,960.0,54.54545454545454,81.81818181818183,657.0,1129.0,9.428571428571429,226.5625,,,0.014579362695601554,0.10073753678653706,0.046785205231642195,0.1621021047137808,0.14472621785953768,0.08993937938895939,0.6214449649768986,-2.2952367901593487,104.49226715040098,70.57839170029308,1.4805135769333075,23168.919599105495,0.6754412898200979,5.071875892431672,190.68623969389623,0.696969696969697,0.71875,0.9347826086956522,0.375,49.61340206185568,49.53833901497594,49.683046078475456,48.4375,0.5090081065804255,0.4909918934195746,74.55099974178749,73.21975698197856,0.4778524597260132,0.5221475402739866,48.78863533139659,50.99978860250305,0.49924753748653233,0.5007524625134676,63.00072420218675,63.09560701823859,0.2698927067775492,1.5883434048403404,0.5343731122125133,0.7834605437087714,-0.6471053033316476,-0.9719827835676238,-0.3431778476007231,0.0006427254955498686,0.15664592507502287,0.4360101540974246,2.268683541318364,5.80196987693421,1.508869724702861,1.495366305963659,0.896744789969599,1.148954408397723,1.8032783211121397,2.0838971695010757,4.391173876852763,1.2821442071366418,Relax
67.02334226692187,897.6461538461539,81.8232528780081,,,,,,,135.82577305136164,136.89494491200293,0.09115312590314029,0.15131326800587017,886.0,62.2692,0.07028126410835214,97.0,0.6024133052205576,846.4,959.2,55.38461538461539,80.0,657.0,1077.0,9.285714285714286,226.5625,,,0.012579313550412995,0.07623536027915835,0.07128465782244575,0.1600993316520171,0.16500628454237132,0.07857193044224996,0.4761753811993372,-2.5739298782671796,96.79934385743614,64.61458441288009,1.498103636152776,19649.560526613073,0.6675105619315248,5.000322951543403,172.5236702016541,0.676923076923077,0.6984126984126984,0.9318181818181818,0.23529411764705882,50.55879112230441,50.53527454671687,50.574074209084344,46.03174603174603,0.49664397698678686,0.5033560230132131,68.21964991789855,68.67909041562403,0.524042030387843,0.47595796961215703,46.77498056244784,44.57741257892648,0.5050885309810504,0.4949114690189495,58.48854350015056,57.89630028140526,0.33067071456494246,3.3014365107593373,0.8880178907878292,1.4900945814036037,-1.6831128697791513,-1.4614132131895943,-0.3176319039746442,0.008819956061582031,0.9265544748350162,0.5133084065081186,2.3353749158170363,5.7454447361053775,1.4860642650410103,1.3330558993254968,0.9821044792099104,1.1675888153922547,1.8095327506126206,2.043859006442681,5.001384923646673,1.297125375113821,Relax
67.3354313184443,891.3636363636364,100.8214928801068,,,,,,,147.30016449935982,148.29036452695928,0.11310927299145077,0.16525260678153575,889.5,68.19959999999999,0.07667183811129848,95.0,0.6844628668459157,840.0,953.0,57.57575757575758,80.3030303030303,406.0,1077.0,11.0,492.1875,,,0.010597625102099807,0.07622079837159822,0.028950425773410924,0.11576884924710895,0.1390384951156422,0.09154124940362104,0.6583878035178936,-2.5741209090229495,104.85712234163795,76.68734444533155,1.3673328122137274,25262.21964063189,0.7313508394353446,5.109441616724552,224.3414149366426,0.6818181818181818,0.703125,0.9333333333333333,0.3333333333333333,46.75055514433753,45.69177527780221,47.48021702361929,45.3125,0.4069467577377447,0.5930532422622555,66.9612761228458,80.83543274765094,0.369728351606057,0.6302716483939428,46.62996359630365,60.88181414087723,0.39399463769242404,0.6060053623075758,57.698206232917684,71.55753796974962,0.3483966360257446,1.7195248884297838,0.6601318826472973,0.7466499749582485,-0.3488953633353553,-0.18327295671706,-0.44968488511384286,0.0006211749494328449,0.17268067431250836,0.5711470602638151,1.8827312474337816,5.80196987693421,1.2963307161092081,1.1900377699102607,0.8374263605519188,0.994292567228227,1.9122459762411952,1.993550334806362,2.897173065199539,1.0989807489742642,Relax
68.55041505722781,877.820895522388,92.43309216107949,,,,,,,135.6605612504529,136.69954462676714,0.10529835030421883,0.1545424151355178,876.0,83.0256,0.09477808219178081,105.0,0.681355666739665,817.0,950.6,61.19402985074627,79.1044776119403,657.0,1077.0,9.571428571428571,234.375,,,0.011077142740343427,0.05756303305877397,0.031082056001101074,0.09972223180021847,0.19243500822886203,0.11107997224265051,0.5772337022510147,-2.8548747044879006,96.66117499070012,88.48788520190675,1.0923662009793094,26871.119394387362,0.9154439226547811,5.136255868567622,324.02278694663795,0.7313432835820896,0.75,0.9583333333333334,0.42857142857142855,49.80392156862746,49.80563872254014,49.79869579310243,48.4375,0.49590746305520106,0.5040925369447989,68.06976059670188,68.62921557739992,0.5016576126325437,0.4983423873674562,62.674015318046614,62.46658011624364,0.4985291827454155,0.5014708172545844,65.42753435587746,65.62028216256128,0.5080275248742755,3.174213570206245,1.0729835372407819,1.568396687423851,-1.2746177176540847,-0.9807246893307544,-0.34392570341419104,0.008185678620010147,0.8661503064427276,0.3614023991685742,1.6863989535702288,5.816016242664287,1.2778296810237368,0.9972807266315034,0.8730895400147831,1.0159108027779908,1.9829239274962311,1.943893989294013,3.739446203624761,1.1770023802380751,Relax
69.40718494625051,866.6911764705883,103.36332923929588,,,,,,,135.2730240837992,136.24169068725135,0.11926200709717688,0.15607984453547716,875.5,74.13,0.08467161621930325,98.0,0.7641089562340541,799.6,941.4,55.88235294117647,76.47058823529412,619.0,1077.0,13.6,273.4375,,,0.013669471764893864,0.019445887133190273,0.020707676293537598,0.05382303519162174,0.7029492494360304,0.2539706598899071,0.3612930237761337,-3.9401196897259725,96.33742336527551,107.29026430255105,0.8979139346102337,32471.714086565215,1.113692483716805,5.218475324325046,477.95344371896215,0.7352941176470589,0.7575757575757576,0.96,0.3333333333333333,48.06952776495925,47.753825830212534,48.34401957820369,51.515151515151516,0.47513374588811425,0.5248662541118857,66.43081386151331,69.8209832140002,0.4949325996906509,0.505067400309349,75.48025267902342,76.24914602552633,0.48609129829658565,0.5139087017034143,71.09965391896169,73.10575205341826,0.531073460769251,1.752497234881313,0.9202364151915552,1.0505974770641149,-0.23368583696190726,-0.4389031090111861,-0.4256141126628435,0.001353406644944059,0.23013025954629301,0.4175519740268401,1.5841201044498103,5.899890966218525,1.0766778340284113,0.67068309827948,1.1478611724977887,1.2650414127127263,1.948022500166555,1.8541339476091157,4.316678420188299,1.253301173198599,Relax
70.7938318255543,850.3768115942029,130.8229721517813,,,,,,,145.46017243460795,146.52592908044807,0.15384118001351335,0.17105378515897385,875.0,93.40379999999999,0.10674719999999999,112.0,0.8993731408547117,782.8,940.6,53.62318840579711,75.36231884057972,380.0,1077.0,13.8,515.625,,,0.02275389240810073,0.026110160379298215,0.005015062692258274,0.053879115479657215,0.8714573973333942,0.4223137704755337,0.4846063293143047,-3.6454307538426947,103.60947807244396,154.25572070591235,0.6716734886609155,50210.04815037422,1.4888186252425326,5.40776074781556,918.63516014869,0.6956521739130435,0.7164179104477613,0.9375,0.2857142857142857,51.04693140794224,50.65671268528994,51.25645762008472,49.25373134328358,0.5446684677183381,0.45533153228166184,76.47372975920281,69.92138442565336,0.3618537233093548,0.6381462766906452,92.79141597970649,123.22572982531493,0.41869725586419165,0.5813027441358086,85.02493229283547,100.18378234769715,1.0666592946192925,2.3595977548541542,1.0939587281538823,2.237424424561586,-1.2552959830120418,-2.2372284880424744,-0.015398040172156029,0.009897396555287147,0.6978712826087249,0.4767561649882439,1.277660520117095,5.9056259060535305,1.0156030786906332,0.9408547609930711,1.2114062631906755,1.43109118417475,1.7444646931920926,1.7615699059407794,2.8878707066849674,1.0623520794396815,Relax
71.70495102178202,841.2857142857143,141.75332144534303,,,,,,,165.8107879219695,167.011934782402,0.16849605198121942,0.19709212352755756,871.0,96.369,0.11064179104477612,126.25,0.8549101251002564,778.0,939.8,57.14285714285714,77.14285714285715,380.0,1093.0,14.0,539.0625,,,0.03147572454806905,0.02423242864294662,0.007505606095623629,0.0632137592866393,1.2989092018736121,0.49792521285348834,0.383341046576047,-3.7200635162857787,118.09527162372186,163.1832935613438,0.7236970712282353,60542.18299224721,1.3817936257539805,5.489028186384038,901.9425394904216,0.6857142857142857,0.7058823529411764,0.9166666666666666,0.2857142857142857,49.05806451612903,48.613950347509686,49.34595069945791,52.94117647058824,0.5551029186645243,0.4448970813354756,87.99431799837986,78.77667615406448,0.31954739634924006,0.6804526036507598,92.24510636810332,134.60916628768268,0.4005209493046031,0.599479050695397,90.1447714758396,110.28461441775856,0.9130246195605151,1.4336553996340182,1.2406256150669668,1.145520084848104,0.14985103314134385,0.3146472186895002,-0.5663377895714279,0.0005924072336355371,0.12881742105902128,0.5278604696532523,1.3545456628053105,5.832784624056918,1.034166311459822,1.0108460607418712,1.1411319111154938,1.2674150318707906,1.8316886621216244,1.777810043091584,2.598338091793626,0.9631730455199232,Relax
70.08719871701057,861.6666666666666,143.84005278194846,,,,,,,206.7165222913623,208.25345609477176,0.16693236299645856,0.23990312064761585,857.0,84.5082,0.09860933488914819,109.0,0.6958323949510389,793.6,927.4,47.82608695652174,73.91304347826086,431.0,1712.0,13.8,437.5,,,0.026272400447164654,0.18047404867356676,0.01163210558422863,0.21837855470496007,0.14557439499063368,0.12030668708591799,0.8264275258960107,-1.712168286207449,147.25743101014805,141.64279279461581,1.0396394204375337,65527.19438941505,0.9618719532385072,5.523391683575189,544.968919070057,0.6811594202898551,0.7014925373134329,0.8723404255319149,0.4166666666666667,49.961004523475275,48.402272002242,51.63054589714247,49.25373134328358,0.6284259144863109,0.3715740855136889,116.73586078849056,89.76353679146914,0.2549493187617595,0.7450506812382405,71.51899600745975,122.26084393927364,0.4489432276856458,0.5510567723143543,96.80451431608158,107.25018997199226,0.3306278667760501,2.438613203903842,1.0005218404683527,0.9437114243630169,-0.775202770345631,-0.5249561776497333,-0.523296198025333,0.0037794634081407302,0.4352062703150496,0.7246500280927584,1.2139231351791042,5.7787434784859455,0.8167863893529507,1.006557118139911,1.0683682686956981,1.1533396889918888,1.4093295272753732,1.869261092398611,2.0255901614483975,1.0623520794396815,Stress
70.4740627944586,856.6521739130435,144.48832907142244,,,,,,,210.38539565730875,211.9427729965354,0.16866627257994804,0.24559021976948187,850.0,78.5778,0.0924444705882353,103.0,0.6867792729623481,789.6,920.4000000000001,55.072463768115945,75.36231884057972,431.0,1712.0,11.5,429.6875,,,0.025612742812509966,0.18837492061730604,0.008372704322302279,0.2223603677521183,0.13596684064193265,0.11518573688033473,0.8471605013142524,-1.6693210434433643,149.86617200933125,140.54327480865834,1.0663347087462243,66170.36891234852,0.9377918507180364,5.527633665886188,527.2013511551412,0.6666666666666666,0.6911764705882353,0.8936170212765957,0.35714285714285715,49.18009411093683,47.65818594222731,50.858531101836824,47.05882352941176,0.6156543736712232,0.3843456263287769,117.5942619678409,92.91345676359906,0.2742495322810011,0.725750467718999,73.60088163999937,119.73020636312648,0.4559061438785718,0.5440938561214282,98.09561719553628,107.16396960620217,0.6680372821299213,1.782894706320883,1.072552449975952,0.7953570805034876,-0.05583192600964715,0.562920710950505,-0.655474896240213,0.0017618775597265646,0.20592712269925162,0.7167700895532745,1.4796263009121096,5.8077289857323215,0.9516874086772148,0.884360744444265,1.2018788072350353,1.22757826238642,1.4137087268709752,1.9202575337699863,2.007244525771734,1.327940099299602,Stress
69.93144819629207,861.0441176470588,105.2358309423896,,,,,,,132.43207214018545,133.42486116750024,0.12221886055033207,0.1538040495556457,867.0,74.87129999999999,0.08635674740484428,100.75,0.7946400689932014,798.2,930.0,55.88235294117647,69.11764705882352,431.0,1108.0,11.333333333333334,421.875,,,0.03565686498616999,0.15195214131626564,0.02164894238858434,0.20925794869101996,0.23465852259334447,0.17039670516324887,0.7261475239854842,-1.8841896674760128,94.34562411041306,116.07074138593106,0.8128286507339282,34402.84770386017,1.23027159426168,5.243564502849756,571.1941442080182,0.6911764705882353,0.7164179104477613,0.9166666666666666,0.4166666666666667,50.75029505985502,50.47279629606072,50.94635771374488,43.28358208955223,0.5095845924856794,0.4904154075143205,67.35219507794962,66.0732490681686,0.36961617792699525,0.6303838220730048,70.56644585886345,92.15635477126787,0.4253046987760495,0.5746953012239504,68.97804528605492,80.18250422365227,0.7884710058124702,1.4116051577236526,0.9522283321158256,1.0822435838470597,-0.515162529961982,-0.5498270881759155,-0.40789545432031715,0.0002760748857660224,0.09394535133254757,0.6180965116262871,1.890850371872286,5.84106743680676,1.1806438702827748,1.4849497210449045,1.0567941533642808,1.4119918525801225,1.78545821540515,1.9126665715237654,2.676130237186336,1.253301173198599,Stress
68.07376178159444,887.2388059701492,146.12086005771812,,,,,,,212.90063836959675,214.53134099799092,0.16469169188101798,0.23995866381971542,893.0,65.2344,0.0730508398656215,86.5,0.6863335928756186,831.4,943.6,46.26865671641791,59.70149253731343,431.0,1712.0,13.4,421.875,,,0.04068375556331873,0.1424594043103412,0.017163432507020352,0.20030659238068027,0.2855813960494391,0.2031074218765588,0.711206768669894,-1.94869820189272,151.69656599672297,142.3685428082762,1.0655202547167217,67848.4080683031,0.9385086727101768,5.538509772196865,534.4564485867091,0.5522388059701493,0.5757575757575757,0.8421052631578947,0.21428571428571427,50.287133322986186,48.76293619960867,51.84217141996653,46.96969696969697,0.6165871262528158,0.38341287374718425,119.11720149628974,93.93135791629972,0.25930113250367987,0.7406988674963203,72.4963675521567,122.52786896496073,0.44926680316701467,0.5507331968329853,98.60180272328972,109.17000199939218,0.6142865358599375,2.218871931814801,1.1288389780595074,1.0433001827044734,-0.4156763613702399,0.08173300983178855,-0.538550577943934,0.0013700891592109427,0.31685971593456336,0.6511728028247901,1.1616252564968437,5.845866988932945,0.8827903103934281,0.9365134211942203,0.9252975629004435,0.9527208091414746,1.3189768066598575,2.0048738740052325,1.895662735610303,1.1770023802380751,Stress
68.46522605555292,877.5522388059702,63.86047375762388,,,,,,,72.85186297819665,73.38160945400834,0.07277113650181645,0.08301712394617279,869.0,60.7866,0.06995005753739932,74.0,0.8765798312767411,833.8,927.8,35.82089552238806,55.223880597014926,741.0,1063.0,9.571428571428571,140.625,,,0.016016352709646773,0.06667528714438274,0.005448399207196313,0.08814003906122582,0.24021422922355,0.18171483562108628,0.756469906917868,-2.70792090229592,51.888633659312156,73.55049642575857,0.7054831195012835,11989.683419047633,1.4174683594228519,4.785777825906692,417.0220060134253,0.5373134328358209,0.5606060606060607,0.8108108108108109,0.2,52.05521472392638,52.21111085722774,51.89902624515121,46.96969696969697,0.43450246654181696,0.5654975334581829,34.216617645187014,39.03519122338398,0.694228746223773,0.305771253776227,61.282560788809036,40.67091427102972,0.6078736988331981,0.39212630116680197,49.630278963103756,39.86144391192825,0.6950412175397334,1.8052661927202025,1.0615507658200471,1.0682653292129183,-0.21884366807627487,0.08330594290051563,-0.49628056880478466,0.0007504425011932865,0.19807552066166118,0.4934830797643994,2.4277482359480516,5.786165496395631,1.2469575424391823,0.0,0.0,0.0,1.7911753059420115,1.8730195252642512,2.376255983703067,0.995925090970679,Stress
67.89153370875736,884.3030303030303,61.93569113871126,,,,,,,75.2502491690227,75.7967867697265,0.07003899004788815,0.08509554597278285,879.0,54.1149,0.061564163822525594,74.25,0.8230629376335346,841.0,928.0,40.909090909090914,62.121212121212125,729.0,1063.0,11.0,156.25,,,0.017809010840815525,0.0439051003573099,0.0026332103745909173,0.06434732157271633,0.40562510268469176,0.2767638249043556,0.6823143416730175,-3.1257247843896248,53.59642191702439,68.29800368746004,0.7847436092318031,11499.889826262019,1.2743015530625532,4.767663789613172,348.12900868000924,0.5454545454545454,0.5692307692307692,0.8108108108108109,0.21428571428571427,52.27206946454414,52.20319991828293,52.340111919490404,50.76923076923077,0.46682551369444314,0.5331744863055569,36.6384361019954,39.15563896171278,0.5799715077750914,0.4200284922249087,52.01293236432738,44.263666528612525,0.5368217758901545,0.4631782241098457,44.987332289968556,41.78777474965742,0.8057320904801426,1.9897465351395778,1.1663932648519824,1.1673151336533214,-0.4987928114480127,0.10749247847753951,-0.4995366903346439,0.0005356561299663206,0.21089549517937106,0.4836876481279946,2.833213344056216,5.760229157204461,1.2168397228027654,1.156243203321068,1.2576094803481088,1.3680676684178688,1.8820353032312005,1.9004335690285166,2.9971500449188477,1.2821442071366418,Stress
69.85405100588318,862.25,111.68991923939014,,,,,,,137.08026845611298,138.11466699542905,0.12953310436577575,0.15897972566670104,871.5,59.303999999999995,0.06804819277108433,78.25,0.8147775058899035,813.4,925.4,48.529411764705884,69.11764705882352,424.0,1080.0,13.6,500.0,,,0.04131064142513913,0.04015475404705323,0.007014830639046394,0.08848022611123876,1.0287858164124584,0.46689122802650534,0.45382743480526405,-3.2150144384494195,97.66181761378971,125.62439889395374,0.7774112232467776,38543.280196893975,1.2863205084994829,5.292918782159543,646.3729626608498,0.6176470588235294,0.6417910447761194,0.8604651162790697,0.2857142857142857,49.87026466009341,49.85224965921337,49.92709717112204,53.73134328358209,0.5022291554308709,0.4977708445691294,69.2111941375049,68.90331390192105,0.6783968692573009,0.32160313074269903,103.47034906261028,71.24167644243636,0.6120340840694947,0.38796591593050533,88.02358357019388,70.08224856907582,0.9480099144710901,2.1247981610177016,1.2657159918879435,1.8466645867001499,-1.4152948635708462,-1.9680953456170212,-0.22658645631830132,0.003002449729637171,0.37034351184565145,0.5601926139674558,1.3714792753347498,5.969815782426812,1.0090300778877725,1.141558393777988,1.0332988354395085,1.1647083955002202,1.7286614635249624,1.9489040974769418,2.5123834243646663,1.1637796608272708,Stress
71.79581227136772,841.6,149.37690875622383,,,,,,,175.05568472238537,176.33728845861776,0.17749157409247127,0.20800342766443128,868.5,80.8017,0.09303592400690847,107.0,0.8533108136026282,794.6,930.6,51.42857142857142,71.42857142857143,364.0,1080.0,17.5,523.4375,,,0.01564536702234346,0.015356879522531537,0.002001167047085811,0.03300341359196081,1.0187855546687499,0.4740529939046809,0.46531185265854647,-4.17619172798679,124.68929244513693,168.79147875183963,0.7387179339097885,66119.49854483345,1.3536966602493763,5.527299661152224,913.9698442596754,0.5857142857142857,0.6086956521739131,0.8333333333333334,0.2,49.74489795918368,49.48669178919512,49.929826501928154,53.62318840579711,0.5321489545843637,0.4678510454156362,90.95946899581152,85.2874464936767,0.5857448421744105,0.4142551578255894,129.18281814223255,108.63868001804698,0.5668229244188362,0.43317707558116375,111.7180054941215,97.66348172545193,0.8555024524366674,0.8784235088336438,1.1112007346704973,1.1195243742031937,0.5007803996730953,-0.13318366447275531,-0.49052434338449297,0.0006499980782517349,0.07009050614776309,0.5604740756530529,1.171182981502945,6.0149973026592525,0.9447671011358381,0.962242111505621,1.0471292431188175,1.0897940027004231,1.747541405255172,1.9427319843631832,2.2648505833965222,0.9631730455199232,Stress
72.31331975550042,834.8732394366198,147.19432535427103,,,,,,,176.788493484648,178.00392207277883,0.17630739422621705,0.21175489299902164,865.0,78.5778,0.09084138728323699,108.5,0.8326012765477473,789.0,927.0,59.154929577464785,77.46478873239437,364.0,1080.0,14.2,507.8125,,,0.04092668159469773,0.13930507696748912,0.026374393806161175,0.206606152368348,0.2937917446056123,0.19809033334947135,0.6742542531798806,-1.9710889525756086,125.8677803754637,165.36639788256332,0.7611448395027025,65390.056525438675,1.3138103920580406,5.522481822743969,869.0403681412658,0.5633802816901409,0.5857142857142857,0.8292682926829268,0.11764705882352941,47.984071677451475,47.81396765679784,48.145193784020876,57.14285714285714,0.5245763765476791,0.47542362345232086,91.19432985170431,86.81681530838283,0.5583339191913905,0.44166608080860964,123.56465831930421,109.89913904616287,0.5459454417400705,0.4540545582599293,108.59242741247624,99.03277281631999,0.7904196404027282,1.79286290318921,1.1283591158516533,1.3391213206615387,-0.6756019786753491,-0.9057774619383943,-0.3824437694399422,0.00076744301713643,0.20339430661981267,0.5797437163355754,1.32687094064909,6.008902049082148,1.0779139980746204,1.0810487663192607,1.1109003219589055,1.1385377317680663,1.8763599643486513,1.9004270767494449,2.4861612599426417,0.9527777227401621,Stress
72.18004581046817,837.9714285714285,150.00453823362554,,,,,,,184.2591118231472,185.58558504814997,0.17900913219601397,0.21988710538409603,863.0,81.54299999999999,0.09448783314020856,110.0,0.8140956327717493,788.6,941.2,65.71428571428571,85.71428571428571,364.0,1080.0,14.0,484.375,,,0.0241640932240686,0.09491446602329968,0.01861002908009917,0.13768858832746747,0.2545880963828715,0.17549815505841823,0.6893415581948066,-2.354779150596476,131.22882567801958,166.54563081652734,0.7879451717504734,68661.3532990884,1.2691238373584197,5.543682468977744,845.4681203085995,0.6571428571428571,0.6811594202898551,0.8936170212765957,0.17647058823529413,51.14668483197096,50.6517215470523,51.572350111812405,50.72463768115942,0.5414219293722319,0.4585780706277684,96.57216899049855,88.87726997183846,0.599873152168652,0.400126847831348,128.9920534429453,105.34940575365086,0.5774803532192391,0.42251964678076104,113.94106738783225,97.46195773299043,0.8395551050197662,1.373728476714903,1.0036000964879601,1.261596562478846,-0.7200259835549936,-1.0859961118324057,-0.3121925326845872,0.000327388972770069,0.1002168609127159,0.6561550791915378,1.4759065198095778,5.87214015980211,1.2447397225509433,0.8847243358480549,1.208859651476209,1.384963257472573,1.8503009791747536,1.9495698376581552,3.152597484550516,1.05073423147628,Stress
73.92953573105552,818.9861111111111,159.35623067544634,,,,,,,186.87560824716124,188.20236443753643,0.19457745194146112,0.22817921538819355,854.0,101.5581,0.11892049180327868,142.25,0.8527395959813127,742.2,925.2,73.61111111111111,91.66666666666666,364.0,1052.0,14.4,484.375,,,0.030465544767607825,0.07305039448896414,0.02023988684380374,0.1237558261003757,0.41704832644278617,0.2461746305414169,0.5902784280209525,-2.616605740540405,133.07916812912393,183.64791515408677,0.7246429561558922,76779.61897558665,1.379989954369846,5.592216062530742,1013.7291122144221,0.6805555555555556,0.7042253521126761,0.94,0.15789473684210525,50.39151551194371,50.21543137999994,50.4683868417375,49.29577464788733,0.4995609996704979,0.5004390003295024,94.06153001398303,94.14415238649413,0.560268870234516,0.43973112976548384,137.46250340317576,121.78102027235009,0.5393661497744979,0.4606338502255021,117.7784175272353,108.84332392743703,0.6674433292080435,1.019446182015229,0.8179645352101272,0.9551496762333715,-0.1752826278328996,-0.6722704811035904,-0.36543169865812986,0.00011244923495677807,0.05333275147087613,0.5387415017590516,1.6796421711073486,5.9754805569978675,1.356510088185165,1.2619468230128863,1.224033557680635,1.2942065734750081,1.9286123392284806,1.9267800505075368,3.705061573161753,1.1140142363715286,Stress
72.70360999640087,831.8714285714286,152.66814644829677,,,,,,,193.43515559558932,194.85112466781845,0.18352372879361117,0.23253011096651702,863.0,75.6126,0.08761599073001158,102.25,0.7892471561243849,776.8000000000001,922.8000000000001,64.28571428571429,84.28571428571429,364.0,1080.0,11.666666666666666,554.6875,,,0.003979607122822697,0.13927480031831657,0.02601751070245089,0.16927191814359016,0.02857377726428033,0.023510143717086443,0.8227873934775903,-1.9713063167986582,137.78055157443978,167.42568556692032,0.8229355675498707,72470.26971640976,1.2151619633810504,5.567129987619665,813.7972991756692,0.6428571428571429,0.6666666666666666,0.8913043478260869,0.16666666666666666,50.24421320874921,49.940352971315136,50.48270250797023,47.82608695652174,0.5295431376133711,0.4704568623866287,100.26310974865375,94.50404597625624,0.6027712390027115,0.3972287609972885,129.98652896043794,105.521857813301,0.5732032546244407,0.42679674537555934,116.08012079519334,100.16455755967992,0.7963293667827109,2.49203992526397,1.1562818001703388,1.8287957791216327,-1.471605478229506,-1.9513404227135598,-0.23013515067177034,0.005852103358259572,0.5719945287374221,0.6104495136889616,1.6094379124341005,5.929283016944967,1.1883949468676154,0.9697342712382011,1.144880884698579,1.261199957395716,1.7153951120963025,1.9977587209542051,3.0786838161358157,1.1382954174326365,Stress
69.99314569999744,861.1029411764706,106.85142980288967,,,,,,,140.54212732216203,141.60156005191516,0.1240867086772521,0.16321176087280365,865.5,63.751799999999996,0.07365892547660312,85.75,0.7602804357582846,817.4,917.6,52.94117647058824,79.41176470588235,364.0,1052.0,9.714285714285714,500.0,,,0.0088290083703333,0.08749499001473476,0.03566228141056146,0.13198627979562952,0.10090873053241602,0.06689338000892465,0.6629097369076085,-2.436173744232271,100.12742333930333,113.98408464050688,0.8784333677380846,35854.7855160026,1.1383902715068106,5.261517238849587,519.0334922454475,0.6617647058823529,0.6818181818181819,0.9111111111111111,0.2222222222222222,49.68982630272953,49.339291772076535,49.82753977054211,48.484848484848484,0.520606926151777,0.47939307384822305,72.245687718641,69.32706848152765,0.36639122486867126,0.6336087751313288,68.99486159593502,90.73081408591024,0.4335610036337076,0.5664389963662926,70.6389776277291,80.74132476289459,0.5198903455828755,2.8689965112346423,1.036560518207159,1.762202374193698,-1.8428073748553295,-2.458434920842332,-0.24707468163693702,0.005812226048791267,0.7333563729525127,0.5363507669291194,1.540445040947149,5.800554385304356,1.1260616073153809,0.769707468318912,1.0036901467820782,1.2133326636924113,1.7384184423365352,2.0215614635401242,2.325357184903373,1.253301173198599,Stress
68.89735951804775,872.2985074626865,75.78778484077704,,,,,,,103.42007600660581,104.20411317600282,0.08688285511484603,0.11856041839098265,879.0,65.2344,0.07421433447098975,90.0,0.7328150178108185,819.0,922.8000000000001,40.298507462686565,71.64179104477611,672.0,1052.0,9.571428571428571,187.5,,,0.0576003650903781,0.08569875255799714,0.03369068738315094,0.17698980503152617,0.6721260621780546,0.32544453665067363,0.4842016326461974,-2.4569170094003607,73.68343505428206,78.43352195309964,0.9394380517343341,18156.053493019408,1.0644661435140508,4.9659915635924685,333.9593145425625,0.6716417910447762,0.6923076923076923,0.8888888888888888,0.3125,49.0590525632706,49.0522502248832,49.070983681051565,46.15384615384615,0.4804644172048555,0.5195355827951444,51.07822055812649,53.11446275588367,0.5517986650648369,0.448201334935163,58.26289222363985,52.50954918587563,0.5183540070778763,0.48164599292212384,54.78845328008489,52.8128720557311,0.7262120691003868,2.552564582730581,1.2478919660756058,1.3922907536520606,-0.4976129152570783,-0.06110009767875102,-0.4434299180700903,0.0030647763288236154,0.48808333281528565,0.4632041803457372,1.6376087894007967,5.745047772482743,1.183879171256034,1.024286210424293,1.2936932572011932,1.6909499859946864,1.8641232733490782,1.900217647609383,3.7203873129922953,1.1770023802380751,Stress
68.72417105206819,874.8507462686567,75.00550560223407,,,,,,,97.9501264559024,98.69135920780695,0.08573520217264663,0.11196209967662649,889.0,80.0604,0.09005669291338583,91.5,0.7657520037608312,823.6,945.0,34.32835820895522,70.1492537313433,672.0,1052.0,9.571428571428571,281.25,,,0.04610437804831809,0.029468509074416647,0.01370999811108586,0.0892828852338206,1.5645303918121878,0.516385396009286,0.3300577596394017,-3.5244330748113786,69.7853293403577,80.41934165871112,0.8677679759742036,17630.901478653755,1.1523817744914422,4.9532446285683,370.69513457639636,0.6865671641791045,0.7076923076923076,0.9130434782608695,0.375,51.057760874732594,51.012833041481485,51.09900483062947,47.69230769230769,0.5160521083542977,0.48394789164570234,50.13627582745007,48.55171707333563,0.48831636657243155,0.5116836334275686,56.19674402010795,57.52561581034117,0.5002317163974476,0.4997682836025526,53.252794256769725,53.22812088139222,0.9003784269708216,2.7118170053502015,1.502310445152891,1.7518457330253583,-0.7344921006609137,-0.6137524825958613,-0.40798225419334944,0.004253015714228809,0.6048816903778266,0.5304136781285118,1.504077396776274,5.715197026214087,1.1086778446207688,0.9532184374423996,0.9148229543594478,1.1337324605540517,1.6839128311547682,1.8671382175862767,3.7818234757335074,1.086463735604377,Stress
67.45296774665191,890.560606060606,75.85231172135225,,,,,,,80.3442592846558,80.96689731945062,0.08517366612125915,0.09021762105563882,903.5,73.3887,0.08122711676812397,111.25,0.9440912443116962,827.0,953.0,27.27272727272727,66.66666666666666,672.0,1029.0,11.0,242.1875,,,0.05694671143916541,0.012994150168583246,0.002320518390538748,0.0722613799982874,4.382488327466691,0.7880656505662507,0.17982150588448778,-4.343256009827205,57.252242146218435,91.52147709270632,0.625560731370463,16461.34787364337,1.598565814400186,4.923435502813706,585.2124182552402,0.6818181818181818,0.703125,0.8888888888888888,0.4,50.64854848672019,50.670199061906004,50.62750460844829,45.3125,0.47042336768449056,0.5295766323155094,39.26910363122642,41.664958298311056,0.551068468541625,0.448931531458375,67.94004054111102,61.32154320059923,0.5283850678678712,0.47161493213212874,55.48833935489424,52.422802340694055,1.1276958016993748,2.658036956078526,1.5760339074323406,1.6930006655788803,-1.0153345594531729,-0.1502922985663422,-0.45599505948212854,0.0013055293962711634,0.4027193289291102,0.5134266603847162,1.3437347467010947,5.862575937540271,1.0475771991719052,0.6825072769552463,0.8691559596014976,1.0326275017701185,1.6899491308603753,1.8620714501221285,2.7934402542140737,1.0073990198930756,Stress
66.49374417187587,902.6923076923077,57.104871474803666,,,,,,,44.5247473322421,44.871131061939785,0.0632606160351468,0.04932438988659116,910.0,65.2344,0.07168615384615384,87.0,1.28254229156404,852.8,951.4,21.53846153846154,64.61538461538461,794.0,1029.0,9.285714285714286,70.3125,,,0.02224899228708903,0.008404058642597838,0.002938470446065837,0.033591521375752706,2.6474104041010693,0.6623395242571231,0.25018392434777076,-4.779040518084909,31.728681053407954,74.76996385608115,0.4243506271379241,7452.96466913583,2.3565418218999734,4.579299172418968,704.7941873952185,0.676923076923077,0.6984126984126984,0.8636363636363636,0.38461538461538464,48.97307165677772,48.95996225233473,48.98934314617846,47.61904761904761,0.47708410507814686,0.5229158949218533,21.91813773806438,22.94679837266095,0.5574503564532436,0.4425496435467566,55.82519766090092,49.740273432712684,0.5451842662419615,0.4548157337580385,42.40788520890555,38.7340312691345,1.2803157150794895,1.388347923452124,1.4375483557524342,1.7269919511851728,-0.8816267948235961,-1.2521825546490257,-0.2915194091168173,0.00026780986594216594,0.09875071890006859,0.36603017910849944,1.213022639845854,5.733831082225939,1.2182020235607653,0.0,0.6838209646768914,0.6698399271598202,1.8002332735974858,1.7292770835454037,3.2517844746478293,1.0191699375894308,Stress
65.8165049322439,912.171875,52.624019709604326,,,,,,,46.07705761108491,46.43756579151264,0.05769090360257416,0.05051356972728951,915.0,55.5975,0.06076229508196721,76.0,1.142087243369125,864.6,954.4,23.4375,67.1875,794.0,1029.0,8.0,70.3125,,,0.029481225983875654,0.01545978587160469,0.0029414775260026924,0.04788248938148303,1.9069621163398152,0.6156995253316245,0.3228693008927654,-4.1695130863971315,32.836317672975035,67.15459691899574,0.48896604520735,6927.556363610756,2.0451317832835243,4.547550177913794,549.360002210528,0.71875,0.746031746031746,0.9148936170212766,0.38461538461538464,51.3047324192835,51.32319264453823,51.28372904204057,47.61904761904761,0.49946544054427905,0.5005345594557213,23.211162498163013,23.235991270496303,0.5659378818739361,0.4340621181260636,50.519626281781235,44.24372551788499,0.5531074354452318,0.4468925645547684,39.31278865818965,35.3370806520893,1.1875780563249787,1.5985683616191197,1.3629411111321061,1.5155832957662585,-0.9308254140634524,-0.694030245949377,-0.4045131954947815,0.00012269559784295565,0.10407988557442588,0.38414910158070503,1.4170660197866445,5.75,1.2480890990836935,0.8741268903666201,0.9601452402733881,0.9617821966564714,1.8663971640820332,1.7355343426360539,2.7158876296933605,0.9375,Stress
63.8564069944787,940.6666666666666,82.44274650697236,,,,,,,87.9055578264207,88.59392265058997,0.0876428913964979,0.0934502740890369,932.0,37.065,0.03976931330472103,48.0,0.9378559051950358,897.4,962.8,33.33333333333333,71.42857142857143,794.0,1332.0,7.875,140.625,,,0.015230121613057767,0.016246088432404115,0.004367589511107419,0.0358437995565693,0.9374639117856873,0.4249025438561927,0.453246827439827,-4.119903111034193,62.645363478148646,98.38605039711969,0.6367301383203267,19362.986058021073,1.5705240569230279,4.993942442713144,618.0706360572716,0.7142857142857143,0.7419354838709677,0.9130434782608695,0.3076923076923077,52.01380897583429,51.92621013996759,52.07993843564472,48.38709677419355,0.54338778287532,0.45661221712468014,46.194173218537664,42.34537929386137,0.64842684543997,0.35157315456003024,79.22532327680175,58.33663569688292,0.6181118267302145,0.38188817326978575,64.84810516760689,50.97202277706771,0.6379612723439277,2.4480114183256627,1.1611771608179033,0.9449801077136437,-0.4058578576400329,0.6763552482896551,-0.5883153777330538,0.0012938030373866253,0.35673908930917475,0.6357452402707615,1.5314763709643884,5.818549764769758,0.9939312831819526,1.0251554847018185,1.2455225776509855,1.3423418845503954,1.5544672218141116,1.885347140941584,2.0422571806234235,1.2334069683412527,Stress
66.61505308442597,904.9076923076923,151.43869666024548,,,,,,,143.7753238563558,144.90993371363086,0.16735264596331043,0.15888396692672654,926.0,51.891,0.0560377969762419,77.0,1.0533010296784033,865.0,966.8000000000001,44.61538461538462,78.46153846153847,379.0,1333.0,9.285714285714286,554.6875,,,0.05956933182442993,0.06593112694647615,0.012850910934019038,0.13835136970492515,0.9035084729067224,0.43056553723666774,0.4765484222316961,-2.7191446129273857,102.46679679020149,189.73737985302753,0.5400453873115213,61078.158074172556,1.8516962157166936,5.492856041583165,1405.3439530154076,0.676923076923077,0.703125,0.8888888888888888,0.2,50.41308089500859,50.205425502556565,50.49640832105465,50.0,0.5043478063684176,0.4956521936315823,72.77029526541632,72.14024040516004,0.4931007192667507,0.5068992807332494,133.2357334377026,135.08705581516506,0.4956403186392494,0.5043596813607508,107.34821036630844,108.28833486235672,0.992149785774715,0.11841693812310172,1.0183963017573774,1.0513582548362659,0.9894375553763144,-0.009761912754112312,-0.22164494707148644,0.00017616183413023893,0.004723786239460311,0.6419789238389835,1.0050862306572865,5.764600312995171,0.7243413904813188,0.8395573593225205,0.8777054228472813,0.8263161045587156,1.3497652763066228,1.7988938259796339,2.4347246813981247,0.9265181250813006,Stress
69.35380392654719,876.4626865671642,180.7118356002349,,,,,,,216.28933343458192,217.93218775926255,0.20618314774816918,0.24677528975217528,919.0,66.717,0.07259738846572361,92.5,0.8355096977303892,841.8000000000001,967.2,56.71641791044776,80.59701492537313,301.0,1333.0,9.571428571428571,632.8125,,,0.027625536376155863,0.15033250939730536,0.02596611857608876,0.20392416434955,0.18376288992253753,0.13546965590994134,0.7371981141951268,-1.8949057088900465,154.10132780339444,205.43934982587064,0.7501061891697475,99458.03748286114,1.3331445793119594,5.7046099953951686,1095.521422390931,0.6716417910447762,0.696969696969697,0.8695652173913043,0.38461538461538464,49.01539563193698,48.54366865443942,49.77039042105848,48.484848484848484,0.5596121327226659,0.440387867277334,115.28663275639416,102.27113285470449,0.4426228602648867,0.5573771397351133,136.67860957280752,153.37628285403355,0.48475023251871435,0.5152497674812855,126.4358533151567,130.35273061486882,0.6706201759047407,1.0089143223613484,1.1211481088082353,0.7381587482170756,0.6236953770398665,0.6251646463463636,-0.8796054353701502,0.0015289876546153824,0.0985212880623007,0.6197698259759465,0.9672762866070228,5.8458669889329435,0.7606805667398076,0.8082830435771513,0.8310792731538176,0.7796550517993246,1.4554940368770626,1.854619949030195,2.3989247445671102,0.7243091570695848,Stress
70.78687691381828,860.8695652173913,190.19107366351022,,,,,,,234.0716016647093,235.8109925085854,0.2209290249626634,0.27190135546910676,910.0,66.717,0.07331538461538462,108.0,0.8125337388682683,817.2,955.0,68.11594202898551,84.05797101449275,301.0,1333.0,13.8,609.375,,,0.028535913123858794,0.1772267780805482,0.0382727407839321,0.2440354319883391,0.16101355242653817,0.11693348335262374,0.7262337957916568,-1.7303251343922557,166.74355188115086,213.21225698269748,0.7820542507304464,111689.17641899522,1.278683670686516,5.7549811984824,1090.5241255759693,0.6231884057971014,0.6470588235294118,0.8636363636363636,0.3333333333333333,49.78309071628265,49.49938203027337,50.333064882240485,47.05882352941176,0.5322991437552321,0.46770085624476765,121.65463717536072,114.03413340789481,0.4796108921386159,0.5203891078613843,147.65789954308084,153.80705845370449,0.4996062904255104,0.5003937095744896,135.28249340499164,135.38905940339276,0.7459051736429555,1.0836905159758845,0.9566391992564797,0.8931286172084267,0.09666197828276157,0.052875251721628214,-0.5586058299041774,0.00030529052903115303,0.05957868294953579,0.619437967605506,1.1561821404895873,5.8766403988071545,0.9642036300313902,0.7739706386609485,1.0178083130140505,0.9293436912832382,1.52511925938477,1.863307437423382,2.9048152871102686,1.0623520794396815,Stress
70.57665253642635,863.0294117647059,191.99245714258888,,,,,,,236.217487694153,237.99895195296568,0.22246339988576566,0.2737073435436459,910.5,67.4583,0.07408929159802306,105.25,0.812778338372537,813.8,957.0,69.11764705882352,86.76470588235294,301.0,1333.0,11.333333333333334,640.625,,,0.023828645149829568,0.16028090816563492,0.03602128954603462,0.22013084286149912,0.14866801930773285,0.10824764417416037,0.7281165423351407,-1.8308273271107365,168.29067284123335,215.33236802681608,0.7815391359104709,113846.38263734308,1.2795264549804386,5.763289345829955,1102.0938460155805,0.6470588235294118,0.6716417910447761,0.8888888888888888,0.4,49.74662969691174,49.47066908621498,50.288166705027905,46.26865671641791,0.5324606334122685,0.4675393665877314,122.80222458749013,115.07250678672911,0.4830198300996683,0.5169801699003317,149.65519487945753,154.82684316883734,0.5017675069733953,0.4982324930266047,136.88875724113498,136.4057058627123,0.7952429171077058,1.1349952107620993,1.059585114124753,0.9599282678684418,0.24018833117786453,0.20712473562531386,-0.5878037592681964,0.0004586146403460872,0.0774854931240148,0.6072282803476488,0.9760099665757774,5.793345194191517,1.0021119689315938,0.7825074201657637,0.8487111716257257,0.8050138461981906,1.440813884848387,1.8400378449753187,2.9381837571467737,0.9847366360846136,Stress
69.55551053636992,870.4117647058823,182.41393270416745,,,,,,,190.5257063393793,191.96322719993773,0.20957199810575433,0.21889146501111362,905.0,75.6126,0.08354983425414364,100.0,0.9574242563323055,825.6,957.6,61.76470588235294,80.88235294117648,301.0,1333.0,13.6,617.1875,,,0.06291027312591765,0.0956296185031636,0.03735601551308588,0.19589590714216712,0.6578534361071039,0.32114133492468483,0.48816547470674065,-2.3472726899294525,135.73849969152988,221.2660182602052,0.6134629291873623,94355.5907466136,1.630090348449698,5.681737747991834,1442.7344032234207,0.5882352941176471,0.6119402985074627,0.8536585365853658,0.3125,50.15119274274834,50.52356180098894,49.90371339043241,46.26865671641791,0.44106108992916837,0.5589389100708319,90.14743815583783,101.4813387831089,0.5649564082711075,0.43504359172889245,166.31146542110577,145.94227388323708,0.5310791508359687,0.4689208491640312,133.76483868449188,125.69329621626984,1.0855572015038835,0.9451617221173509,1.2246182914959953,1.2857500344232273,-0.17977538195819243,-0.5828350695167854,-0.4353213936866966,0.0003277000418806667,0.041742820610273956,0.5805361547580055,1.0655514264072214,5.881580488309163,0.9258908496795364,0.9371587922422631,0.8687805535683348,0.8959170488402761,1.4861059933009648,1.809462154682736,2.7068498192496553,1.0742581484559421,Stress
69.9672471967334,861.4202898550725,151.61807724336032,,,,,,,166.0146609401074,167.13593892629018,0.176009410306401,0.1927220230301728,898.0,57.8214,0.0643890868596882,79.0,0.9132812510941977,824.8,944.6,52.17391304347826,79.71014492753623,301.0,1130.0,11.5,617.1875,,,0.04835244453560214,0.11441443875227586,0.048589295437404686,0.21135617872528267,0.4226078899035839,0.22877232559380184,0.5413347243611453,-2.1679279951310693,118.18295579476045,173.89679200977403,0.6796155031319834,64564.871450694925,1.471420230102957,5.516966400640187,1023.5010308527512,0.6086956521739131,0.626865671641791,0.8333333333333334,0.46153846153846156,47.16646183258228,47.223681686278354,47.27416947165622,50.74626865671642,0.40560385328943055,0.5943961467105695,75.31813125351948,91.1772506976171,0.48424407255316465,0.5157559274468355,121.01068714919928,124.8859794651474,0.45937486029538827,0.5406251397046119,100.78791420563225,109.33846283843882,0.8770203999293524,1.9116053400025605,1.2920495679887738,1.3057869062636354,-0.3425563964348548,-0.06441858019524815,-0.49281371631089754,0.0009455086520499979,0.2272466073173071,0.6511534550702982,1.167605160155061,5.8367144929786985,0.8998413937740954,0.8698406877133923,0.8332086939967938,0.8551186052605653,1.6577677903327053,1.873166888586596,2.5242056178988452,1.0623520794396815,Stress
69.941221471324,863.1940298507462,142.40842233413045,,,,,,,157.17530263236574,158.3744117979742,0.16497846070454647,0.18208571560619194,891.0,45.9606,0.05158316498316498,62.0,0.9060483418773805,829.8,931.0,46.26865671641791,76.11940298507463,301.0,1130.0,11.166666666666666,617.1875,,,0.036341894703595515,0.07332409029029321,0.042334968243080334,0.15200095323696905,0.4956337618334765,0.23908991312007502,0.48239230563232827,-2.6128660707377835,111.9876205487783,168.49398493825515,0.6646386848160563,59279.46717659241,1.5045768819140546,5.4798744013685265,1014.0486179186944,0.6716417910447762,0.6923076923076923,0.9111111111111111,0.46153846153846156,49.33165592074224,49.942013695585466,48.9214287978521,52.307692307692314,0.4435846373037451,0.5564153626962549,74.58866690569842,83.53801529842566,0.4841098566959739,0.515890143304026,117.23475068815091,121.02163522056729,0.4716925186970178,0.5283074813029822,98.25338670926853,103.98277788042608,1.0016492947263849,1.0412313055144211,1.3668478713507066,1.1264628137405637,0.7229519550636763,0.5793449175719356,-0.730866145050624,0.0017411469684197702,0.11743920394196032,0.5484126257659718,0.842678914530909,5.786165496395631,0.7392227440280238,0.66688753568294,0.7726401948886098,0.7872592936175415,1.526140993194877,1.8473313645300207,2.137593947654467,0.995925090970679,Stress
68.94158155018273,873.7313432835821,114.0714265990834,,,,,,,120.4857592490423,121.40125919555256,0.13055663789099056,0.13789794789350587,895.0,40.0302,0.044726480446927376,57.0,0.946762732044535,862.2,931.0,35.82089552238806,71.64179104477611,402.0,1072.0,8.375,476.5625,,,0.02419685237515424,0.03674723337193665,0.010859428928573608,0.0718035146756645,0.6584673227028034,0.33698701915151497,0.5117748558399043,-3.303692338553435,85.84365362176092,137.6845470589728,0.6234806698023455,37131.566061303754,1.6038989634065446,5.276713376382664,883.3284092199444,0.6716417910447762,0.6923076923076923,0.9111111111111111,0.38461538461538464,50.990752972258925,51.04207030624314,50.98593330861119,55.38461538461539,0.5157027898675519,0.4842972101324485,61.65037899939651,59.74368328373881,0.3964827301960499,0.6035172698039498,86.69565614561441,106.96213210438489,0.4298574896397124,0.5701425103602875,75.222689480262,86.63199581166181,1.0512606787350787,1.6670684455655391,1.4234434378047325,1.401141547187099,-0.4595318129935677,-0.44722923749693066,-0.5133779093935569,0.001143773615116551,0.1650131364435466,0.7319930310738809,1.1394342831883648,5.7563147501269745,0.777210223723519,1.0940949078411255,0.830586286076829,0.8533912063575916,1.5755845559604327,1.8129322037833469,2.4046115106991466,1.1770023802380751,Stress
68.27705915828642,880.7313432835821,88.52504902988763,,,,,,,86.9243837185429,87.58894247462315,0.10051311299975378,0.0986956855588533,888.0,40.0302,0.04507905405405405,52.5,1.0184144568286801,863.2,930.8,26.865671641791046,67.16417910447761,430.0,982.0,7.444444444444445,460.9375,,,0.03475833886394646,0.039258384672088864,0.014770912399080164,0.0887876359351155,0.885373638122667,0.39147724227444536,0.44216049068789515,-3.2375902353488724,61.93473518076444,109.8451718172527,0.5638366635158445,21372.982501269096,1.7735632758686306,5.0368352401494345,779.2694510662371,0.6865671641791045,0.7076923076923076,0.9347826086956522,0.35714285714285715,50.54036872218689,50.00742808848946,50.91447785338228,55.38461538461539,0.6241602932506628,0.37583970674933725,48.93166349418025,37.970231254740355,0.2151041664032282,0.7848958335967718,50.945447772347755,97.31661277930279,0.31378089889266014,0.6862191011073399,49.94870539379727,73.86562659442896,1.0911936501190729,1.4558089506648995,1.3791516317604,1.2668113234260285,-0.24363476583683408,-0.09878743617856456,-0.5771669306491509,0.0012181529074213363,0.12166706867119807,0.7738211725201629,1.2866645201710494,5.666762511321005,0.8279924538589258,0.7737012187457902,0.918612267270905,1.0305862935616317,1.51211673630573,1.7202645909130623,1.9190959141268393,1.086463735604377,Stress
68.59866362858226,877.2089552238806,90.68586093286169,,,,,,,91.68630643601469,92.36918047252287,0.1033799990216891,0.10452048612820486,881.0,41.5128,0.04712009080590238,57.5,0.9890883868917636,862.0,930.8,28.35820895522388,71.64179104477611,430.0,1018.9999999999999,7.444444444444445,445.3125,,,0.027466420014973222,0.02953163061107043,0.009383026044780437,0.06638107667082409,0.9300678440924617,0.4137688237745217,0.44488025943770537,-3.522293365953976,65.31487388476495,110.07483415485626,0.5933679063543099,22586.55550069738,1.685295057739242,5.060820115069833,742.034295930584,0.6716417910447762,0.6923076923076923,0.9111111111111111,0.3333333333333333,51.864002385923044,51.07845671035146,52.51291832377123,56.92307692307692,0.661115927479313,0.3388840725206869,53.118228075173526,38.030352250639126,0.20460758593776843,0.7953924140622316,49.790777213756215,98.16999347391855,0.3235207009905887,0.6764792990094113,51.48139299492613,74.44345273755411,1.0782248322278405,0.9532182771902049,1.3219162938946232,0.9062506930371464,1.0206983538029848,1.388419711468363,-0.9360654960191609,0.0019480693054707452,0.11446184819986263,0.702401118243845,1.1732738174371293,5.614377809763886,0.9076939188273596,1.047654465560015,1.1671486138511575,1.1416521477160961,1.4093565376207846,1.750726535018834,1.8941184814577972,1.086463735604377,Stress
67.09160068518581,896.7272727272727,176.30275930076346,,,,,,,182.48051529283464,183.85154441726993,0.19660688892015388,0.20349611397213918,881.5,44.477999999999994,0.050457175269427106,61.25,0.9661456677598841,854.0,930.0,34.84848484848485,75.75757575757575,430.0,1743.0,9.428571428571429,460.9375,,,0.012359312129003642,0.02916659101398356,0.005006035144028791,0.04653193828701599,0.42374894354565207,0.2656092263505025,0.6268079965652762,-3.53473136809632,130.0026737890713,212.56895487564282,0.6115788350426126,86816.44428230533,1.6351121763890402,5.645572104546748,1390.2963457578242,0.6515151515151515,0.671875,0.9069767441860465,0.3125,47.45353159851301,46.8520377703453,47.8790116043785,56.25,0.48339296373572155,0.5166070362642785,90.41039244743935,93.46485803498553,0.19925216285850758,0.8007478371414923,94.88582968455319,190.21629767713657,0.2766290758914153,0.7233709241085847,92.67513079954631,149.86313687744735,0.733838119170594,1.560806069600559,1.226273020312513,1.0322799971072316,0.10412886707559466,0.10177242371882622,-0.6242902798647676,0.002673486679855589,0.21135545355569946,0.5667289228696148,0.6931471805599451,5.7299261269014305,0.6985086247528547,0.6287282142594824,0.8389148706849177,0.817255197878491,0.855257211408642,1.910296780740558,1.811671253948485,1.190562478055453,Stress
70.61786468774811,856.5,184.1845683652151,,,,,,,232.7422506204677,234.49788732257633,0.21504327888524824,0.27173642804491266,878.5,40.0302,0.04556653386454183,59.0,0.7913671362814331,834.8,926.4,36.76470588235294,72.05882352941177,338.0,1743.0,8.5,562.5,,,0.05027296649125526,0.13625686303922374,0.04451259005306343,0.23104241958354244,0.36895731613007543,0.2175919321736375,0.5897482517921552,-1.9932134757772737,165.81504629971263,203.37896441369796,0.8153008683947487,105944.84766072663,1.2265410706220718,5.732049950792228,997.8106110159415,0.6029411764705882,0.626865671641791,0.9047619047619048,0.21052631578947367,50.28939752696658,51.58287358573159,49.064492375827676,52.23880597014925,0.40566304431684175,0.5943369556831585,105.61081355331913,127.8327209498982,0.5328578252438003,0.4671421747561997,148.46076893435827,139.00504758247922,0.4820691185704674,0.5179308814295325,128.82981768980125,133.53577760072739,0.4828867064142648,1.2250342240022418,0.9408583230787861,0.7826278975961073,0.8019511970528646,0.5131941521291448,-0.6291640856903842,0.0030004289671998895,0.19388439102276042,0.605100471325676,0.6962288470973538,5.881580488309163,0.6923923040751928,0.6360558879502577,0.8852582035098171,0.8152511196422394,0.9465114688050518,1.9127394914587452,2.0100718583063144,0.9847366360846136,Stress
72.34134717159041,833.7285714285714,147.14735997854072,,,,,,,159.4733179263377,160.64035195708718,0.17649312380695756,0.191277261439037,872.5,55.5975,0.06372206303724928,84.75,0.9227083369928349,768.6,918.2,41.42857142857143,74.28571428571429,338.0,1100.0,8.75,539.0625,,,0.02364004847311993,0.09641687897233756,0.021194854340226103,0.1412517817856836,0.24518578826745022,0.16736106386953867,0.6825887627996617,-2.3390739996185994,113.58988220105002,174.78177905564146,0.6498954457082673,62371.42657377904,1.538709044052744,5.5019557874109495,1075.753216674176,0.5571428571428572,0.5797101449275363,0.825,0.2777777777777778,49.65332492908918,50.3960023564509,49.18308391302966,55.072463768115945,0.4633733951071068,0.5366266048928932,77.32299520993281,83.21070879894924,0.4662532072751591,0.5337467927248408,119.34578124356257,127.69203103255417,0.46539805146210783,0.5346019485378921,100.55411749120864,107.77123189432862,0.7799736817978832,0.4968738326364941,1.0458812517868268,0.8883176901282589,1.0405184366966622,0.3207042526724049,-0.8171097999315234,0.0018051241563005376,0.05704959688186956,0.6066789655027565,0.9680902272342964,5.90771480259744,0.902226247716605,1.1269061981083766,1.0546122004281018,1.012608411567802,1.4097013512261796,1.842650322900882,2.175548018389902,0.8756118595635667,Stress
72.365542631221,833.7571428571429,146.82834656168157,,,,,,,158.66677323099574,159.8243654515367,0.17610445418017767,0.19030334503314947,875.0,55.5975,0.06354,84.75,0.9253881173213301,768.6,919.4,37.142857142857146,68.57142857142857,338.0,1100.0,11.666666666666666,546.875,,,0.022642338757487966,0.1071136185545106,0.022693565749793372,0.15244952306179194,0.2113861809828148,0.14852351324385848,0.702616947585297,-2.233865152240533,113.01289260961856,175.48911552435146,0.6439880460502777,62305.738614286274,1.5528238546246673,5.501498158767696,1090.0147392527879,0.6,0.6231884057971014,0.8604651162790697,0.3125,50.69206969548936,51.29521437335982,50.34292439427907,50.72463768115942,0.4625778243436561,0.5374221756563438,76.8658590930827,82.8512132042239,0.49237556454308024,0.5076244354569197,123.13979634324568,125.03207678057322,0.4836400846646313,0.5163599153353688,102.64445853910884,106.05975616008864,0.7401612550372,1.1356001172250365,1.4219986591868516,0.9228659200888203,0.771564369412097,0.5409604564252393,-0.9395321306567993,0.00365891995716713,0.1893126119773124,0.6095615537359445,0.9535621266713866,5.986425874087824,0.8378921243636547,0.9610192233305419,0.9681525842731762,1.0840309527337317,1.4590023083625978,1.7959180153413046,2.4012842477610516,0.9631730455199232,Stress
70.25151953481576,859.2794117647059,208.05372767544645,,,,,,,206.91533346729187,208.4759779412528,0.24212581475467404,0.24080099049778111,876.5,64.4931,0.07358026240730177,94.75,1.0055017392335235,780.8,925.0,33.82352941176471,72.05882352941177,338.0,1743.0,11.333333333333334,523.4375,,,0.059842284350718304,0.053389033471514274,0.0018774129488311675,0.11510873077106375,1.1208722177494965,0.5198761549177082,0.46381393586641223,-2.930149919808391,147.41477771675693,256.9793428124001,0.5736444653622318,119011.54925679884,1.743240038703316,5.782559218708242,1791.906718040964,0.5882352941176471,0.6119402985074627,0.8292682926829268,0.17647058823529413,49.68414867048625,50.75123436601972,48.950315043004956,50.74626865671642,0.4273498493133255,0.5726501506866744,96.3684532815526,111.55468152299555,0.34751439497976544,0.6524856050202344,151.49022604083598,207.57912719343796,0.367281240477533,0.632718759522467,126.95701511492456,166.63364158549507,0.9590022331388293,1.3814418392679868,1.4834337473586774,1.212964500016388,0.8227879230399431,0.7964102222770384,-0.6957876471191929,0.003668504857002056,0.2405149313321009,0.5648992744326828,0.7039580966641612,5.969815782426812,0.708916087973589,0.6984817553852454,0.9113400316508524,0.8838015957966796,0.9795465990330381,1.7481874860747537,2.031421146487364,0.9847366360846136,Stress
70.77947248487696,853.1884057971015,204.07432868517174,,,,,,,201.73122042489518,203.2310965910431,0.23919022726816458,0.23644393085302814,868.0,51.891,0.059782258064516126,77.0,1.0116150006694125,791.4,914.0,28.985507246376812,69.56521739130434,338.0,1743.0,9.857142857142858,523.4375,,,0.034631256803733634,0.06685369518310862,0.0037456697968363192,0.10523062178367856,0.5180155967277578,0.32909866174624275,0.6353064730581848,-2.7052487012234834,143.7060865475048,252.75029297985932,0.5685694162932432,114108.16017476392,1.7588001945645346,5.764286813031634,1778.149057876879,0.5942028985507246,0.6176470588235294,0.8095238095238095,0.17647058823529413,50.02353679585752,51.1519941538639,49.20919193689495,51.470588235294116,0.42111478618274245,0.5788852138172575,93.25570687990971,109.33806945815267,0.3383320210008861,0.661667978999114,147.01553178078836,205.59461086472265,0.3585556030053069,0.6414443969946929,123.10603854088481,164.65715509726954,0.8335446217483563,2.7455789293043105,1.4646308018971506,1.7287558694385463,-1.2713436270087595,-1.255501734324751,-0.4037998635834807,0.003199010288879492,0.5395796614229045,0.5324673009593588,0.6791609385852054,5.923671014717828,0.6199429448998617,0.7925630705596256,0.7682172855332735,0.7224956969605263,0.9174530668501996,1.819730610205879,1.8802344154424895,1.1508814193929884,Stress
73.78504067404663,819.4722222222222,147.28290036068051,,,,,,,131.68261031417524,132.32225920717246,0.17972897233939525,0.16069197557066908,863.5,60.0453,0.06953711638679791,77.5,1.1184688700298793,800.6,899.0,26.38888888888889,66.66666666666666,338.0,1022.9999999999999,9.0,523.4375,,,0.02364792223288361,0.010995032678920868,0.0006968660043367584,0.03533982091614123,2.1507823508537847,0.6691579532617998,0.31112304459638496,-4.510311682817859,93.56596678731572,179.06403371144657,0.5225279741999611,52635.18400862402,1.913773136320774,5.428246255496208,1370.7517495928157,0.6111111111111112,0.6338028169014085,0.8222222222222222,0.26666666666666666,43.34608843537417,44.03537648784538,42.74748546032278,50.70422535211267,0.30143799110108976,0.6985620088989102,51.48640597283907,78.37834066701262,0.3995548523614101,0.6004451476385899,113.18700493297487,138.75384709375376,0.3784367776921154,0.6215632223078849,87.92652638907464,112.68494657457819,0.9809796742673443,2.036500758460691,1.3541848649680275,1.7278368407962215,-1.075692649841077,-1.555569014380909,-0.3165225452159309,0.001707072894169722,0.2877244109057566,0.6892701739844607,1.0058305552171432,5.815622570826659,0.6680985900428942,0.9659033133676451,0.9988752396274088,0.9609380392704658,1.56084350095153,1.830696706752362,1.8248318507536627,1.1140142363715286,Stress
71.83284221843351,839.4857142857143,114.42328521222315,,,,,,,125.09057587969225,126.00158999795177,0.13630164666897454,0.14900858198179937,863.5,57.8214,0.06696166763173132,77.25,0.9147234666364592,807.6,902.2,31.428571428571427,70.0,302.0,971.0,8.75,562.5,,,0.012809367260204551,0.03370502067738562,0.004440838145660242,0.05095522608325042,0.380043299270218,0.25138475961772133,0.6614634703478405,-3.39010847119567,89.09657872783875,136.26954758609125,0.6538260404185319,38142.54913748077,1.5294588134786935,5.288379824349457,833.6746422572058,0.6428571428571429,0.6666666666666666,0.8695652173913043,0.2857142857142857,50.88731144631766,51.41496468770249,50.465742712809316,46.3768115942029,0.423244492853491,0.576755507146509,57.966268081480955,67.66678740450931,0.4417452376744183,0.5582547623255816,90.57008017010693,101.81576585823234,0.436204505451675,0.5637954945483252,76.03626653549513,86.4443297589421,0.7917750600886202,2.5333229658771628,1.267144845097098,1.6324429153128783,-1.4745668147352546,-1.632753341704902,-0.35580280322082974,0.002175840874389654,0.4197227097668425,0.7549463150766442,1.3281867303126098,5.7756417669140605,0.8108346497026724,1.3367334437814549,1.217302265588006,1.4205205792221682,1.6420893887551882,1.9576471811764269,2.0411958411567053,0.8756118595635667,Stress
