PPG_Rate_Mean,HRV_MeanNN,HRV_SDNN,HRV_SDANN1,HRV_SDNNI1,HRV_SDANN2,HRV_SDNNI2,HRV_SDANN5,HRV_SDNNI5,HRV_RMSSD,HRV_SDSD,HRV_CVNN,HRV_CVSD,HRV_MedianNN,HRV_MadNN,HRV_MCVNN,HRV_IQRNN,HRV_SDRMSSD,HRV_Prc20NN,HRV_Prc80NN,HRV_pNN50,HRV_pNN20,HRV_MinNN,HRV_MaxNN,HRV_HTI,HRV_TINN,HRV_ULF,HRV_VLF,HRV_LF,HRV_HF,HRV_VHF,HRV_TP,HRV_LFHF,HRV_LFn,HRV_HFn,HRV_LnHF,HRV_SD1,HRV_SD2,HRV_SD1SD2,HRV_S,HRV_CSI,HRV_CVI,HRV_CSI_Modified,HRV_PIP,HRV_IALS,HRV_PSS,HRV_PAS,HRV_GI,HRV_SI,HRV_AI,HRV_PI,HRV_C1d,HRV_C1a,HRV_SD1d,HRV_SD1a,HRV_C2d,HRV_C2a,HRV_SD2d,HRV_SD2a,HRV_Cd,HRV_Ca,HRV_SDNNd,HRV_SDNNa,HRV_DFA_alpha1,HRV_MFDFA_alpha1_Width,HRV_MFDFA_alpha1_Peak,HRV_MFDFA_alpha1_Mean,HRV_MFDFA_alpha1_Max,HRV_MFDFA_alpha1_Delta,HRV_MFDFA_alpha1_Asymmetry,HRV_MFDFA_alpha1_Fluctuation,HRV_MFDFA_alpha1_Increment,HRV_ApEn,HRV_SampEn,HRV_ShanEn,HRV_FuzzyEn,HRV_MSEn,HRV_CMSEn,HRV_RCMSEn,HRV_CD,HRV_HFD,HRV_KFD,HRV_LZC,Labels
102.71876309798404,584.0990099009902,16.378342376745607,,,,,,,12.101652779682617,12.160787288442613,0.028040352918115505,0.020718495622401332,583.0,13.343399999999999,0.02288747855917667,19.0,1.3533971495400277,571.0,596.0,0.0,6.9306930693069315,544.0,630.0,5.05,70.3125,,,0.019995319664080666,0.026525599723644145,0.006049855245545346,0.05257077463327016,0.7538121615496377,0.38035048567510255,0.5045693145799119,-3.6296449849867294,8.598975156224938,21.57525120703036,0.3985573597132875,582.844131367773,2.509049138421069,3.4725225378982563,216.5334618088706,0.48514851485148514,0.4845360824742268,0.723404255319149,0.125,51.07913669064747,51.07613861433866,51.081271942374315,47.42268041237113,0.45291908501194955,0.5470809149880507,5.787918451395113,6.361182788180706,0.5422817184314049,0.4577182815685951,15.887967502598825,14.596710358256349,0.5300292377348643,0.4699707622651359,11.956745195989507,11.258965310974952,1.3321950475863198,0.5506720448847444,1.3457313253435887,1.5655955960386208,-0.3800862846409778,-1.2191423245168833,-0.1007346428107685,0.0003281881534647302,0.02442084898223344,0.7458559782267784,1.7404661748405046,5.409310834361521,1.1853931052552678,1.3745229356431437,1.562497241870923,1.9205148516314399,1.8475301980058887,1.7951481484833185,2.716789515786507,0.7910746316140745,Relax
101.85027829121981,589.15,16.983875299884303,,,,,,,12.92050285164606,12.985585780164463,0.028827760841694482,0.021930752527617857,588.0,14.825999999999999,0.025214285714285713,20.25,1.31449027138449,576.0,602.2,0.0,11.0,544.0,630.0,4.761904761904762,78.125,,,0.04538728724534741,0.033770699486324406,0.004587984626928399,0.08374597135860022,1.3439842211064414,0.5419638283374738,0.4032516303586507,-3.3881617315529704,9.182195762833894,22.30691447315651,0.4116300250258045,643.4812880396995,2.4293660306662797,3.5155060324232386,216.7666410802577,0.48,0.4845360824742268,0.7446808510638298,0.11538461538461539,50.632911392405056,50.635871128801114,50.62938694076252,45.36082474226804,0.4383130634718946,0.5616869365281053,6.07940652312949,6.8820233142557115,0.5202771694407462,0.4797228305592537,16.090031211967595,15.450220998763339,0.5084003957480665,0.4915996042519336,12.162407000169843,11.95975697513513,1.3141073042625901,0.7284059206783935,1.424564111103594,1.678310264601787,-0.6462253973844412,-1.6632303133513098,-0.15164183006383455,0.00032847031792473,0.04146241968852199,0.7061706468219362,1.8352445811677938,5.539819909835642,1.2028257529902349,1.4941631004048983,1.386446070933507,1.597131167598593,1.8108335119749084,1.7778391525967532,2.9995749767250444,0.8637013046707142,Relax
101.0658898541847,593.69,16.753528197687405,,,,,,,12.676630849597604,12.741139337686638,0.028219320180039083,0.021352272818470252,593.0,15.5673,0.026251770657672847,21.0,1.3216073258313124,580.8,609.2,0.0,12.0,552.0,630.0,4.761904761904762,70.3125,,,0.034462514884398304,0.04052028324662219,0.008856383358319642,0.08383918148934014,0.8505003450900391,0.4110550016376304,0.4833096235770647,-3.2059526093343247,9.009346025720898,21.74478330328977,0.4143221801781706,615.4577207210599,2.4135806573762744,3.496168334104494,209.931153518635,0.46,0.4693877551020408,0.6956521739130435,0.11538461538461539,49.95034756703078,49.95064046144883,49.94993637955922,43.87755102040816,0.4090137657929474,0.5909862342070527,5.7618555684637505,6.925993629444228,0.5342006741143758,0.4657993258856245,15.893051838769386,14.840704301252634,0.51585925863014,0.4841407413698597,11.95382943540788,11.580498519328096,1.2781709929824219,0.9079925761191667,1.3083138768856908,1.5321627945717031,-0.6406902912530086,-1.0802669702232803,-0.2534683393087192,0.00019269098113040245,0.03526159857451203,0.7262773147772221,1.8621402659898545,5.563723505091276,1.2124699413455047,1.273813963630364,1.4213178681770213,1.6380150215935412,1.8598986306056233,1.7170416168123706,2.565296278553621,1.063016990363956,Relax
100.74199418678934,595.6161616161617,17.766459497481613,,,,,,,13.227599470618319,13.28829135536097,0.029828706207826197,0.02220826149969836,594.0,17.7912,0.029951515151515153,26.0,1.3431355807941716,581.0,614.4,0.0,14.14141414141414,552.0,630.0,5.823529411764706,70.3125,,,0.06480375481500765,0.03832457266803066,0.005222338264244615,0.10835066574728293,1.6909191754423716,0.5980928162098783,0.35370869577690356,-3.2616640045008873,9.39624092775832,23.207546319797945,0.4048786889522463,685.0673071367424,2.469875612835591,3.5427033525229312,229.27901075608526,0.42424242424242425,0.4387755102040816,0.6046511627906976,0.07407407407407407,47.90652385589094,47.93388140666107,47.879516193446364,43.87755102040816,0.3912054586808189,0.6087945413191812,5.880248259013293,7.335480785232517,0.4989352203199376,0.5010647796800622,16.392730803174818,16.427677346484817,0.483748267524647,0.5162517324753527,12.314603988212236,12.721593087163374,1.370681920964844,0.6312563669501889,1.3675653736086621,1.5363379010167466,-0.24669853090588134,-0.7932124367191431,-0.23264027700270004,0.0001553985091291131,0.017788244235192614,0.6457167321211985,1.9965538818740682,5.537043837378421,1.1817994963967864,1.29414581294464,1.3117917143905122,1.683390366970054,1.8538020555658052,1.6684844888888635,2.362131530139974,1.0044479727393347,Relax
100.7853334680732,595.3535353535353,18.408246339401934,,,,,,,13.833189901723422,13.89595327271427,0.030919857271815263,0.023235252804048503,594.0,19.273799999999998,0.032447474747474746,27.0,1.3307304005931795,579.6,615.0,0.0,17.17171717171717,552.0,630.0,5.823529411764706,70.3125,,,0.05926134779527984,0.026164871281621774,0.006259202789918211,0.09168542186681983,2.2649202878710533,0.64635518481184,0.28537657076637846,-3.6433375586571,9.825922790187658,24.006338361074913,0.40930535271134494,741.0527836224466,2.443163748960868,3.5768192529202594,234.60566251626756,0.40404040404040403,0.40625,0.5384615384615384,0.03571428571428571,52.18604651162789,52.17646477472637,52.195026705068116,44.79166666666667,0.4541673332266836,0.5458326667733163,6.625863102696138,7.263806618980033,0.5101552362850572,0.4898447637149428,17.14656370541912,16.801774745616033,0.5021131631527019,0.49788683684729806,12.998205813874204,12.943386751549204,1.2757948988556669,0.9367659638340955,1.4170590129183216,1.4564285909820431,0.029314124075519032,-0.23517866706811397,-0.4579728773421853,3.793710072043211e-05,0.03859213305165453,0.6259318970897536,1.7788560643921472,5.538052579500744,1.2208112100557564,1.064466696210494,1.1220308157331718,1.5833446512968985,1.8032634750003564,1.6692467859707532,2.876615667345821,0.9374847745567124,Relax
100.35158197320455,597.939393939394,18.71745784556148,,,,,,,14.098776904543232,14.17120528115218,0.031303269253168904,0.023578939684265488,597.0,19.273799999999998,0.03228442211055276,27.0,1.3275944411553822,584.0,615.0,0.0,18.181818181818183,552.0,644.0,5.2105263157894735,78.125,,,0.04967071455226345,0.024702311828589455,0.003957163207951293,0.0783301895888042,2.0107719025219564,0.634119677394001,0.3153613180086083,-3.700858443428898,10.020555351889321,24.625437270038166,0.4069188799372654,775.2211537860225,2.4574922651762185,3.596395724942574,242.06728647080388,0.42424242424242425,0.42708333333333337,0.5853658536585366,0.03225806451612903,49.81617647058824,49.81673196932604,49.81564118170427,44.79166666666667,0.41201232032854207,0.5879876796714579,6.432039647003006,7.683829586436835,0.5231570563899333,0.47684294361006657,17.811479471736856,17.004804020290305,0.5073676971024305,0.49263230289756943,13.390667178910878,13.194783000903868,1.3181271238042833,0.8396135175929826,1.4482932269344901,1.6172344666426786,0.00402092142585353,-0.7041627123894214,-0.2987868987715778,0.00017999519954282593,0.0436204337923888,0.5918445445638949,1.58412010444981,5.570831493620303,1.2304332641838083,1.184263503718676,1.342549579925163,1.4734464340768547,1.838112224412957,1.6203436817959558,3.007134157795343,0.8705215763740901,Relax
99.75857720708505,601.5408163265306,18.643795224086453,,,,,,,14.077839571834497,14.150000303571206,0.030993400145213356,0.023402966498274513,600.0,20.7564,0.034594,26.75,1.3243363890427515,586.0,618.6,0.0,17.346938775510203,560.0,655.0,4.666666666666667,39.0625,,,0.052367184933560934,0.025450980774660736,0.0016338365490570672,0.07945200225727873,2.057570409455429,0.6591046599931782,0.32033152156752764,-3.6710009994133848,10.005561168446906,24.410691773324114,0.40988437613148415,767.3109768292697,2.4397124121638063,3.591941521041817,238.22027083553502,0.47959183673469385,0.4787234042553191,0.6444444444444445,0.06896551724137931,49.253731343283576,49.23536646321096,49.272051774945965,43.61702127659575,0.40751144402829786,0.5924885559717019,6.387650846229256,7.702137149302566,0.5692847892207457,0.4307152107792544,18.418102138579506,16.02046773552778,0.5460126681840435,0.4539873318159567,13.78456690869322,12.569373555029568,1.3532491627369458,1.360443898946032,1.5500277900513062,1.9383603040610364,-0.7594585064596835,-1.565583268565688,-0.21455455509001098,0.0007877221853517398,0.1364204870270537,0.5644447109879991,1.5488132906176655,5.49686418062914,1.2135991293140083,1.0378034667596705,1.4331797525277932,1.6720373283380983,1.7945663500757916,1.5948288369527028,2.677926361271527,1.0124555883849808,Relax
100.34947455585919,598.0204081632653,19.86188371162094,,,,,,,13.34629953733267,13.415055078125505,0.03321271889804546,0.022317465014821035,597.0,22.238999999999997,0.03725125628140703,32.5,1.4881940612873765,580.8,617.6,0.0,15.306122448979592,560.0,655.0,5.764705882352941,39.0625,,,0.055616559098703014,0.022829063392140192,0.0015325840737114732,0.07997820656455468,2.4362172964945734,0.6953964271981008,0.285441051665914,-3.779720844593418,9.485876415733573,26.539677632398156,0.3574224429973386,790.902554591022,2.797809761508026,3.605093088263036,297.0118765887991,0.4489795918367347,0.4408602150537635,0.5853658536585366,0.037037037037037035,49.405940594059395,49.396873785464166,49.415295133467545,45.16129032258064,0.4111008218543813,0.5888991781456185,6.082334392868142,7.279752170690061,0.5641949435534174,0.4358050564465827,19.934724504440712,17.520309579561253,0.5468512297834756,0.4531487702165245,14.737503735955688,13.415588683138964,1.369806422574648,1.6737962000415214,1.6647714279352757,1.9680933190727044,-0.7433240536650523,-1.186594783727843,-0.31878206490736194,0.001036479259374872,0.19305610448528726,0.5931182118917473,1.7047480922384253,5.528958538054922,1.1435514349651292,1.1988075205243744,1.0171170974127817,1.2547138382298815,1.8072000770432977,1.5570136860978498,2.5876829669811605,0.6749703922566539,Relax
100.90018598026192,594.67,20.196536856850013,,,,,,,13.200474432857527,13.26677885359812,0.03396259582095955,0.022197982801986864,592.0,18.5325,0.031304898648648646,27.0,1.5299856804069456,578.0,614.0,0.0,13.0,555.0,655.0,5.882352941176471,39.0625,,,0.0553252539899374,0.021161708056907154,0.0025360407316553433,0.07902300277849988,2.6144039905077183,0.7001158149483782,0.2677917481346926,-3.855561954223947,9.381029291881523,27.101301066194576,0.3461468240572097,798.7125445524973,2.888947494242282,3.6093606154624283,313.1769432235541,0.5,0.49473684210526314,0.7021276595744681,0.07692307692307693,49.28503336510964,49.29147916737631,49.27929674400147,45.26315789473684,0.3991072981276447,0.6008927018723551,5.926850008259713,7.272396792120244,0.5875834580060553,0.41241654199394445,20.77422931120304,17.404364855003237,0.5674146177614006,0.43258538223859966,15.275734916770055,13.337909714571332,1.3490409316850103,1.4171680998337837,1.5568570848301482,1.997628292111534,-0.7958290282451284,-1.6758356492643922,-0.18897747039812504,0.0011295729016454039,0.1641420539837924,0.7398038072292055,1.4586150226995165,5.603465189601645,1.1439133498947391,0.9858804181218792,1.32289550104826,1.626409673464661,1.841438980189948,1.6198395073773606,2.8886118522122395,0.7308241808752197,Relax
101.34251035199799,592.17,22.307336746623804,,,,,,,14.528967929309676,14.601763687408837,0.03767049453134033,0.02453512999528797,590.0,20.0151,0.03392389830508474,27.0,1.5353696735487052,573.8,611.6,0.0,17.0,536.0,655.0,6.25,85.9375,,,0.033470987159513174,0.013297217503624162,0.002951814381487591,0.049720019044624926,2.5171421878592755,0.6731893471213708,0.2674419229745183,-4.32020047589577,10.325006120650277,29.78742628678692,0.3466229684042973,966.2136555567515,2.884979043955364,3.692043281066169,343.74440244298165,0.49,0.48421052631578954,0.6956521739130435,0.07407407407407407,50.77452667814114,50.75162210601676,50.79682343176628,46.31578947368421,0.46061824097999815,0.539381759020002,7.008012906520591,7.583548251421141,0.5681248310740458,0.43187516892595434,22.451991356231947,19.57546548438761,0.5565920173852231,0.4434079826147768,16.63135834437875,14.844343249401156,1.247956241666689,1.3430514472331159,1.234630019628658,1.8636424766226065,-0.6209415174597481,-1.5092625401384674,-0.03165423536841641,0.0011607833930648483,0.15341379482804693,0.7239192857765651,1.6094379124341005,5.659819909835644,1.1256364779854249,1.2622837761039194,1.4717923636967976,1.90054859717725,1.835503173646397,1.650478394034193,2.594165940772843,0.9301398665684615,Relax
100.7920369738767,595.3131313131313,24.415889132604654,,,,,,,14.17780674440277,14.250519976043993,0.04101352355314003,0.02381571310736857,592.0,22.238999999999997,0.037565878378378374,35.5,1.7221203231764857,575.2,617.0,0.0,14.14141414141414,536.0,660.0,6.6,62.5,,,0.042749450106796566,0.017414960613030526,0.002681293569320309,0.0628457042891474,2.454754337762316,0.6802286741844791,0.2771066186625241,-4.050425636835951,10.076639310495064,32.975350056370985,0.30558096557789877,1043.8906332413003,3.2724551351189435,3.7256251106703404,431.64141449726395,0.47474747474747475,0.47368421052631576,0.7111111111111111,0.07142857142857142,50.31731640979147,50.30631665458319,50.328029327616385,44.21052631578947,0.44200213208792316,0.5579978679120767,6.699361409788925,7.527270010729851,0.5684095466055994,0.43159045339440066,24.86108602321577,21.663335686972854,0.557613513409847,0.4423864865901531,18.20652412670666,16.21665666684882,1.3896692547324043,0.8278217261321674,1.5349742314316188,1.803182781077281,0.07271571842277069,-0.9264896081348151,-0.1760068730029432,0.0007879219815446893,0.07223602289750979,0.7104365499495815,1.549333988364395,5.717197402667506,1.0286051459824077,1.5074793220414422,1.328166730493521,1.7156588086197233,1.7950525425039576,1.6265092717321248,2.2947566186465513,0.8035583781914678,Relax
100.8934074622478,595.11,25.71321831198102,,,,,,,17.923800552969404,18.002170097546166,0.043207505019208246,0.030118466422962818,592.0,28.9107,0.04883564189189189,41.0,1.4345851615561052,571.8,618.2,1.0,17.0,536.0,660.0,7.142857142857143,117.1875,,,0.014156603684776128,0.009341607523846903,0.0017859065682961737,0.025284117776919208,1.5154355017204142,0.5599010339090845,0.36946543305436025,-4.673276929790005,12.729456552048587,33.768695242727496,0.3769602722447511,1350.436029698028,2.6527994423527064,3.8374441263955466,358.3263036355439,0.52,0.5208333333333334,0.74,0.2,52.72579332790885,52.61436496797094,52.837131029574515,44.79166666666667,0.6285175286904576,0.3714824713095425,10.098999748409113,7.76405900575839,0.5436476811385058,0.4563523188614942,24.898492354355078,22.812055077882142,0.5542203171693395,0.4457796828306605,18.999009414154276,17.039226348652488,1.3580946665505702,1.5913968171047324,1.6435160854911208,2.1537930751029366,-0.9046694802346362,-1.8944221672867112,-0.179352764736469,0.003548188032019079,0.28041797298294063,0.7926784229632386,1.5040773967762744,5.795916314580012,1.0206400900015091,1.1020488365352323,1.2500090372628798,1.6273371932305682,1.7355802103607,1.67387629204622,2.5360821531687265,0.7308241808752197,Relax
100.15708902823636,599.0918367346939,30.08924414282405,,,,,,,18.634022757411007,18.72955930481487,0.05022476070918153,0.03110378345158963,595.5,31.875899999999998,0.053527959697732996,43.75,1.6147476331087525,572.4,622.0,2.0408163265306123,19.387755102040817,536.0,680.0,8.166666666666666,125.0,,,0.016422605227518088,0.009932950484015145,0.0015276870619036487,0.02788324277343688,1.6533461285190725,0.5889775934943683,0.35623369077709366,-4.611897716759315,13.243798393070195,40.64266797936744,0.32585947359050127,1691.0040317266212,3.0688075107390396,3.9351147530146107,498.89809900622345,0.5306122448979592,0.5376344086021505,0.76,0.16,50.81332300542215,50.80353096994041,50.82073613421545,46.236559139784944,0.573735934206229,0.4262640657937711,10.032239696764293,8.64731413021793,0.5170710952365517,0.4829289047634484,29.225189769472472,28.243844345616637,0.5225111069227665,0.4774888930772335,21.84899940952688,20.886488276946984,1.3624946334244568,1.4255933242301495,1.4944082842351287,1.9133706074458399,-0.787105709445699,-1.3280280760295664,-0.2061137169417094,0.0012457523758011763,0.14995506200136807,0.7957718864968837,1.368275855617212,5.910428721577922,0.9382781182806221,1.0935387844179036,1.2647949621902501,1.606113876573051,1.6682176444417058,1.5967898310245723,2.3934471174402194,0.7424674314823193,Relax
99.8132138732193,601.2551020408164,29.63012928304037,,,,,,,18.783355211188727,18.88045112564591,0.04928046212409341,0.031240242531719278,601.5,30.3933,0.05052917705735661,41.0,1.5774673347704418,573.0,622.6,2.0408163265306123,19.387755102040817,536.0,680.0,8.166666666666666,109.375,,,0.03250568372840144,0.011909189926967585,0.001640719326198749,0.04605559298156777,2.7294621991706114,0.7057923180233672,0.2585829245914572,-4.430444914135727,13.350495022805404,39.88824729587362,0.33469745922344635,1672.985571942031,2.9877729048800252,3.9304623055249146,476.70809797506047,0.5102040816326531,0.5212765957446809,0.7346938775510204,0.10714285714285714,50.486891385767784,50.488547617348026,50.48407066984014,43.61702127659575,0.5682727989948281,0.431727201005172,10.064376119097828,8.772293029761375,0.5319232617522951,0.4680767382477047,29.09172309755836,27.289996693875924,0.5355851920104676,0.4644148079895323,21.767177348609962,20.2693986658677,1.375144179017659,2.0921379278873724,1.6639910257969321,2.0159809859413413,-0.8918472648111848,-0.8767767476655575,-0.3317558534489901,0.0019707355914001935,0.297674733138912,0.7685124902642313,1.5869650565820417,5.899006114651763,0.9767125416725877,1.2426076547620828,1.2785056446863725,1.4919630849694736,1.5958504030070133,1.560889014838437,2.318487845179478,0.6749703922566539,Relax
99.30605494898312,604.295918367347,28.439195104996756,,,,,,,18.873152261576756,18.968112824519768,0.04706170311696327,0.03123163947982172,603.0,27.428099999999997,0.04548606965174129,36.5,1.5068598351158964,579.2,624.2,2.0408163265306123,18.367346938775512,536.0,680.0,6.533333333333333,93.75,,,0.04498203695448826,0.010569638929024796,0.003158581114344008,0.05871025699785706,4.255778012526537,0.7661699889361772,0.18003053417753886,-4.5497696396621885,13.412481204529445,38.002533432007645,0.35293650168156365,1601.2957419959025,2.8333708619978566,3.911441658780216,430.70108363339943,0.5,0.5106382978723405,0.7083333333333334,0.16,51.24153498871331,51.2661499692671,51.214980000280505,41.48936170212766,0.5658012792683279,0.43419872073167204,10.090476120249892,8.839424000842287,0.537934949181488,0.4620650508185119,27.872596658970878,25.832361540075738,0.5410225005428502,0.4589774994571499,20.960669751310522,19.306039461834875,1.4125975325280893,1.0364154624142667,1.6013928733141982,1.7511244496522123,0.1455450062680228,-0.39670956094871457,-0.3555293878101515,0.0004838746147105356,0.07837548458898787,0.7531737724077394,1.4932664806720584,5.777576170469209,1.0133001885260204,1.0145539595333988,1.194275868811718,1.349287240693974,1.5814196804203904,1.5662210425075196,2.2257492492678703,0.6749703922566539,Relax
98.83401161482159,607.1752577319587,24.977494165280717,,,,,,,17.924901208467883,18.01677763407734,0.04113720683972137,0.029521791245948534,605.0,20.7564,0.034308099173553715,28.0,1.3934522636856221,587.2,623.8,2.0618556701030926,16.49484536082474,550.0,680.0,5.388888888888889,78.125,,,0.03757104364663863,0.01093023434092886,0.0021181511116548017,0.05061942909922229,3.4373502410604138,0.7422257483977801,0.21592962495692766,-4.516222536865351,12.73978564018621,33.082783425983465,0.385088082708914,1324.0794192121982,2.5968084833097644,3.8288841451343445,343.6386106083741,0.5051546391752577,0.5161290322580645,0.75,0.16666666666666666,48.888888888888886,48.87882759179004,48.900087016550934,40.86021505376344,0.5369427784081698,0.46305722159183,9.336403003974901,8.670275901638096,0.5387525925589473,0.4612474074410528,24.282686244608765,22.46823775814237,0.5385188194218065,0.46148118057819343,18.395886392163103,17.029318720473533,1.3488082215176773,2.3775423979621744,1.6295734172764103,2.0603991322490507,-1.542985966503636,-1.3878456446114278,-0.31879367731069386,0.0018698660545036674,0.3395838794360882,0.646100346966668,1.405342556090585,5.614872893510482,1.015852683775574,1.2196721365979173,1.0181818345436904,1.5492558231983498,1.6372540613890436,1.5745328101430973,2.5846945973849538,1.020605078688731,Relax
99.33873554811618,604.0408163265306,23.4691806538672,,,,,,,17.265960791738628,17.355577354040868,0.038853633760372076,0.028584096182012055,603.0,19.273799999999998,0.03196318407960198,24.75,1.3592745250004663,586.4,616.6,2.0408163265306123,13.26530612244898,550.0,680.0,4.260869565217392,70.3125,,,0.032940829110008285,0.012030591222338849,0.0018023879771783711,0.0467738083095255,2.7380889684658665,0.7042580089271857,0.2572078617744028,-4.4203026045390805,12.272246438449976,31.014864521803762,0.3956891841272582,1195.7594695847597,2.5272361239936965,3.7846139388301685,313.52754400109177,0.5204081632653061,0.5319148936170213,0.74,0.17391304347826086,50.21570319240723,50.202549269426,50.22799751758231,40.42553191489361,0.551716983089532,0.4482830169104679,9.115577326752266,8.216789214772398,0.5349865738502881,0.46501342614971186,22.685133005830963,21.149623207367085,0.5372514599832646,0.46274854001673543,17.28740884997288,16.04403606973009,1.3591438154174849,1.0332166507453078,1.5572848984894143,1.460599286976934,0.27504613802368283,0.2301661968048032,-0.5935772874379603,0.00018399439450624079,0.05612661124571494,0.6635461002878489,1.170932950247736,5.519972981715775,1.0164290886492289,1.0508214295665066,1.0972576843465134,1.4401040344905909,1.6467228009843273,1.5805878275397645,2.5088035269009783,0.9449585491593154,Relax
99.39053620539826,603.6428571428571,22.736160399036635,,,,,,,12.940386711664482,13.003642431828299,0.037664920788843086,0.02143715701849518,602.0,17.7912,0.029553488372093022,25.5,1.7569923454097574,586.4,614.0,0.0,11.224489795918368,565.0,680.0,4.9,46.875,,,0.06259792622970396,0.05019087832781405,0.004014512675997019,0.11680331723351503,1.2471972660222277,0.5359259284096975,0.4297042200220363,-2.991921975412351,9.194963743670916,30.675049396835227,0.29975383656984655,886.1049539515606,3.336070728712715,3.6544552745379084,409.3365375783945,0.5306122448979592,0.5368421052631579,0.7647058823529411,0.125,48.44221105527639,48.50318139358834,48.381287532381826,38.94736842105263,0.38675121590839134,0.6132487840916087,5.7200305943237755,7.2027917041473115,0.5524692209688415,0.44753077903115845,22.80023454631606,20.520915187468063,0.5387990278796272,0.4612009721203728,16.621814662771094,15.378364159828424,1.2515773851926313,1.1570401239952233,1.3801450412928138,1.649698881468396,-0.3939138002834941,-0.9046056393876061,-0.26703155354299973,0.000501682961436963,0.08455547363506462,0.6332649668318151,1.0919233005173128,5.488142211524309,1.0338791581015683,1.0817485939260563,1.1085015172617323,1.3940420619958496,1.6113328966834635,1.654509697316029,2.227226090929059,0.8099644707079847,Relax
100.51930365092493,596.939393939394,15.001236807389965,,,,,,,12.568993270613788,12.630351269694613,0.02513025100989232,0.02105572759684527,598.0,16.3086,0.027271906354515048,20.5,1.193511404168124,585.0,609.0,0.0,11.11111111111111,561.0,632.0,4.125,54.6875,,,0.05037166225358676,0.06603938716131821,0.0034034207321189005,0.11981447014702387,0.762751812498517,0.42041384643921464,0.5511803964936918,-2.7175039397837124,8.93100703156918,19.180710162326086,0.46562441932473775,538.1644264461052,2.147653685024143,3.4378850967586043,164.77409144599864,0.5252525252525253,0.5212765957446809,0.7755102040816326,0.16666666666666666,51.440329218106996,51.47318727338344,51.407444417703395,36.17021276595745,0.3844464539465188,0.6155535460534816,5.538990194172041,7.008830953889969,0.6849258163749068,0.3150741836250932,15.874002736162844,10.76641442001253,0.6313647475817901,0.3686352524182099,11.888321480319235,9.084035193779798,1.1360890975030233,1.4195075211388781,1.3331438484760956,1.6983421135078776,-0.6826198742840965,-1.3217405372541542,-0.2427288974567873,0.0009134514944209013,0.14589349728493853,0.6569080409379477,1.2794312155775294,5.322051791770903,1.308417632914399,1.21885930611225,1.1515786445811524,1.8014910537828557,1.6913487496443782,1.7829027358464486,2.5240869700239394,0.8705215763740901,Relax
100.20072689504558,598.7551020408164,14.820618978190378,,,,,,,12.405934728783855,12.465105935345333,0.024752388627128682,0.02071954741846719,599.5,15.5673,0.025967139282735613,19.75,1.1946394449266327,587.0,610.6,0.0,11.224489795918368,561.0,632.0,4.260869565217392,54.6875,,,0.05155238085919691,0.05324143600985591,0.00564807131777303,0.11044188818682585,0.9682755523283345,0.46678286387126783,0.4820764737360481,-2.9329183134325,8.814160935091365,18.93355741058534,0.4655311595148812,524.2797328460392,2.1480839242685192,3.4265331794183043,162.68348121157385,0.5306122448979592,0.5217391304347826,0.7708333333333334,0.21739130434782608,51.86368477103302,51.84320179014835,51.883890015791266,38.04347826086957,0.39138589322794554,0.6086141067720542,5.5165470782607,6.879165404805052,0.6688835941430501,0.3311164058569499,15.484867475911344,10.894882994938232,0.6194219479803346,0.3805780520196655,11.623541035613966,9.111020583339194,1.1299801879637572,0.7284022759773912,1.2829643671124602,1.4036311915347248,0.35424590809046563,-0.449484735027605,-0.334340407214749,0.0002908699241448705,0.042721265506952204,0.5337706984635866,1.6226831391841208,5.295746773031723,1.3136695530569653,0.7816901339900987,0.9619587668492446,1.305002471439256,1.7605543031422035,1.7847695669805268,3.068019872446681,1.0799526276106464,Relax
99.55293310505787,602.6632653061224,15.49322690563543,,,,,,,11.449575691053125,11.508979760181825,0.025707933098868496,0.018998296976400778,604.5,15.5673,0.025752357320099256,20.75,1.3531703989469301,589.0,615.6,0.0,10.204081632653061,561.0,635.0,4.666666666666667,70.3125,,,0.020932805704159067,0.04573260693932667,0.004543893333125304,0.07120930597661103,0.45772168054907886,0.29396165876177094,0.6422279547893321,-3.0849437357354765,8.138077632963293,20.42805979890812,0.3983774138647408,522.2744996312857,2.5101824681745772,3.424868931625362,205.11263026416415,0.5714285714285714,0.5604395604395604,0.8235294117647058,0.14814814814814814,49.767441860465105,49.77352063164721,49.76144456151849,42.857142857142854,0.39760931110412084,0.6023906888958791,5.131601439446884,6.316314853879066,0.5775458481606285,0.42245415183937174,15.524597655760989,13.277518396692457,0.552900161739329,0.44709983826067135,11.561714096676862,10.396834328482877,1.0424225393370217,0.6751389412941105,1.1799739311849948,1.315617390592657,0.29824463153997804,-0.5752554016449327,-0.29908808230249617,0.0002314069119188409,0.03572428640389171,0.6532039954769862,1.428494715610267,5.395086951536925,1.228864961503762,1.3170310623514185,1.344558432027254,1.7404812420016729,1.777785011905333,1.78631739732049,2.586010904574889,0.9449585491593154,Relax
99.71140104444643,601.8265306122449,16.06496188014131,,,,,,,10.867998990699975,10.923350567882823,0.026693675109002328,0.018058358078105723,604.0,17.7912,0.029455629139072848,23.5,1.4781894895176664,587.4,616.0,0.0,9.183673469387756,561.0,635.0,5.157894736842105,70.3125,,,0.01553479666699676,0.019729356238774965,0.0015048027489509557,0.036768955654722685,0.7873950107133018,0.4224976312320537,0.536576464777587,-3.925647588026567,7.723975259827869,21.316194656626095,0.36235244537077294,517.249910567934,2.759744035884073,3.420670534210426,235.30896428547126,0.5918367346938775,0.5824175824175823,0.8301886792452831,0.14814814814814814,49.075215782983975,49.052170149703564,49.09816504746769,46.15384615384615,0.413197172034564,0.5868028279654359,4.965506016510301,5.917400189272312,0.5716884402303176,0.42831155976968244,16.117192121374014,13.950493638645717,0.5532905532479302,0.44670944675207,11.92518620142429,10.715220430814632,1.2220052515855175,1.4277478776990329,1.2559047067519602,1.9016096079212592,-0.8265560914797323,-1.7580169264521825,-0.04774585117232264,0.001407801298489974,0.17516100077917468,0.6537398297688899,1.5705980791178364,5.534979869338421,1.1539216893813482,1.5102809454421189,1.2244193853350038,1.5363949297419623,1.9286417870620416,1.7278874324861044,2.7934726106585623,0.8774615099336501,Relax
99.88021874965644,600.734693877551,16.94597298536696,,,,,,,11.483740186010557,11.540251535312468,0.02820874698610481,0.019116159434519546,602.0,20.0151,0.03324767441860465,26.75,1.4756492841949238,586.0,616.0,0.0,10.204081632653061,561.0,635.0,5.444444444444445,70.3125,,,0.011242265220814474,0.02886215943426482,0.003379056051149516,0.04348348070622881,0.3895157341369193,0.2585410606102669,0.6637499796590673,-3.5452239039635227,8.160190117217912,22.58688360523787,0.36128003578703416,579.037197317182,2.76793595256804,3.4696765736386186,250.07618874963012,0.5408163265306123,0.5326086956521738,0.7755102040816326,0.14285714285714285,48.48837209302325,48.496003545061264,48.4815508798878,48.91304347826087,0.4120544090056285,0.5879455909943713,5.239572978783672,6.258743883560022,0.5517779647756235,0.44822203522437654,16.77793433521351,15.121780002361731,0.535638564638524,0.4643614353614761,12.428841570249746,11.57238319102481,1.070643864784571,1.4863267580657973,1.2874018540839507,1.721583797047584,-0.8595815595948153,-1.6790895651752042,-0.2078825765549376,0.0010810589038372515,0.171317490245017,0.6682572284201647,1.8658674413817768,5.578496833690363,1.2077050777691263,1.5256283367479648,1.182829343039394,1.421712743622031,1.9797027814067063,1.79164658598957,2.5584623040978225,0.8099644707079847,Relax
99.71453892151668,601.7755102040817,15.75359923675431,,,,,,,10.914380941684517,10.970487197343564,0.026178531644486084,0.018136964294181886,603.5,17.049899999999997,0.02825169842584921,21.5,1.443380006701774,587.0,616.0,0.0,8.16326530612245,561.0,635.0,5.157894736842105,70.3125,,,0.006342844862046672,0.021147790612230766,0.00229705581114233,0.029787691285419766,0.2999294336864819,0.21293509460907148,0.7099506440293347,-3.8562198417251534,7.757305890161836,20.94991009092567,0.3702787198844289,510.5554932493151,2.7006682974169274,3.4150130632449613,226.31503206519173,0.4897959183673469,0.48387096774193544,0.6666666666666666,0.14285714285714285,50.66344993968639,50.67323037024947,50.65337940459303,46.236559139784944,0.4183470359151883,0.5816529640848117,5.017677085398515,5.916519951232593,0.556196383866797,0.443803616133203,15.624144395038675,13.956534123515441,0.5395736527720776,0.46042634722792236,11.603684143631964,10.718909764387986,1.1142091071839526,1.6097826556597443,1.3564472053074623,1.7755769414570635,-1.0982569508833375,-1.8094748503439178,-0.2396358230870444,0.0007742765290766688,0.17461173361907106,0.6597635182895676,1.5260563034950492,5.509569410198901,1.1824263437168783,1.4095880181824167,1.1930039528583407,1.4910476205712186,1.953296087574849,1.7858279762751403,2.650943168206345,0.9449585491593154,Relax
100.05349755330374,599.6969696969697,16.816206071582542,,,,,,,10.668951711027887,10.718462612438774,0.028041172327550472,0.017790571322077828,599.0,19.273799999999998,0.032176627712854754,24.5,1.5761816649896905,584.6,615.4,0.0,7.07070707070707,551.0,635.0,5.5,78.125,,,0.007414949475152401,0.011210171153538503,0.0025166146233358243,0.021141735252026728,0.6614483734097015,0.3507256801185028,0.5302389335550804,-4.490933774080768,7.579097597149935,22.509390938281093,0.33670824847865494,535.9584423184725,2.9699302126344946,3.4361012262003214,267.4052808624085,0.48484848484848486,0.48421052631578954,0.6521739130434783,0.1,48.00000000000001,48.03956371309396,47.960742774980005,47.368421052631575,0.3890632003585836,0.6109367996414165,4.729813317734491,5.926960939586277,0.529940352092696,0.47005964790730403,16.386161803591527,15.432640142207978,0.515582272543735,0.4844177274562653,12.059797524712023,11.689637456702208,1.0307821429724768,2.3219759568992266,1.3484990836759128,1.9557423990787584,-1.7273850042606895,-2.189622452966046,-0.2384799297346041,0.0026017462125732375,0.39873215764157394,0.5828919957732275,1.3545456628053103,5.52446694346088,1.1211767899334697,1.5410307536859813,1.1914163603433359,1.433659107769103,1.865402335472034,1.7619630946099345,2.109341060724755,0.8035583781914678,Relax
100.12048173161028,599.3061224489796,17.05020371330689,,,,,,,10.409650558124804,10.461463811814799,0.02844990744234957,0.01736950477927247,597.5,20.7564,0.03473874476987448,28.0,1.6379227734978181,583.4,616.0,0.0,4.081632653061225,551.0,635.0,4.666666666666667,78.125,,,0.034385941401933476,0.029578659128368018,0.004744506980237492,0.06870910751053899,1.1625253617042748,0.5004568193038916,0.4304910979062139,-3.5207021530728433,7.397372002471913,23.01881560795705,0.3213619731118929,534.9464452701503,3.1117558506270955,3.435280415930969,286.5157365702666,0.47959183673469385,0.48958333333333337,0.7021276595744681,0.1,48.69888475836432,48.71794438963865,48.68048518670554,46.875,0.4011987441727714,0.5988012558272287,4.686527676933816,5.725491245299393,0.5266348646931494,0.47336513530685065,16.704665270594862,15.837298702446356,0.5148886296135937,0.4851113703864064,12.268035365723494,11.908007393987228,1.3498359612945932,1.386141841020274,1.4707908692787086,2.04290688180473,-1.4857119014517544,-2.480044243882942,-0.08726012331832234,0.001127042288625747,0.15269477783885807,0.6653233243568306,1.6302719993369423,5.466715012849719,1.101660710144753,0.8555078671412493,1.1234587714004858,1.137204808371192,1.8087443153343379,1.6465804812632512,2.2422081861644285,0.7424674314823193,Relax
100.44162880256017,597.5050505050505,16.48646552966064,,,,,,,13.756260170466064,13.823330747849576,0.027592177699126058,0.02302283496823729,597.0,16.3086,0.02731758793969849,21.0,1.1984700293075423,583.6,612.0,1.0101010101010102,10.1010101010101,551.0,653.0,3.8076923076923075,70.3125,,,0.054246591662030316,0.032596382008955,0.004102771545741337,0.09094574521672665,1.6641905732706008,0.596472012327338,0.35841568982998345,-3.4235539780887563,9.774570910388944,20.896709550044843,0.46775646122563674,641.6903092126346,2.1378646430233257,3.514295590600562,178.69734601027497,0.494949494949495,0.5051546391752577,0.6938775510204082,0.14285714285714285,51.53010858835143,51.47879505101297,51.582210094186934,45.36082474226804,0.44809921811809106,0.5519007818819089,6.544849237865739,7.263451793655885,0.5712440643850126,0.4287559356149875,15.793877186386474,13.683052051361791,0.5491277256778934,0.4508722743221065,12.088871083046813,10.954077902750168,1.2256530590092498,1.2907908006932947,1.4278262093656044,1.8710484593558971,-1.2500333312018093,-2.2632785432339873,-0.15662735607332012,0.0014134715892087813,0.148552038784778,0.6440048864423282,1.6189166563886443,5.5168418171764,1.22047430216579,1.305587459135139,1.2292512430620846,1.6173267319667715,1.7381126156591005,1.7165135774783093,2.7428137707400366,1.0714111709219571,Relax
100.31768828369488,598.204081632653,16.161529467068295,,,,,,,13.223300272741778,13.290825712120583,0.027016748904419574,0.022104998408991102,597.0,14.0847,0.023592462311557788,18.75,1.2222008979394743,585.0,612.0,1.0204081632653061,8.16326530612245,551.0,654.0,3.3793103448275863,54.6875,,,0.05108359329584933,0.021553725689480087,0.003570053253080786,0.07620737223841019,2.370058616862798,0.6703235106445787,0.2828299291314041,-3.83720659155267,9.398032988608989,20.75149044454646,0.452884722363584,612.6834265148973,2.208067418969329,3.4942062425044886,183.28275978262556,0.5,0.5052631578947369,0.7083333333333334,0.1111111111111111,50.88082901554406,50.91549530245708,50.84635701299391,45.26315789473684,0.440363186132893,0.5596368138671068,6.237069958455385,7.031180555212616,0.5562971925380353,0.44370280746196455,15.477568287614782,13.822779589226052,0.5365627546659607,0.4634372453340391,11.799494941827922,10.96600965648682,1.203195652833673,1.5845728434193251,1.2355558622128973,1.9607621311508598,-0.8472053369803874,-1.777765450195436,-0.042333271739624645,0.0028337753320708155,0.2557171039627006,0.6735611623423936,1.6519975268528964,5.435875278448569,1.2025809766494484,1.140865022941802,1.3872389657437278,1.6211066429830214,1.649665396383229,1.6757203013206157,2.156434587876496,0.9449585491593154,Relax
100.08657407797966,599.5714285714286,18.07202086498159,,,,,,,14.319980994055232,14.394277750507765,0.030141564463872082,0.023883694772072105,597.5,16.3086,0.0272947280334728,22.5,1.262014305220375,586.0,615.2,1.0204081632653061,12.244897959183673,551.0,654.0,3.92,70.3125,,,0.06020933113077122,0.018350928144414077,0.0045729413386142274,0.08313320061379953,3.280996506386442,0.724251330229392,0.22074126833711671,-3.9980751256836253,10.178291407666682,23.556306839663947,0.43208349581049543,753.2375396096664,2.314367500022688,3.583902066074164,218.0718038811216,0.47959183673469385,0.48958333333333337,0.723404255319149,0.07407407407407407,49.7648165569144,49.763346445674806,49.76626159384988,47.91666666666667,0.44366799054848916,0.5563320094515108,6.779641706363741,7.591799303634591,0.5322152660955379,0.4677847339044623,17.185052632225165,16.11128666345582,0.5182844753499264,0.4817155246500734,13.063107892821979,12.593827349513653,1.341387367593622,1.1705865653027816,1.387532964316207,1.7707655408780592,-0.9459606590853902,-1.4758268768661038,-0.172614919800719,0.0006515813077312154,0.08342313294468659,0.6287730170427688,1.91238745701667,5.593902701081455,1.156491152122941,1.1410682664079799,1.25710575810322,1.4276557270449932,1.749820190284193,1.6485452662935576,2.690681736367655,1.0124555883849808,Relax
98.9390394387578,606.530612244898,24.52989091037504,,,,,,,16.129949092664823,16.211989644933244,0.04044295607699788,0.026593792245645235,601.0,22.238999999999997,0.037003327787021624,29.75,1.5207667903632835,589.0,623.6,2.0408163265306123,15.306122448979592,551.0,690.0,4.666666666666667,46.875,,,0.0434548640298438,0.012217592913182857,0.0025568825085661544,0.05822933945159281,3.556745124725488,0.7462709424339027,0.20981850435276844,-4.404878323922927,11.463607814458385,32.890255401009625,0.3485411613467279,1184.509200624841,2.869101589425194,3.7805085483975946,377.4619361905491,0.5,0.5052631578947369,0.7291666666666666,0.12,50.968828980623414,50.979207456379974,50.95690864184552,49.473684210526315,0.48369457542497124,0.5163054245750288,7.973589216908531,8.237996317875684,0.4359187705623571,0.5640812294376428,21.715509873599412,24.70233857903435,0.4410949336810029,0.5589050663189971,16.3575898907876,18.412904640585392,1.4619763525255725,0.8696735022245008,1.4619763525255725,1.8262820290909616,-0.41800108488564547,-1.1835437255574508,-0.08110063646466498,0.0005984255023192596,0.057997450401586124,0.5712248091735943,1.5040773967762742,5.706610676159177,1.0320368381290939,1.2380007710039826,1.0465135244205384,1.4364524385366402,1.6845754557618977,1.619799547778737,2.2322158780374357,0.8099644707079847,Relax
98.11715203653941,611.5520833333334,22.589177563215003,,,,,,,16.09838174279769,16.182400958568373,0.03693745500806759,0.026323811465168514,608.5,20.0151,0.032892522596548894,27.0,1.403195546243103,595.0,628.0,2.083333333333333,17.708333333333336,559.0,690.0,5.333333333333333,85.9375,,,0.03369299996650935,0.02371782799430383,0.0028867128348914013,0.06029754079570458,1.420576959011643,0.5587790069360431,0.3933465226162825,-3.741528277582205,11.442685453683382,29.96761596655505,0.3818350270656776,1077.2835472162326,2.618932075678837,3.739300137107475,313.9326027457451,0.5416666666666666,0.5434782608695652,0.78,0.16666666666666666,49.116607773851584,49.11687002518703,49.117699265714144,48.91304347826087,0.4609260763606822,0.5390739236393177,7.769279382778017,8.402127390182267,0.41998905032713646,0.5800109496728636,19.42098167911608,22.822871803047978,0.4251988927944282,0.5748011072055719,14.790811869336686,17.1970814677842,1.415328694183502,1.5017502162602692,1.5873075339412166,2.1464672111758922,-1.1713959350627103,-2.131922752787222,-0.12766133063917762,0.0015511760067199738,0.19292717674597754,0.6751225669966581,1.5466370111950698,5.653878355041425,1.0485909577090866,1.3648397790331481,1.0500316737959288,1.4318894146971168,1.6873888699290687,1.6364408156538022,2.6603005592684044,0.8231203125901446,Relax
98.3966617482204,609.8556701030927,23.924355481880127,,,,,,,16.29033455764491,16.375795146088837,0.03922953684735906,0.02671178666731281,607.0,20.7564,0.03419505766062603,29.0,1.4686227220945955,591.2,628.0,2.0618556701030926,17.525773195876287,559.0,690.0,6.466666666666667,93.75,,,0.04237899653046095,0.013150571727961136,0.0016169677918557684,0.05714653605027785,3.2225972685547557,0.7415846954078837,0.23012018989902008,-4.331290043891985,11.579435795121164,31.719480427593563,0.36505754946250396,1153.8871489962094,2.7392941235494503,3.7691334465416593,347.5559453493954,0.5257731958762887,0.5164835164835164,0.7659574468085106,0.17391304347826086,49.83022071307301,49.82252538722358,49.83773653319288,49.45054945054945,0.4717773590830586,0.5282226409169415,7.953483182659162,8.415837200746797,0.42738798675161993,0.5726120132483801,20.73658423225351,24.002489724508706,0.43260800392074195,0.5673919960792578,15.704518782156093,17.985352773362823,1.377725232413029,1.5113463544441084,1.5523880639458048,2.079412541070615,-0.848612222576806,-1.7177444997271394,-0.1512880878859457,0.0021368387945570624,0.21494951521268874,0.5922504479669137,1.6341305250244722,5.839351630735402,1.0594595365328283,1.466861400322782,1.160798894307444,1.8590661816776388,1.8212062034164607,1.629745960215001,2.1168345803885824,0.9525647401094823,Relax
99.45954556934683,603.3673469387755,26.664153223297863,,,,,,,13.751850859497265,13.817073207719911,0.04419223771153713,0.022791838055652495,601.5,27.428099999999997,0.045599501246882786,37.75,1.938950145382295,578.0,624.0,1.0204081632653061,11.224489795918368,559.0,690.0,7.0,101.5625,,,0.025044944942195592,0.008817571528094105,0.0008039641431696825,0.03466648061345938,2.840344970539637,0.7224542122245835,0.2543543899483887,-4.731008783826397,9.770146161329711,36.50551316457467,0.26763481223462876,1120.4936283578204,3.736434702385895,3.7563795012417,545.6018648660878,0.5,0.49462365591397844,0.717391304347826,0.21739130434782608,48.023715415019765,47.99022348045746,48.060306349468384,51.61290322580645,0.4711077191452247,0.5288922808547754,6.708980300065478,7.108533604056465,0.4127393465060997,0.5872606534939001,23.452891472563664,27.975245718046608,0.4166440058068192,0.5833559941931807,17.24889177730726,20.410115420853028,1.4848837236992538,0.3435321599588752,1.553745326550983,1.6017615974683967,0.7259991738187175,-0.1440551397936467,-0.3602277267922695,6.21255085363588e-05,0.009222319687321543,0.7514548774584844,1.4748477584613355,5.923133951147684,0.9038933073426193,1.0079157921239779,1.106531922818269,1.5149210183709279,1.7471660536773825,1.6070412157024399,2.4032872157989242,0.6749703922566539,Relax
99.91689703112579,600.6632653061224,27.617021449894597,,,,,,,13.722958413872206,13.793589140414849,0.04597754356730945,0.022846342046368408,596.5,30.3933,0.05095272422464375,39.75,2.0124684938181567,575.0,624.0,1.0204081632653061,11.224489795918368,559.0,690.0,6.125,23.4375,,,0.010121708886586636,0.0030306169775427944,0.00044152108232868706,0.013593846946458118,3.339817918790007,0.744580171194575,0.222940348635632,-5.798989057237781,9.75354041808846,37.78051297498383,0.25816326063509826,1157.657290307514,3.8735178566459676,3.7705501210312686,585.3739665673781,0.5306122448979592,0.5268817204301075,0.7346938775510204,0.20833333333333334,50.6429277942631,50.6847524477239,50.60246592913291,46.236559139784944,0.48491815842776603,0.5150818415722341,6.792305695908177,7.000372013924212,0.43816811315355203,0.5618318868464479,25.008534054610905,28.318551959665726,0.44108949626113303,0.5589105037388669,18.324330713934685,20.626991945332467,1.4510263587867958,0.6971721364543333,1.4510263587867958,1.5306414896979352,0.030961313178810457,-0.1822727473157144,-0.38580276412645403,0.0003383666768288132,0.022469814380284073,0.7594067684392019,1.3862943611198908,5.827777033107414,0.8684069895605264,0.8665625169642912,1.0792809969233146,1.5200982087927417,1.6823002420382824,1.6422875612035843,1.8414268253962198,0.5399763138053232,Relax
99.76728214378623,602.1428571428571,33.82581214117866,,,,,,,32.91335078344067,33.054738912972994,0.05617572597586017,0.054660369035370034,595.0,29.651999999999997,0.049835294117647054,39.75,1.027723137754697,575.0,626.8000000000001,7.142857142857142,15.306122448979592,553.0,765.0,7.0,31.25,,,0.004082048703806026,0.005980466763577285,0.001170012047243446,0.011232527514626757,0.6825635632099561,0.3634131942690966,0.5324239585248867,-5.119256659955746,23.373230035714048,38.452696371612525,0.6078437207584017,2823.5494931132125,1.6451597110393905,4.1577655147131285,253.04330740562992,0.5714285714285714,0.5652173913043479,0.7884615384615384,0.25,54.36328377504848,53.75316659672785,55.03984086925606,51.08695652173913,0.7459054616050779,0.25409453839492185,20.204552910998384,11.792476415070754,0.4272216451736589,0.5727783548263409,25.133526139609906,29.101816473151086,0.5133125945452771,0.48668740545472305,22.802610536337586,22.20335810228903,0.7478891350232226,2.2980536857793075,1.222261037256957,1.0427042307490937,-0.25259091402805467,0.6856401401735777,-0.5781342958256315,0.0011731611405144643,0.3161200670783357,0.6990634178740653,1.083797202882969,5.788243329220401,0.7348550624376933,0.9428550061100898,1.1216841147524894,1.2196053595808205,1.5048819538763663,1.866440165819583,2.1418059532590323,0.5399763138053232,Relax
100.42154222551926,597.6262626262626,27.23952180443712,,,,,,,24.05032988021035,24.171891718545805,0.04557952604815812,0.040243094027564014,592.0,23.7216,0.04007027027027027,31.0,1.1326049139496825,575.0,618.0,4.040404040404041,11.11111111111111,553.0,687.0,7.071428571428571,93.75,,,0.014786312739763424,0.012285752268403395,0.0025988390380839283,0.029670904046250748,1.2035333626082458,0.4983438562139747,0.41406733846911004,-4.399315040174492,17.09210854829069,34.66471988267752,0.4930692821444628,1861.3721431470453,2.0281125517509184,3.976803320039302,281.2158139879516,0.5757575757575758,0.5698924731182795,0.8113207547169812,0.24,48.77470355731226,48.7148347110433,48.837296655322895,52.68817204301075,0.63792890535415,0.36207109464584986,13.652725267011522,10.285612010618994,0.44612643301256233,0.5538735669874376,23.153501207088496,25.79841441635221,0.48364259651066716,0.5163574034893329,19.006334803995525,19.638635401051154,0.9543441561889467,2.1304789084864773,1.4392792091041986,1.2191076266487464,-0.3132511873488255,0.4215421739515488,-0.603343704356062,0.0016059296516167533,0.281680914144287,0.7190071382690597,1.16550652349814,5.763209085111381,0.8391946509471881,0.9731974662535621,1.0674135494869395,1.522971784481798,1.6331193669363246,1.6893094004048208,2.735258360920588,0.5357055854609786,Relax
100.08741595355484,599.6530612244898,33.466740541783544,,,,,,,31.41491536223669,31.577619418030324,0.0558101720909163,0.05238848493174958,590.0,23.7216,0.04020610169491525,32.5,1.0653137261675807,574.0,620.0,8.16326530612245,19.387755102040817,553.0,728.0,6.533333333333333,78.125,,,0.017634008387916504,0.012308836720513392,0.002008330731455059,0.03195117583988495,1.4326299705095937,0.5519048336838923,0.38523892773761886,-4.397437841990835,22.328748824217243,41.99033138179865,0.5317592905183878,2945.53076472299,1.880550124521841,4.17613367306492,315.85969163501926,0.5612244897959183,0.5638297872340425,0.7924528301886793,0.21739130434782608,49.49374627754615,49.413236583709306,49.57622903736322,57.446808510638306,0.6646157381775639,0.3353842618224363,18.203565355903955,12.931308905134081,0.37674612506291844,0.6232538749370816,25.773517808341612,33.1498674105397,0.4402044253942346,0.5597955746057657,22.311925195773323,25.160807412882857,0.9916053050260979,2.087295141193376,1.3443438683961224,1.6009106120799752,-1.0703646337996329,-1.1798690625989718,-0.37708171277725244,0.0011211801045937673,0.2591819693318538,0.7273631882099867,1.0853670619180893,5.686202512893871,0.789269489105441,0.9784382917019462,1.2245036734086245,1.317963954732172,1.5564182671820697,1.7065892326337884,2.3426677895358594,0.6074733530309886,Relax
98.4608000929362,609.4536082474227,23.85940617212838,,,,,,,17.499702378421564,17.59019052289028,0.039148847179262355,0.02871375629187698,609.0,22.238999999999997,0.03651724137931034,29.0,1.3634178259825038,589.4,625.8,2.0618556701030926,14.432989690721648,556.0,683.0,5.105263157894737,78.125,,,0.03381103714774652,0.01386598743429744,0.0012430440722178493,0.04892006865426181,2.4384153893083096,0.6911486037908693,0.2834417002211109,-4.27831638468629,12.438143001099057,31.507468308490388,0.3947680873409725,1231.172556787388,2.533132824225154,3.7972890363363545,319.25040872188316,0.4845360824742268,0.49462365591397844,0.782608695652174,0.02857142857142857,50.84067253803043,50.84800552572793,50.83224017278728,50.53763440860215,0.5801217728494166,0.4198782271505834,9.474342082421176,8.060299067195434,0.4755360583522388,0.5244639416477611,21.727273684754007,22.817671604226454,0.48963922849880936,0.5103607715011905,16.760632143015084,17.11161240928151,1.2549241701499974,1.90107664051133,1.5754284252368778,1.7147576716471797,-0.4424131432516525,-0.25274552940838024,-0.42671034747298414,0.0009588257823118206,0.22286239418099638,0.6157123839903083,1.6784307839210517,5.754148924482926,1.1172931890757,1.1294983731039256,0.9148462264193266,1.3887550267783484,1.8550491093369443,1.5829454883500655,2.359983517321073,0.9525647401094823,Stress
98.2105736096719,610.90625,22.48277849704899,,,,,,,16.028264508607748,16.1129481990123,0.03680233832449576,0.026236864508437666,610.5,17.7912,0.029142014742014742,22.75,1.402695749435314,595.0,625.0,1.0416666666666665,13.541666666666666,556.0,683.0,4.571428571428571,78.125,,,0.05133663393698301,0.025971623482324395,0.0012183378264307868,0.0785265952457382,1.9766432380294354,0.6537483737367202,0.3307366555375254,-3.6507507415022618,11.393574936429165,29.723995381774753,0.38331236397025975,1063.9398381638164,2.608838362640417,3.7338871808792966,310.18039777168224,0.4583333333333333,0.4673913043478261,0.7441860465116279,0.027777777777777776,49.58123953098826,49.58973605653738,49.57338737347308,50.0,0.49455052036384484,0.5054494796361549,8.012623019933889,8.100433400540723,0.4941698753466026,0.5058301246533974,20.895141609693333,21.140221346207078,0.49421864007862887,0.5057813599213711,15.824175658604023,16.008216325425284,1.3503608865155197,0.36016549176446055,1.3444733681057939,1.3693351324836183,0.4037900375305812,-0.12535299136564682,-0.4309712758542582,7.224593277972747e-05,0.004998869466633287,0.7505793884130063,2.0600234558227344,5.591378355041425,1.1411996416340173,1.7081187633778228,1.1217534499067086,1.3613115834919332,1.8106909497628285,1.6518445132854112,2.4772751278610263,0.9603070313551686,Stress
98.59978209711859,608.659793814433,20.758977273869846,,,,,,,15.452548333527385,15.522984514764358,0.034106043285321394,0.025387825005964707,610.0,16.3086,0.026735409836065573,22.0,1.3434015429564523,594.0,622.6,1.0309278350515463,14.432989690721648,556.0,674.0,4.217391304347826,62.5,,,0.05307583124227547,0.0328554990026445,0.0024236475620735246,0.0883549778069935,1.6154322062800952,0.6007112735426933,0.3718579283038868,-3.415636150720113,10.976407614643646,26.887997672932975,0.408227036767901,927.1896199582482,2.449617271598191,3.674138670945708,263.4612139932343,0.4639175257731959,0.46808510638297873,0.7272727272727273,0.0,52.33248515691263,52.44197563485952,52.22714980428525,45.744680851063826,0.5189111372856957,0.4810888627143044,7.912348776304969,7.618536950304691,0.5521354945890247,0.4478645054109752,19.979347261042818,17.99416855212571,0.5473839828906779,0.4526160171093219,15.195058080429208,13.817239361490916,1.3166482073229562,0.3644732408615079,1.3166482073229562,1.3970046492112407,0.390667000013722,-0.27504915128847074,-0.27952718367377144,4.197654381826686e-05,0.005522372560061368,0.8242253436793727,1.9374712804094485,5.560799568790518,1.1923689188138618,1.4846372349451813,1.2220379210153425,1.4655838584211427,1.8026515413444826,1.697183648043067,2.032649605549844,0.816484062950985,Stress
98.36440826687074,610.0412371134021,17.119018131509225,,,,,,,13.683932183404009,13.75447295667084,0.02806206710305869,0.02243115932318567,610.0,14.825999999999999,0.024304918032786883,19.0,1.251030617666413,597.2,622.6,0.0,14.432989690721648,572.0,664.0,4.409090909090909,62.5,,,0.06100816471178011,0.04178182709248307,0.002420093296481961,0.10521008510074514,1.4601602887480245,0.5798699302767508,0.3971275857487844,-3.175293792539364,9.725881099308932,22.114514563651742,0.4397962736787703,675.7036100689143,2.273780065563734,3.5367263491898893,201.13416949780083,0.4845360824742268,0.48387096774193544,0.7777777777777778,0.02631578947368421,49.18330308529945,49.15746019243706,49.20884683348507,48.38709677419355,0.45226969292389835,0.5477303070761014,6.541366346888892,7.198684090275038,0.5306444993354487,0.4693555006645513,16.10939549937437,15.150548868958566,0.5179400948713132,0.4820599051286868,12.294350268303601,11.860863873729448,1.1861055515335022,0.43368776163231426,1.2883855389350947,1.4029494323496592,0.2847212313036298,-0.7050464550160009,-0.23583784568102872,0.00010405443533939708,0.014706350972147068,0.6879558140426956,2.538973871058276,5.381222126634915,1.3384166155973016,1.440771336465031,1.5270394951570745,1.9421435024770644,1.9359464233467383,1.7494264708810416,2.6808091761330655,1.0886454172679798,Stress
98.0857239138776,611.7708333333334,17.78200105172387,,,,,,,14.633055586222369,14.709451829497254,0.02906644135817285,0.023919178210068913,611.5,16.3086,0.026669828291087487,21.0,1.215193979613278,598.0,624.0,0.0,18.75,576.0,664.0,4.8,62.5,,,0.04747031336133513,0.03356182423768478,0.0015533535250581798,0.08258549112407809,1.4144139789646253,0.5748020955643987,0.4063888678370977,-3.3943660413609007,10.401153136174376,22.993735453396518,0.45234725594087716,751.3475829819764,2.210690983235902,3.5828110036227,203.32817455094147,0.4791666666666667,0.48387096774193544,0.7555555555555555,0.02702702702702703,49.22145328719723,49.21411999354602,49.22919217889989,46.236559139784944,0.44385999410087507,0.5561400058991249,6.930122347021072,7.757288953938328,0.5796881293263079,0.42031187067369197,17.506798534607558,14.907175291430853,0.5566129680343527,0.4433870319656472,13.31380093504515,11.882748147721136,1.105633203836914,0.8814866476053114,1.2382549100388962,1.3346185854122932,0.1867015852821119,-0.2556690557670427,-0.3906805047641015,0.00016778994246240182,0.0439903449444915,0.58788475019696,2.5014359517392104,5.476591375784615,1.3595710997638677,1.4992613224852864,1.4725417787274833,1.7408246237187452,2.0406177364883527,1.7380083522251237,3.318289175828768,0.9603070313551686,Stress
98.564361927126,608.8247422680413,16.73071670441225,,,,,,,13.759087905817013,13.829031248180687,0.027480349504334665,0.02259942303685062,607.0,16.3086,0.02686754530477759,24.0,1.215975711394278,594.4,622.6,0.0,16.49484536082474,576.0,651.0,5.105263157894737,62.5,,,0.04291879237240056,0.024269758804640513,0.002557659953251077,0.06974621113029215,1.7684062177080329,0.6153566147446263,0.34797243335989153,-3.7185241972971084,9.77860177282923,21.416868044653626,0.4565841164282795,657.9343995271872,2.190176933491905,3.5251527036614245,187.62692151616096,0.5051546391752577,0.5053763440860215,0.8085106382978723,0.05555555555555555,48.882681564245814,48.84144024826808,48.92296094103145,46.236559139784944,0.4516892263673379,0.5483107736326619,6.573071059854346,7.242055538384984,0.5409928748617681,0.4590071251382321,15.7525814378862,14.509941932511943,0.5255831839425865,0.47441681605741354,12.069570935106425,11.467034998331544,1.1422381655424967,0.613155117131992,1.260347288740423,1.2826697524533337,0.6501597315914935,0.08920229470967911,-0.4635941002705431,0.00015594508300405832,0.025756735911862623,0.5765285776237219,2.382627800667582,5.3518855223318536,1.3408763616683321,1.57198044032057,1.194898421981115,1.4908396307943097,2.1736000877196626,1.701109575352334,3.0485367137496757,1.020605078688731,Stress
98.39880928567271,609.8556701030927,17.61804809156511,,,,,,,14.318548576351352,14.393712077446216,0.028888881345625395,0.023478585636386527,607.0,19.273799999999998,0.031752553542009884,23.0,1.2304353334152347,596.2,624.0,0.0,18.556701030927837,575.0,651.0,4.619047619047619,62.5,,,0.055475883648413514,0.02796841361114215,0.0025677483432418476,0.0860120456027975,1.9835191376858374,0.644978075566304,0.3251685669737459,-3.576679490890456,10.177891416408928,22.830453461619154,0.44580329661516516,729.9989299910404,2.2431417793288304,3.570292333507826,204.84777600312177,0.5154639175257731,0.5161290322580645,0.8333333333333334,0.05555555555555555,50.0,50.000845504799344,49.999127038994786,45.16129032258064,0.4693628696270705,0.5306371303729296,6.972879794717456,7.414069129205067,0.5294245270545737,0.47057547294542623,16.611795124347324,15.661349495170217,0.5194668357945722,0.48053316420542774,12.739167749206942,12.252475036956818,1.1851681849071984,0.6777860804442166,1.5111866214633496,1.2100728002209409,0.8575104998357688,0.6661714983701499,-0.9442608515138888,0.00015689105749949278,0.030759728402981315,0.5275817666698632,2.063693184711697,5.378825502250278,1.3355572680550394,1.312405298385928,1.1952010743362935,1.6860692419023462,2.1512364134123327,1.6780101823264957,3.0613836746755694,0.9525647401094823,Stress
98.60206777031361,608.5257731958762,18.717801677984447,,,,,,,14.42942595300774,14.501769402023799,0.030759258691183552,0.023712103231432243,606.0,22.238999999999997,0.036698019801980196,28.0,1.2971965578494005,593.0,626.8,0.0,18.556701030927837,575.0,651.0,5.105263157894737,62.5,,,0.04597995767383124,0.020370768514129774,0.002546275939334262,0.06889700212729528,2.2571538055590867,0.6673724001644932,0.2956698823628406,-3.8936543217118573,10.254299483374613,24.41806474651323,0.4199472640369205,786.6238517348605,2.3812513752014417,3.60273722076141,232.58220102956992,0.5051546391752577,0.5053763440860215,0.7872340425531915,0.05714285714285714,48.67256637168141,48.6886122470737,48.65717423531804,46.236559139784944,0.4498699219531719,0.550130078046828,6.879412459612643,7.60747554780995,0.5149390706550249,0.48506092934497513,17.522221395826822,17.006282466210568,0.5051802088299738,0.49481979117002645,13.310795589179577,13.173597221925895,1.221103253873719,0.3152587268605269,1.1969839750723166,1.2597239487589398,0.9776433722795921,0.2615557570169105,-0.30098893911228697,0.0002910407215484135,0.014731423375323034,0.4997611141583369,1.8908503718722858,5.331533270259307,1.2975051447952026,0.7017852759366102,1.2110214632594085,1.3522377733239423,1.975549758154562,1.641580824975593,2.8619863587009142,0.6804033857924874,Stress
99.32643494768364,604.1938775510204,19.916660467835396,,,,,,,14.295122086359303,14.368172216821236,0.03296402232436319,0.023659826121214162,603.0,20.0151,0.033192537313432836,29.25,1.3932487143177517,587.0,621.6,0.0,19.387755102040817,555.0,650.0,5.157894736842105,78.125,,,0.05127485437944664,0.021395019016573525,0.0031772167486859597,0.07584709014470613,2.396579051401024,0.6760292884225494,0.2820809470179368,-3.8445971402811496,10.159832007770445,26.119765708231782,0.38897102375495357,833.6920818247326,2.570885590259254,3.627975786670345,268.60371712096355,0.4897959183673469,0.49473684210526314,0.7659574468085106,0.058823529411764705,49.20774647887323,49.16979199470065,49.244542767150854,46.31578947368421,0.4539905155887398,0.5460094844112603,6.846151595361197,7.507981863767831,0.5141493124818877,0.4858506875181126,18.728970549548546,18.20625779250267,0.5062423570718687,0.49375764292813146,14.100427821745752,13.925473321825201,1.19853085231999,0.6458031806010784,1.372320216377522,1.4250816901355436,0.726670392057783,-0.0790772277869376,-0.41830100045510143,0.0005570394182284394,0.04598706590693271,0.5113379342918272,2.2335922215070942,5.408027768722034,1.2464041625424525,1.1578718735763662,1.1117239593117036,1.227248489405028,1.9123472582599468,1.6530817255427537,2.7188715234743954,0.9449585491593154,Stress
100.27875840263475,598.4183673469388,21.406195976234155,,,,,,,13.52584391482644,13.595334440781553,0.03577128835656829,0.022602655020086813,598.0,22.238999999999997,0.037188963210702336,29.75,1.5826144461692047,580.0,616.6,0.0,15.306122448979592,554.0,650.0,6.533333333333333,85.9375,,,0.052070043206314344,0.03299179985131536,0.003066234570720921,0.08812807762835062,1.578272281020714,0.5908451041664787,0.3743619597654989,-3.4114962377483318,9.613353175575654,28.7976204301651,0.3338245671682582,869.7238377682773,2.9955854012864433,3.6463514835311592,345.0629254095632,0.45918367346938777,0.4631578947368421,0.7272727272727273,0.030303030303030304,50.66666666666666,50.68473399675436,50.64819640782192,46.31578947368421,0.4822495210188212,0.517750478981179,6.676295130284959,6.917670609870541,0.5697115406148222,0.4302884593851777,21.736224533571125,18.89019548511987,0.5609412291921037,0.43905877080789624,16.07850076407135,14.224866469192424,1.1838228316387285,1.6862735595742437,1.5102409102095817,1.5651485683715616,-0.12413058834539292,0.03460514883614341,-0.4674384634389671,0.0007957387251657659,0.18020118147503608,0.6509829369559594,1.7206635475443248,5.462568360231691,1.1346385471611604,0.9799244384839995,1.268085807867214,1.8030166881438567,1.9252065940669971,1.6833230837993134,2.432263145264375,0.8774615099336501,Stress
100.41559809759697,597.7171717171717,25.179372997996854,,,,,,,14.087916373797157,14.141079312843381,0.04212589865146329,0.02356953596183997,594.0,20.7564,0.03494343434343434,27.0,1.7873028437923772,578.0,613.4,0.0,15.151515151515152,554.0,684.0,6.6,78.125,,,0.022417656808843802,0.01054990506304948,0.0012316549416073641,0.03419921681350065,2.1249155015963637,0.6555020523158325,0.30848382056763207,-4.551638417863633,9.999253075408358,33.47081089532073,0.29874546830313775,1051.4379958283887,3.34733110992431,3.728753777033056,448.15154633720255,0.43434343434343436,0.44329896907216493,0.6744186046511628,0.030303030303030304,53.28467153284671,53.103182304869044,53.47338977368662,48.45360824742268,0.5834447300771207,0.4165552699228793,7.648192293661603,6.4624211096104025,0.5324187715979478,0.4675812284020521,24.42265719823268,22.887310837403664,0.5366101071883008,0.463389892811699,18.09642271255857,16.81653775254992,1.2974076574733047,1.6727642093697392,1.5968018834461257,1.9293090848641845,-0.7492658051271377,-1.31392871343395,-0.3012229102251415,0.0010544179448467945,0.2012666229339268,0.7709163231724028,1.4708517491479538,5.635380579737104,0.9998857548022989,1.1270467031671538,1.2515947651974557,1.8316856345243535,1.7855999247822505,1.6482782448046382,2.301385199918691,1.0714111709219571,Stress
100.03273722756458,599.7857142857143,27.859459516223257,,,,,,,14.951123117486084,15.022784814204162,0.04644902146327564,0.024927441186710152,594.5,23.7216,0.03990176619007569,32.0,1.8633690123011715,578.4,617.6,0.0,17.346938775510203,554.0,684.0,6.533333333333333,78.125,,,0.01722594350870717,0.013243273926012428,0.0009909941584762912,0.03146021159319589,1.300731496225566,0.547546969214687,0.4209531104640326,-4.32426548366221,10.62271301443005,37.61960165517648,0.28237175693135913,1255.4502685768841,3.5414306688012247,3.805769623896111,532.9088441989092,0.41836734693877553,0.4329896907216495,0.6666666666666666,0.03225806451612903,51.82222222222222,51.72534789338271,51.920485770872475,51.546391752577314,0.5973804362864916,0.4026195637135082,8.213619279383886,6.7430519796305886,0.5180027941933076,0.4819972058066923,27.07573431141145,26.11779164079564,0.5238688419937486,0.47613115800625144,20.006985407212273,19.073643991015647,1.4759372049244082,2.4298872645823693,1.5079157171937774,2.5131676860385177,-2.13615999940793,-2.4427761289142707,-0.08629686920166008,0.00699226845859639,0.548815646210947,0.6572299437551399,1.314320861494801,5.707629711568462,0.9469777002128585,1.3795006840915884,1.2877630319763544,1.7195929453751633,1.7435642807979905,1.5631126605335217,2.630917227899613,0.6749703922566539,Stress
100.05578170410422,599.5408163265306,28.486990471632218,,,,,,,15.46062507905329,15.534250208917861,0.04751468072878832,0.025787443753675813,593.0,22.238999999999997,0.03750252951096121,32.0,1.8425510175670452,576.8,618.2,0.0,18.367346938775512,554.0,684.0,5.764705882352941,70.3125,,,0.018662099374131134,0.01101600459486163,0.00036781499102278743,0.03004591896001555,1.6940896505104939,0.6211192741006273,0.3666389638313771,-4.508406100447879,10.984373663374361,38.797771517733686,0.2831186749567207,1338.850089660557,3.5320877372461075,3.8337020619715867,548.1485320410538,0.41836734693877553,0.4329896907216495,0.6190476190476191,0.03225806451612903,51.85810810810811,51.836493807054765,51.87609218382586,48.45360824742268,0.5619770551194687,0.43802294488053145,8.237996317875684,7.272952174552871,0.5385704307930989,0.4614295692069013,28.472659463116734,26.35478586214764,0.5403087739154304,0.45969122608456986,20.958970874496014,19.332234366117518,1.4391687199052832,2.7223645919902477,1.7219619558521477,2.4214010651652833,-1.8587279667352572,-1.86749996274325,-0.24307662119503456,0.005758383994534398,0.5830209839226086,0.6604898812237492,1.4284947156102668,5.799665936146561,0.9609182633944413,1.08543304096819,1.4228915208958715,1.8670501602634964,1.7772674098064234,1.5687372228920908,2.252823471908603,0.8774615099336501,Stress
99.96828158508856,600.2551020408164,28.59900914745622,,,,,,,15.73196889651212,15.811571679281988,0.047644758120709035,0.026208804961465153,594.0,23.7216,0.03993535353535353,33.5,1.817891284656481,578.0,621.6,0.0,19.387755102040817,554.0,684.0,6.533333333333333,78.125,,,0.026074042724767942,0.006512962045862835,0.0003027550648491786,0.032889759835479954,4.003407749217685,0.7927708458558116,0.19802400742485668,-5.033960926877992,11.180469555637458,39.036617370162425,0.2864097944148007,1371.1409258905849,3.491500708078869,3.8440522038405014,545.185508755704,0.41836734693877553,0.42708333333333337,0.6341463414634146,0.03333333333333333,51.04079933388843,51.06170976857173,51.01810261857721,47.91666666666667,0.5380514016745116,0.46194859832548835,8.202197368185349,7.600027412231265,0.531635413497052,0.46836458650294777,28.462898830572872,26.715555129269546,0.5321219411093667,0.46787805889063333,20.9453175137797,19.640281343856902,1.3462145192739934,1.8755324537774394,1.654535378651682,1.984784667780056,-0.7818740085478897,-1.0616907881355067,-0.3239170490154776,0.0015074381525318854,0.24958391725514892,0.7087516063099275,1.5561933979152882,5.849204231782004,0.976792488371557,1.2444504442093929,1.39084031664125,1.6433851784740257,1.7858947164141001,1.5945736329362443,2.1693699961298143,0.6749703922566539,Stress
99.76559185216728,601.469387755102,28.569396098547912,,,,,,,15.650170448003,15.73134770727814,0.047499335261565134,0.02601989522096047,595.5,24.462899999999998,0.04107959697732997,36.5,1.8255006355022438,578.4,622.0,0.0,20.408163265306122,554.0,684.0,6.533333333333333,85.9375,,,0.0498831054498428,0.019938699073157845,0.00029835105750639014,0.07012015558050703,2.501823477390114,0.7113946772774986,0.2843504682511098,-3.915092758645114,11.12374264101982,38.868382797223205,0.28619000432954755,1358.3049282337063,3.4941821337984287,3.8399673863743105,543.252834958782,0.41836734693877553,0.42708333333333337,0.6097560975609756,0.034482758620689655,49.750415973377706,49.73431586570621,49.76632639934259,46.875,0.5112383197238825,0.48876168027611755,7.953641723554479,7.7768352603528035,0.5267952145538912,0.47320478544610856,28.210928603565193,26.73751463012269,0.5256174754525688,0.47438252454743124,20.72579201553127,19.68976707915423,1.4601725641963903,2.535679407998499,1.7138484425605176,2.276927026446999,-1.616614594169242,-1.501769053064125,-0.2779377857822574,0.004190727844783709,0.45583079257477777,0.6997999204095202,1.5002386204691083,5.823394792874037,0.9767232294282716,0.894920040537236,1.0690376285127772,1.8612410745944588,1.7282298236552989,1.574815984762727,2.1313334040134926,0.7424674314823193,Stress
99.29347045885332,604.469387755102,29.08615147916126,,,,,,,16.711006311971847,16.785525490117415,0.048118485515341564,0.02764574459929844,599.0,27.428099999999997,0.045789816360601,36.5,1.740538596908063,580.0,624.2,0.0,23.46938775510204,554.0,684.0,7.0,85.9375,,,0.057340105469113604,0.035764680686968295,0.0014127992586830342,0.09451758541476493,1.603260657378295,0.6066607099355322,0.3783918149202039,-3.3307944455486496,11.86915889984167,39.315784169716416,0.30189297124547937,1466.0094135838588,3.312432203619826,3.8731068689806785,520.9234783773409,0.46938775510204084,0.47368421052631576,0.6444444444444445,0.10714285714285714,52.42566510172143,52.404291048619136,52.44397781473409,48.421052631578945,0.5624630832841111,0.43753691671588896,8.908095569012866,7.856791117667993,0.4695918486676403,0.5304081513323599,26.94183779502314,28.63334177329617,0.47735949919429643,0.5226405008057036,20.06510391749821,20.995206926499367,1.325536733836103,2.1263222502117434,1.625034343333343,2.183325175101394,-0.9884139121412545,-1.527588682658645,-0.23743827789392913,0.004419038456119754,0.4193591878367715,0.6444184709026217,1.3862943611198906,5.915431017452138,1.0110218746220023,1.0154425881778206,1.3192816326449321,2.0282311688803913,1.8236241441869987,1.5799048746326088,2.268325155670345,0.7424674314823193,Stress
99.32182425126331,604.0612244897959,25.7601211523575,,,,,,,16.102762777615677,16.18381313412069,0.04264488450506833,0.026657501135280523,601.0,28.1694,0.04687088186356073,35.75,1.5997330090564608,580.8,625.6,0.0,21.428571428571427,554.0,673.0,6.533333333333333,93.75,,,0.047679337910627693,0.02629501823303839,0.0015173870538987692,0.07549174319756485,1.8132460486648745,0.6315834804059166,0.3483164796476258,-3.6383757785378226,11.443684012592653,34.214510546824464,0.33446873357815055,1230.0593363201556,2.9898160862511363,3.7968961716571803,409.1803760644197,0.4897959183673469,0.4893617021276595,0.6956521739130435,0.10714285714285714,48.83720930232556,48.90262899738126,48.76960446322702,51.06382978723404,0.5023854961832062,0.49761450381679395,8.112490369793976,8.073877630977572,0.46288507645658583,0.5371149235434143,23.278067394766982,25.075173186310177,0.4668605104304998,0.5331394895695002,17.43102007392731,18.627289259624558,1.3753901246177254,2.3241960410698024,1.7734242429561569,2.1013642308235267,-0.7790190462631461,-0.7353552676438033,-0.3589017526609233,0.0028399190163699607,0.4055145360990319,0.6861916822987943,1.3300546427970148,5.8950228541868315,1.0708894271336966,0.8523740461192126,1.020390247053959,1.8047986295177119,1.8271686130266493,1.5946042550009891,2.142454135832939,0.8099644707079847,Stress
99.64852444065225,602.1649484536083,25.749870716654065,,,,,,,15.717559182858725,15.800066622111373,0.042762154759723406,0.026101750397830786,601.0,28.1694,0.04687088186356073,38.0,1.6382868622970665,579.2,623.0,0.0,19.587628865979383,554.0,664.0,6.466666666666667,54.6875,,,0.03483781960917952,0.024774392286481216,0.0017009727118365537,0.061313184607497295,1.406202792235177,0.5681945870565593,0.40406304851194824,-3.6979447283714255,11.17233425169418,34.850042160612816,0.3205830914121833,1223.1989536108476,3.119316104897966,3.794467210847718,434.8331910718906,0.5051546391752577,0.5053763440860215,0.7021276595744681,0.1111111111111111,50.000000000000014,49.999491961741235,50.000564900464624,49.46236559139785,0.5032889188733344,0.4967110811266655,7.9259732923836514,7.874007874011811,0.4715863536391972,0.5284136463608025,23.932271580227525,25.333215658631357,0.4745408897428593,0.5254591102571406,17.826590751197283,18.758622225615678,1.544132365161975,2.318670210631571,1.8137606340182537,2.618492162195419,-1.779427518783912,-2.6163723327968587,-0.15293402895879338,0.004949238427064024,0.5029241247581959,0.6779654626789902,1.6607312068216507,5.825485878488533,1.1025912228926318,0.9935220786495136,1.0431678668111972,1.663352874723461,1.8794927616063608,1.5614319424518661,2.9964873758386767,0.9525647401094823,Stress
99.34470355839333,604.0714285714286,27.556595932397805,,,,,,,16.71285695591469,16.792913177578534,0.045618108437219966,0.027667021092917778,600.5,29.651999999999997,0.049378850957535386,40.5,1.6488261704798182,580.4,626.0,1.0204081632653061,18.367346938775512,554.0,681.0,6.533333333333333,54.6875,,,0.05246010818022484,0.011309324393220499,0.001022807288132214,0.06479223986157755,4.63865977809184,0.8096665324782855,0.17454751398287502,-4.482127725985771,11.874382783742712,37.17617196575639,0.31940843168792127,1386.8375300814512,3.1307877337973733,3.848995695820925,465.5628127197275,0.5102040816326531,0.5106382978723405,0.7291666666666666,0.10714285714285714,51.88834154351395,51.91364093043291,51.86071914107554,50.0,0.5474274747176497,0.4525725252823504,8.789197915623472,7.991531976619585,0.47842599136040415,0.5215740086395957,25.71414278515342,26.848661472264002,0.48481860456459225,0.5151813954354079,19.215451324068056,19.808018656412443,1.5196456007869235,2.3617188653874477,1.7450305572298552,2.2384118831572697,-1.467857431175302,-1.2230016690568322,-0.29109227048221353,0.003129487865418235,0.3700999419811288,0.6610549429539914,1.508896683212223,5.785279104164756,1.0484041989372044,0.8251640381100696,1.0939432501976538,1.39940820914614,1.8804028681521778,1.4998435628594677,2.1638674377584928,0.7424674314823193,Stress
99.40234473005984,603.6701030927835,27.88843908081378,,,,,,,17.147946913066104,17.237705382158765,0.04619814520867096,0.028406155655567526,600.0,28.1694,0.046949,42.0,1.6263427465805727,580.2,627.6,1.0309278350515463,20.618556701030926,554.0,681.0,6.928571428571429,62.5,,,0.054943936088119406,0.009774710549250156,0.0007538215533826983,0.06547246819075227,5.621029473075732,0.8391914587371555,0.14929497572585473,-4.627956784879039,12.18889836782031,37.716497129263665,0.3231715375382282,1444.2609867082156,3.0943319068799777,3.8666157899305493,466.82944193131055,0.4948453608247423,0.5,0.723404255319149,0.1111111111111111,50.36261079774377,50.36554290666061,50.35911487275521,53.191489361702125,0.5345212370257536,0.4654787629742463,8.911553707052672,8.316122578271806,0.4638999999633868,0.5361000000366131,25.688783442934007,27.615585471320244,0.47057838136236635,0.5294216186376338,19.226666172943823,20.393362347350127,1.4990351575969072,3.111881045604237,1.990842334498403,2.5594821112428097,-1.6736377214766733,-1.4856796772223166,-0.31726815118860263,0.005586237121899241,0.7455155589950033,0.6639695936985142,1.791759469228055,5.901207300838496,1.061985810256925,1.1821417937764696,1.0057409634808385,1.3547231032787332,1.907076877113155,1.4946976462576642,2.4085981584315737,0.816484062950985,Stress
99.80326915658523,601.1717171717172,28.17946871793921,,,,,,,16.492731856233906,16.57681404034477,0.04687424227226261,0.027434311004892072,593.0,26.686799999999998,0.04500303541315345,40.5,1.7085992159199486,576.6,626.8,1.0101010101010102,17.17171717171717,561.0,681.0,6.1875,46.875,,,0.0470647530736661,0.010464872526499257,0.0009246084670413362,0.0584542340672067,4.497403380164283,0.8051555858135828,0.17902676672604176,-4.559731104094888,11.72157761839616,38.17158777955739,0.30707597719248125,1405.646661936097,3.2565230570712487,3.854846275555602,497.22662291659105,0.5050505050505051,0.5052631578947369,0.7708333333333334,0.1,49.36386768447838,49.33158026887148,49.396134400668544,54.736842105263165,0.5356191619462055,0.4643808380537945,8.578924066823875,7.988071003096771,0.47900901984818073,0.5209909801518192,26.418738179019442,27.552139420394845,0.4838875100619887,0.5161124899380112,19.641126051170147,20.28459594114942,1.5094974222634021,1.9660980241588248,1.8558157752543996,2.1376445381197975,-0.5607353028469273,-0.7176259148937945,-0.356655792639853,0.0019085453038212817,0.2891087395955237,0.787230861032401,1.808288771179266,5.896737175504047,0.9955814113278869,1.095343997890666,1.0836466671136702,1.6118713340204147,1.814249898272319,1.4830696440219364,2.24187884910604,0.7365951800088454,Stress
100.87953046881051,594.8484848484849,29.444989746139804,,,,,,,15.607428895711616,15.656742950936035,0.04949998276223196,0.026237654282143825,590.0,23.7216,0.04020610169491525,42.0,1.8866009220923168,573.6,622.2,1.0101010101010102,14.14141414141414,532.0,681.0,6.1875,70.3125,,,0.04995570638155588,0.01650811047826484,0.0006335994575426334,0.06709741631736335,3.0261310915824873,0.7445250372275278,0.2460319843044821,-4.103903474706585,11.070989111901547,39.64865684863883,0.27922734316488257,1379.0016186281864,3.581311159091981,3.846534885898973,567.9767088601558,0.45454545454545453,0.45833333333333337,0.7272727272727273,0.03225806451612903,45.76719576719576,45.86038819514466,45.674346466568245,53.125,0.47105395442359244,0.5289460455764072,7.613403806824724,8.067690429483482,0.4961678304924189,0.5038321695075811,27.928189400829915,28.143067115943253,0.4943447165338339,0.5056552834661662,20.46885048963915,20.701689007886117,1.4106624715805383,1.1427774709998912,1.469380797310528,1.3018878388332964,0.13803688356547283,1.0721466859039843,-0.6465665562436061,0.0002602600264878285,0.047573450352362885,0.748717701671707,1.6171007851796693,5.888103307097244,0.9290969757960864,1.434993539377419,1.3325205833737963,1.7017612424084183,1.713943937052963,1.5704410972426706,1.8835136692543628,0.7365951800088454,Stress
101.7799921525273,589.4455445544554,26.78300776519499,,,,,,,14.705781176122539,14.760115517874857,0.045437628653957306,0.0249484983167329,584.0,22.238999999999997,0.03808047945205479,31.0,1.821257058324925,569.0,607.0,0.9900990099009901,11.881188118811881,533.0,681.0,6.3125,54.6875,,,0.033215248599164054,0.016750388786945652,0.0007062765390427464,0.050671913925152454,1.9829538897061436,0.6554962310724307,0.3305655438965197,-4.089333809819502,10.436977773786099,36.03407478282945,0.2896418969180641,1181.5116461390278,3.452539189393885,3.7794081167841673,497.63622136507445,0.46534653465346537,0.4639175257731959,0.7111111111111111,0.029411764705882353,46.582733812949634,46.68503790230755,46.48082624595122,50.51546391752577,0.452880791639693,0.5471192083603069,7.033110724611583,7.730302436358862,0.529966160237112,0.47003383976288804,26.23236492764177,24.70460636718536,0.5239850746268658,0.47601492537313406,19.2041872538467,18.30403168041335,1.3133163234975984,1.6282491631649325,1.4548536511421113,1.4360466303298063,-0.5381701052146219,0.3875719084305711,-0.5115504563047025,0.00018689708810177617,0.09798798290415409,0.7763773462893613,1.3862943611198908,5.794011358839474,0.9739635772719649,1.1353429643589346,1.3372033889804722,1.5647285813296536,1.7347693602626466,1.620790806621412,1.9427997513878765,0.7910746316140745,Stress
102.99419265530885,582.4455445544554,23.991029676745743,,,,,,,11.708543888972702,11.761652292363717,0.041190167735076076,0.020102383816720946,580.0,19.273799999999998,0.03323068965517241,27.0,2.0490190671225044,564.0,601.0,0.0,6.9306930693069315,533.0,638.0,6.3125,70.3125,,,0.0125728355817042,0.014757174653075505,0.0003071070048561333,0.027637117239635838,0.8519812143772336,0.45492572444107293,0.5339621540524302,-4.216025897301124,8.316744093888685,32.53612987856342,0.255615653273139,850.0982148235804,3.912123483812811,3.636439214137066,509.1414310812464,0.44554455445544555,0.44329896907216493,0.6744186046511628,0.0,48.02139037433154,48.138330210073384,47.89976043469101,48.45360824742268,0.4323437158071341,0.567656284192866,5.471228695123559,6.269212893420537,0.4712240595602871,0.5287759404397128,22.334674173906038,23.65929155786796,0.468837214118827,0.5311627858811729,16.259951012978004,17.30700880168541,1.3507932321046265,1.0906462789792029,1.474961788403977,1.8313109613915644,-0.5196487386197877,-1.3658798613172172,-0.1732678780868215,0.0005883060455287283,0.08939230088798494,0.7640330028976638,2.0501711593797225,5.766735244956667,0.9594612734432229,1.422286820876536,1.091180475706635,1.4547778446677166,1.8873452724341175,1.6218584851074491,1.9040770024658946,0.9229204035497537,Stress
103.51515375150059,579.5686274509804,22.19379531699579,,,,,,,11.691581129467934,11.740182331979296,0.03829364507635108,0.020172902009705142,577.5,20.0151,0.03465818181818182,28.25,1.8982715059007416,562.0,598.4000000000001,0.0,6.862745098039216,533.0,637.0,6.375,85.9375,,,0.02933510814918225,0.01388559888599643,0.00026276944278408006,0.04348347647796276,2.112628226555398,0.6746265599083172,0.3193304678165186,-4.2769030272848605,8.301562539309055,29.886221534743434,0.2777722345950723,779.4364796796306,3.6000718410814847,3.5987508380194555,430.37017833421163,0.4411764705882353,0.4329896907216495,0.6666666666666666,0.0,47.463002114164915,47.59409653361631,47.327148519952296,46.391752577319586,0.40004345936549335,0.5999565406345067,5.254997621312497,6.435448702305069,0.5021360082268258,0.4978639917731742,21.177841532213172,21.087561870928305,0.494811824355951,0.5051881756440489,15.429127842550486,15.590065196467737,1.3568066494627187,1.0803534824649637,1.482845824514341,1.8266287830168264,-0.4140867161650057,-1.2308778594728516,-0.1817865966256702,0.0007030789113095138,0.09205227686350242,0.7777077278275479,1.8281271133989299,5.7320978615966425,1.0103701119026098,1.210523556710904,1.1433882257629775,1.5546245325354555,1.86825433660504,1.593454250533903,1.924886205286092,0.8504071514277396,Stress
103.86750343942559,577.6666666666666,21.25672093288337,,,,,,,12.257953570746395,12.316775970075518,0.036797554990565556,0.021219769597368255,576.0,19.273799999999998,0.03346145833333333,25.0,1.7341166133646102,560.2,595.8,0.0,10.784313725490197,533.0,637.0,5.666666666666667,78.125,,,0.03448427288858364,0.016303801438988907,0.0003200021370635173,0.05110807646463607,2.115106284729275,0.6747323568799313,0.3190063599883323,-4.1163569812444205,8.709275810795914,28.85430111905861,0.30183631115720677,789.4824436226876,3.3130540065445127,3.6043125866461088,382.3834317141558,0.4411764705882353,0.4387755102040816,0.6511627906976745,0.0,51.18343195266273,51.1726999940467,51.1927551081173,42.857142857142854,0.4564443858724302,0.5435556141275698,5.88515080520457,6.42222702806433,0.5871917176540993,0.41280828234590083,22.110599614931978,18.538934104674862,0.5762708084497995,0.4237291915502005,16.178900075898703,13.87330309871223,1.3672119854708469,1.215692351927558,1.5417523920910239,1.863791406525861,-0.45209766777314897,-1.1922146850083424,-0.23509826402689496,0.0007240481493595959,0.11050214882878477,0.7345276592257561,1.845826690498331,5.742093449916778,1.0710885614015835,1.5598250587762847,1.177748151218904,1.3926336113053162,1.902846534448211,1.6086102883636741,2.5128650261200542,0.9812390208781611,Stress
102.93206450463798,582.9019607843137,25.9009957390768,,,,,,,13.27209534517761,13.3381088807541,0.044434566156247204,0.022769001029469122,580.5,26.686799999999998,0.04597209302325581,36.5,1.9515377990776626,560.2,603.8,0.0,11.76470588235294,533.0,658.0,6.8,101.5625,,,0.03734757736744513,0.02046593043507607,0.0014215338357855187,0.05923504163830672,1.8248658415957484,0.6304980351916022,0.3455037739323703,-3.88899370537172,9.431467237785736,35.57933124555868,0.2650827575339279,1054.2094718071658,3.772406811001316,3.729897023885034,536.87884608647,0.4411764705882353,0.4387755102040816,0.6046511627906976,0.0,49.678604224058766,49.679181263567145,49.6786301662308,43.87755102040816,0.44500028104097566,0.5549997189590243,6.291661147900449,7.026378868236469,0.6123294002148911,0.3876705997851088,27.841353000850173,22.152829953828448,0.6013430697865533,0.39865693021344684,20.183234836343118,16.43347003774977,1.4435440603085683,1.3014353102598069,1.4419618641155703,2.054220636945936,-0.8455352292067602,-1.7654530722216886,-0.02955112866259958,0.0009153663061014162,0.1347038667928124,0.8005971326706551,1.6789639750827106,5.88577013650554,0.9977793875713632,1.538967219349332,1.2343791508530668,1.4184678527271872,1.9121852619129045,1.5633731563319078,2.467186436338689,0.9158230861529503,Stress
101.72731019120988,589.8,24.471380934644554,,,,,,,13.170214328345057,13.23717646068874,0.04149098157789854,0.02232996664690583,587.5,26.686799999999998,0.04542434042553191,35.5,1.85808524634083,567.0,609.2,0.0,12.0,539.0,658.0,7.6923076923076925,31.25,,,0.03489490759980949,0.013821816195766053,0.0006446789158955973,0.04936140271147114,2.524625353540631,0.7069269851138212,0.28001263004128507,-4.281507051349114,9.360097239115952,33.43752115614764,0.27992796461812647,983.2507975445865,3.572347626519505,3.6996344173131632,477.80179735543896,0.47,0.4631578947368421,0.6136363636363636,0.03333333333333333,50.19011406844107,50.187875088342714,50.19208819906211,43.15789473684211,0.43827160493827155,0.5617283950617284,6.196608684084664,7.015289424840982,0.6166481214905305,0.3833518785094698,26.257464111381395,20.70298044986129,0.6036861695653294,0.39631383043467056,19.076849592426882,15.456838053457513,1.3914861163427177,1.08663230952734,1.5314834047568118,1.8915948468542017,-0.43120829109946435,-1.3479619200157895,-0.16859862444727966,0.0007043724714630944,0.09717817328586374,0.6949365540445815,1.80280930541464,5.783465189601646,1.0351100095302803,0.7972759166336326,1.064728982387502,1.4547306889189822,1.8350369962423851,1.5883192847857952,2.581809128114896,0.7308241808752197,Stress
101.07125788315919,593.79,25.444054295451796,,,,,,,14.524795935561263,14.585999844565926,0.04285025732237289,0.024461166297110534,595.0,23.7216,0.03986823529411764,31.5,1.7517667310668894,571.6,614.0,1.0,14.000000000000002,539.0,658.0,6.25,85.9375,,,0.06321788324333177,0.026657038226612074,0.0021896251364784867,0.09206454660642233,2.3715269005474333,0.6866691421790129,0.2895472710094518,-3.6247020646786168,10.313859400478494,34.3891042727478,0.2999164886260756,1114.2738625866048,3.3342614958618086,3.75396205339644,458.64906501519914,0.46,0.4639175257731959,0.6,0.03333333333333333,52.60416666666667,52.6419463784321,52.564603861251,39.175257731958766,0.43512400651153893,0.5648759934884611,6.809357307321706,7.75847134112258,0.6413544576412361,0.35864554235876384,27.54037964761649,20.594610497580973,0.6243077220460148,0.37569227795398485,20.06040700077673,15.561681449928424,1.4740072222565028,1.2111088166505235,1.6502403584488148,1.7057751031497292,-0.09236702800232344,-0.12559629773755976,-0.4541455367697653,0.00012392791622519678,0.07005327971771005,0.7540050656558601,1.6171007851796697,5.830015409922183,1.0464704628463082,1.2241709237031642,1.1640255312877044,1.6390616823720912,1.7124720031090528,1.5898531599003174,2.146264524379783,0.7308241808752197,Stress
100.47754926965473,597.1414141414141,21.413809248968914,,,,,,,14.768278194032185,14.835347103093392,0.035860532768034956,0.024731626117854195,596.0,19.273799999999998,0.03233859060402684,25.0,1.4499868547724248,580.6,613.4,1.0101010101010102,16.161616161616163,555.0,658.0,5.823529411764706,62.5,,,0.0511568246747246,0.026401223903038073,0.0033296444252017407,0.08088769300296442,1.9376686801568248,0.6324426223016371,0.3263935825450048,-3.6343449099408933,10.490174537853541,28.264760689293997,0.37113969062639063,931.4893623195746,2.694403280641451,3.6761480095458627,304.62665571111705,0.46464646464646464,0.46875,0.6444444444444445,0.030303030303030304,47.87052810902897,47.92165284771003,47.81960166973051,43.75,0.3892579769813792,0.6107420230186207,6.548785989642991,8.20296652399694,0.5802970858254151,0.4197029141745851,21.531312664163586,18.31117887469531,0.5571440417255362,0.4428559582744639,15.9135794681793,14.187810464883267,1.3461415655507305,0.5837613902658783,1.4124269746163318,1.3872482724029322,0.4741189416499463,0.1748139911750055,-0.5431318388527404,5.737341797462121e-06,0.012508949672022679,0.669189811469018,1.5173226235262949,5.678457978792562,1.1857884168226875,1.2905629386469022,1.0533106901040181,1.3037228115772805,1.702568458552999,1.683021736473121,2.3836404358002703,0.9374847745567124,Stress
100.06854182562395,599.5102040816327,20.38760736277163,,,,,,,14.723919805302856,14.771643797529766,0.03400710650789113,0.024559915252581697,597.5,18.5325,0.03101673640167364,24.0,1.384658951716715,584.0,614.0,1.0204081632653061,14.285714285714285,556.0,658.0,6.125,85.9375,,,0.053211726722302656,0.025498588195799927,0.0019138632109349041,0.0806241781290375,2.086849919442504,0.6599971368035316,0.3162647829412898,-3.6691321932210386,10.445129498505503,26.25198405200389,0.39787962227213813,861.4415854415435,2.5133229852018633,3.642195943132345,263.9188597002165,0.4489795918367347,0.45833333333333337,0.5909090909090909,0.03225806451612903,53.80667236954662,53.81466556975249,53.80152181809458,39.58333333333333,0.46312235484331155,0.5368776451566883,7.122075423170786,7.6682516477573515,0.6925899334945586,0.30741006650544117,21.847423093658744,14.555300437755768,0.6611226679013232,0.33887733209867665,16.248597695903896,11.633117685441563,1.291595881583729,0.6778590224248857,1.3331370064093913,1.5298022030844387,-0.07606807180738073,-0.7525083219798372,-0.20987301168977193,0.0001442044356314434,0.025271626890723105,0.7039750854971545,1.289667525430819,5.625997058507237,1.1986473489097855,0.9365464649187732,0.9212061237989049,1.392596559298868,1.6649809087693621,1.7292033900531525,2.1419394047875326,1.0124555883849808,Stress
100.26930032755203,598.5612244897959,20.05202837081916,,,,,,,15.075753729597201,15.1489525910147,0.0335003798281641,0.02518665278133834,596.0,19.273799999999998,0.03233859060402684,26.0,1.3300846332778955,581.4,612.6,1.0204081632653061,14.285714285714285,563.0,658.0,5.444444444444445,54.6875,,,0.053489180423165944,0.053274266244165897,0.002368990811689174,0.10913243747902102,1.0040341086635536,0.49013090570297574,0.4881616087279919,-2.9323018740783975,10.711927104980013,26.248758357150844,0.4080927165860326,883.3366424430993,2.4504235418991698,3.6530963561133736,257.28230169594,0.46938775510204084,0.4791666666666667,0.6521739130434783,0.0625,48.37328767123288,48.352939061549456,48.39428227804271,42.70833333333333,0.38124829901115853,0.6187517009888418,6.616346549771004,8.428930833741608,0.6449386012506207,0.35506139874937936,21.07987108096056,15.64085517170269,0.6072713612434008,0.3927286387565992,15.622691932835776,12.563503203768022,1.2473394588208537,1.128700556649461,1.342048249079332,1.5255757632779057,-0.4898634549934542,-0.6976864733658283,-0.3373992879534199,0.000177860075431584,0.05620950152957486,0.6743111552859036,1.2404424841073274,5.622013798042307,1.2066365954801954,1.2919712551348368,0.9625950783880242,1.5032240745690335,1.823278295857173,1.7367519113776837,3.308142777629473,0.9449585491593154,Stress
100.41746165055663,597.5353535353536,20.304474791469264,,,,,,,15.031259944203084,15.096003876947329,0.03398037400019367,0.025155431984517296,595.0,20.7564,0.03488470588235294,27.0,1.3508165560864933,579.6,613.4,1.0101010101010102,14.14141414141414,559.0,658.0,5.2105263157894735,62.5,,,0.04898157093313324,0.05601768273843459,0.0026368345161890514,0.10763608818775688,0.874394807829604,0.455066435038882,0.5204358842985743,-2.882087874903359,10.674486710207868,26.43550042512339,0.40379363123624484,886.5115731992738,2.476512561474593,3.6546545195476554,261.8713954867401,0.48484848484848486,0.48958333333333337,0.6808510638297872,0.0967741935483871,47.47899159663865,47.43945826953338,47.51823665167287,44.79166666666667,0.3737241441604192,0.6262758558395809,6.5310519195040655,8.454547973919064,0.5352339369257682,0.464766063074232,19.340128586181063,18.022072827415855,0.5125593379318241,0.4874406620681758,14.43425115662873,14.076123231202187,1.3234516126278542,1.2874876200178775,1.398880548568963,1.7457896813620053,-0.6732440893353218,-1.0239655292343706,-0.2305534224956468,0.0010855513124584015,0.10952673881825244,0.7294893780804643,1.2943568657942053,5.618860660308824,1.2315192173685008,1.1666126025489623,1.0380096026890275,1.3242402789016232,1.719828851346116,1.68855720490831,2.8699033323520085,1.0044479727393347,Stress
100.05018896133639,599.734693877551,24.97155124446232,,,,,,,16.30855824912026,16.392725054361883,0.04163766328576084,0.027192954510732392,594.0,22.238999999999997,0.03743939393939393,31.0,1.5311930621340712,579.0,619.6,1.0204081632653061,17.346938775510203,559.0,669.0,6.125,62.5,,,0.05352996571628683,0.06536804395632917,0.001819137417595951,0.12071714709021195,0.8189011400134433,0.44343299196993013,0.5414975878073032,-2.7277217644558074,11.591407048065903,33.52513386275234,0.345752744657774,1220.83381576054,2.8922402365592204,3.793626660221031,387.8509643755454,0.46938775510204084,0.4791666666666667,0.6739130434782609,0.0625,49.48289578361177,49.48979862912634,49.47688667169075,44.79166666666667,0.43009418969727525,0.5699058103027249,7.60208304786699,8.750892811593568,0.5510869105567212,0.4489130894432789,24.88745962660451,22.462167167252456,0.5381665339005823,0.46183346609941767,18.400778697279854,17.04592442271164,1.3280978985738143,2.0095154381633673,1.4563709229063373,2.08793184506846,-1.7995079184710203,-2.0922543403449243,-0.1857148195192026,0.0025837178181023946,0.28587787459581626,0.6573956949068367,1.4170660197866445,5.562071930889988,1.1096293984095562,1.1387349829005953,1.0563212552623316,1.5607871055608566,1.7573719421383882,1.6694570408576819,3.1257004498252794,0.8774615099336501,Stress
99.42611982128575,603.5,29.484663145858427,,,,,,,17.79841299539482,17.887403177651652,0.048856111260743046,0.029491985079361755,595.5,22.9803,0.03858992443324937,30.5,1.6565894472438256,580.0,621.6,1.0204081632653061,18.367346938775512,559.0,710.0,6.125,62.5,,,0.051605858493487144,0.024853118086416888,0.001927602134845778,0.0783865787147498,2.0764339634989937,0.6583506939533847,0.3170583343974973,-3.6947720579964307,12.648304084735283,39.87292691397616,0.31721534042442795,1584.383414548429,3.15243266186944,3.9068303974886702,502.78686851180595,0.47959183673469385,0.48958333333333337,0.6595744680851063,0.06666666666666667,51.26676602086439,51.2644519383367,51.266587452432255,44.79166666666667,0.517052850820099,0.48294714917990106,9.096702699330127,8.791567929935288,0.49400094373295744,0.5059990562670426,28.024766706141286,28.363052581723995,0.49610922567201327,0.5038907743279866,20.834317230637115,20.997076206228176,1.3549686520299955,2.433480107664801,1.5100474695073463,2.1199850448753645,-2.1545221126374425,-1.8895643214153006,-0.24935584086063384,0.0030628524292569247,0.36355412942131127,0.7138066904731217,1.4799798451972135,5.764870940899449,1.022997237562752,1.0845751956529985,1.1288879705124744,1.3927128227818835,1.766629815398119,1.6210403690944757,2.142753288066286,0.7424674314823193,Stress
98.9507124427387,606.4285714285714,28.60718675474082,,,,,,,17.756659851226665,17.848902860773638,0.04717321726341242,0.02928071117987907,600.5,22.238999999999997,0.03703413821815153,31.5,1.6110680158557285,584.0,623.8000000000001,1.0204081632653061,19.387755102040817,559.0,710.0,6.533333333333333,78.125,,,0.048991936948210975,0.0160206505904799,0.002354144971218154,0.06736673250990903,3.0580491517194632,0.7272422918983744,0.23781249280753533,-4.133876727025466,12.621080249593007,38.65715792846815,0.3264875362267258,1532.7676381206668,3.062904059239678,3.89244643237607,473.61266375109767,0.5102040816326531,0.5157894736842106,0.673469387755102,0.1111111111111111,50.0,49.998687850627064,50.00200265448527,45.26315789473684,0.5035312581742087,0.4964687418257914,8.955910525085281,8.8928810479694,0.49205983580949286,0.5079401641905071,27.116827614409996,27.55092592340411,0.4931648354294487,0.5068351645705512,20.193200256558665,20.471160843614047,1.4840279521140802,1.8575897635955068,1.7486089249305352,2.005098788005403,-0.8743516007059196,-0.8621760744060509,-0.3619233007731416,0.0007837995809566494,0.19783193031548038,0.7954976924884622,1.7650912221458939,5.826095430695367,1.0393476461530726,0.8436322836449985,1.4471401455241484,1.6416643202635592,1.7690940722567003,1.556868677748215,2.2384309747293707,0.8099644707079847,Stress
99.21706421255736,604.704081632653,28.376412879551797,,,,,,,17.139211688977635,17.227237334685064,0.04692611434494991,0.02834313875094596,597.5,22.9803,0.038460753138075315,29.25,1.6556428261984124,582.4,620.0,1.0204081632653061,17.346938775510203,559.0,710.0,5.444444444444445,62.5,,,0.052000066387397806,0.013079884495094765,0.0019014602469055028,0.06698141112939808,3.9755753506003004,0.7763357849678838,0.19527633524809418,-4.336679763642322,12.181496340465873,38.38914256898857,0.31731618695506636,1469.125591178608,3.1514307845304,3.874029033883018,483.92290273454813,0.4897959183673469,0.49473684210526314,0.6382978723404256,0.07142857142857142,49.29022082018927,49.26534815155842,49.31683865630316,44.21052631578947,0.49550782620902645,0.5044921737909737,8.575340129308769,8.652733190539662,0.4942593439488623,0.5057406560511378,26.988941772097057,27.30060968558184,0.4943735655481828,0.5056264344518172,20.024228278650074,20.250840487139683,1.4509080653542425,2.055881729919033,1.493322878883275,2.0813478541060384,-2.051429704257993,-1.898329996007151,-0.2139791814551893,0.0029410596844867565,0.26340748377750683,0.7796206112143893,1.3460204619819507,5.749465073508358,0.9749280363991817,1.2784820958732623,1.0910358193383851,1.585409784172663,1.6453530958941995,1.5791875165387654,2.1570047523548315,0.8099644707079847,Stress
