PPG_Rate_Mean,HRV_MeanNN,HRV_SDNN,HRV_SDANN1,HRV_SDNNI1,HRV_SDANN2,HRV_SDNNI2,HRV_SDANN5,HRV_SDNNI5,HRV_RMSSD,HRV_SDSD,HRV_CVNN,HRV_CVSD,HRV_MedianNN,HRV_MadNN,HRV_MCVNN,HRV_IQRNN,HRV_SDRMSSD,HRV_Prc20NN,HRV_Prc80NN,HRV_pNN50,HRV_pNN20,HRV_MinNN,HRV_MaxNN,HRV_HTI,HRV_TINN,HRV_ULF,HRV_VLF,HRV_LF,HRV_HF,HRV_VHF,HRV_TP,HRV_LFHF,HRV_LFn,HRV_HFn,HRV_LnHF,HRV_SD1,HRV_SD2,HRV_SD1SD2,HRV_S,HRV_CSI,HRV_CVI,HRV_CSI_Modified,HRV_PIP,HRV_IALS,HRV_PSS,HRV_PAS,HRV_GI,HRV_SI,HRV_AI,HRV_PI,HRV_C1d,HRV_C1a,HRV_SD1d,HRV_SD1a,HRV_C2d,HRV_C2a,HRV_SD2d,HRV_SD2a,HRV_Cd,HRV_Ca,HRV_SDNNd,HRV_SDNNa,HRV_DFA_alpha1,HRV_MFDFA_alpha1_Width,HRV_MFDFA_alpha1_Peak,HRV_MFDFA_alpha1_Mean,HRV_MFDFA_alpha1_Max,HRV_MFDFA_alpha1_Delta,HRV_MFDFA_alpha1_Asymmetry,HRV_MFDFA_alpha1_Fluctuation,HRV_MFDFA_alpha1_Increment,HRV_ApEn,HRV_SampEn,HRV_ShanEn,HRV_FuzzyEn,HRV_MSEn,HRV_CMSEn,HRV_RCMSEn,HRV_CD,HRV_HFD,HRV_KFD,HRV_LZC,Labels
85.23519017273844,706.632911392405,139.33782754516042,,,,,,,188.3007346418666,189.4228756183524,0.19718558999834612,0.26647603247183044,677.0,72.64739999999999,0.10730782865583455,98.0,0.7399749544799715,626.2,746.2,40.50632911392405,67.08860759493672,576.0,1421.0,11.285714285714286,78.125,,,0.058430161083548496,0.12156028254081487,0.027883044293873525,0.2078734879182369,0.4806681908124891,0.28108520075696664,0.584780116782513,-2.1073449866452383,133.9421998615929,132.53628013157586,1.0106078103944167,55770.1840025338,0.9895035341253926,5.453372187323233,524.5804703601095,0.569620253164557,0.5844155844155845,0.8,0.2631578947368421,46.72714584787159,47.72632593299466,45.74270039692841,50.649350649350644,0.41252374208100123,0.5874762579189987,86.07230424731033,102.7150578877465,0.44883825765311214,0.5511617423468881,88.79320068637873,98.39528984145545,0.4304801519477034,0.5695198480522965,87.44333607134703,100.57836790251456,0.9195895610309668,2.8276161877176262,1.4357065831697975,1.6401250985133804,-1.3177334962237168,-0.8772794621037052,-0.4277064135396027,0.0021694917284327216,0.4944921682294635,0.716566906230029,0.9866943724641241,6.06637710890921,0.7245354499153677,0.8261520401551561,0.9939225399776337,0.9159989436074684,1.3713637736302078,1.9528385824260164,2.199208232810079,0.8777416231639004,Relax
86.6620703002124,694.0588235294117,90.57663854979602,,,,,,,120.69402478601673,121.41815486353232,0.13050282696385562,0.17389595909503217,677.0,59.303999999999995,0.08759822747415066,84.0,0.7504649771219658,633.8,744.2,45.88235294117647,69.41176470588235,576.0,1265.0,12.142857142857142,70.3125,,,0.0245302657523815,0.05247940240278297,0.01434000834021785,0.09134967649538232,0.4674265450682927,0.2685315010789501,0.574489198168488,-2.94733452155323,85.85560066316208,95.75059038658914,0.8966587079674764,25826.167543996402,1.1152515345183844,5.119030074091624,427.1439714387392,0.5764705882352941,0.5903614457831325,0.8367346938775511,0.2857142857142857,50.31337047353761,50.47275515760995,50.132344150639064,51.80722891566265,0.48050067340507613,0.519499326594924,59.51389429753216,61.88193188626147,0.4529963751412356,0.5470036248587645,64.44494002679947,70.81684308356732,0.465254447294392,0.534745552705608,62.02843666221007,66.49961939101043,0.6792556111609211,2.1452894082785683,1.1116921971163434,1.022167488786569,-0.4780307466572111,0.12386011062833968,-0.5417308303412596,0.0009049178633625271,0.26407061063334536,0.8637806952606879,1.8545603704670854,5.96809946549856,1.0665948676987527,0.7818815115699932,1.2439178550256114,1.7543835514212809,1.5901189563869853,1.9472435545609792,1.9840272068199283,0.980259790232825,Relax
86.49783425212952,694.9411764705883,65.35732424092018,,,,,,,79.46412787571269,79.91899585128196,0.09404727544401921,0.11434655272448922,691.0,63.751799999999996,0.0922602026049204,88.0,0.8224758263646142,645.2,749.2,52.94117647058824,74.11764705882354,576.0,952.0,14.166666666666666,101.5625,,,0.04859065352513487,0.046311465914626,0.025672740840699728,0.1205748602804606,1.0492143266358809,0.4029915806007289,0.3840889038304021,-3.0723657046042425,56.511263912061025,72.77989869887476,0.7764680210105148,12921.006356963786,1.2878830459734518,4.818266450111232,374.92799048778437,0.6,0.6190476190476191,0.8653846153846154,0.3,51.539360872954006,51.60052152390405,51.48360018420851,52.38095238095239,0.5320235586005106,0.46797644139948946,41.23083709689683,38.66951415910478,0.4100574341174401,0.5899425658825598,46.6051372914455,55.90057989559669,0.4559488096327478,0.5440511903672521,44.00011789566778,48.063531694857765,0.657074634010394,1.819269349752901,0.9386978532948311,1.1658064462348123,-0.6938376087659197,-0.6744186766358786,-0.3751649430191149,0.000803979997987729,0.19690710201792488,0.5668628878921553,1.927891643552635,5.991628877263266,1.3858333929854016,0.9305650551780508,1.2719456863681395,1.4131619964326732,1.8517908151818696,1.9453810173657882,2.5467851982396246,0.980259790232825,Relax
85.052791736244,706.7469879518072,63.58992928656695,,,,,,,83.59987454769441,84.10846816667258,0.08997552217499244,0.1182882643617224,704.0,65.2344,0.0926625,85.5,0.7606462286051443,655.4,754.0,61.44578313253012,77.10843373493977,558.0,952.0,13.833333333333334,101.5625,,,0.053137795998389345,0.049781243174206465,0.025347446423637454,0.12826648559623327,1.0674260546775987,0.4142765411509007,0.38810795308535656,-3.0001170089875764,59.47366819586704,67.82206614241827,0.876907348575601,12672.013133086713,1.1403713307048273,4.80981572430381,309.3693592719213,0.6265060240963856,0.646341463414634,0.9056603773584906,0.23809523809523808,50.739996345697044,50.76434360737544,50.71989003613857,52.4390243902439,0.5237840978689322,0.4762159021310677,43.045841198011736,41.04469108991645,0.4483329557075583,0.5516670442924418,45.412075160103264,50.374359405154614,0.4811340178716472,0.5188659821283527,44.2447794366257,45.9469408782911,0.7872849469538864,2.716923659943735,1.0122205152828185,1.8809536751108842,-2.602854513747957,-2.862609099071363,-0.180251170602984,0.004995609341491109,0.5618490079821757,0.5482464449120212,1.6274564179367788,6.124980545778692,1.5474766067723815,1.2124447568507641,1.0354039827678916,1.271890580840553,1.8379502302489692,1.9389140744955227,2.9002090444554285,0.998500151897711,Relax
84.5568195425005,710.5060240963855,63.551280137933844,,,,,,,78.27772632763671,78.75922490335526,0.08944509685017481,0.11017179822956398,710.0,69.6822,0.09814394366197182,93.0,0.8118692649801256,659.0,760.6,60.24096385542169,73.49397590361446,558.0,952.0,11.857142857142858,101.5625,,,0.05759817562507718,0.06293060413214825,0.022517100325213524,0.14304588008243896,0.9152649401573599,0.4026552571236774,0.4399330067799271,-2.7657226814234566,55.69118201015891,71.23000149880683,0.78185007494478,12462.330421504668,1.2790175917942161,4.8025693717524485,364.4176999220093,0.6265060240963856,0.646341463414634,0.9245283018867925,0.16666666666666666,50.14582928251993,50.113274506603055,50.18391971592664,56.09756097560976,0.5524503081917098,0.4475496918082903,41.3936984528435,37.25703181619661,0.41494876863831287,0.5850512313616871,45.88388615711614,54.482860650307536,0.46711415271682094,0.532885847283179,43.696506041582616,46.67155731488888,0.7727660834904442,2.7625942352747086,1.0226798567152409,1.6844589741125764,-1.936148929946114,-1.614661309556074,-0.26045012005480817,0.005561355999924155,0.556708930898304,0.5302798887033529,1.6677068205580763,6.043596359005639,1.5178131684253722,1.1539066866945489,1.0466299838799071,1.4195023739286465,1.745766175197263,1.9223580408786252,3.1506684900898505,0.998500151897711,Relax
85.79229201933065,700.2380952380952,62.260745730988255,,,,,,,75.35498320599577,75.81174582590687,0.08891367972463471,0.1076133728205312,696.0,59.303999999999995,0.08520689655172413,79.75,0.8262326269888195,647.6,754.0,52.38095238095239,69.04761904761905,558.0,952.0,8.4,101.5625,,,0.048279417003215676,0.06546958096865095,0.06542985035716188,0.17917884832902853,0.7374328090832518,0.269448193542128,0.3653867718159918,-2.726169656906257,53.60699956708968,70.45213850663926,0.760899536953557,11864.940180479622,1.3142339447382747,4.781235662936295,370.36236761931127,0.6071428571428571,0.6265060240963854,0.8846153846153846,0.12,50.38246847219351,50.3464777739857,50.423290208257335,54.21686746987952,0.554475339748146,0.4455246602518539,39.918132685199225,35.78202982694785,0.41409133071690607,0.585908669283094,45.3359008061818,53.92735779037137,0.46556777596214527,0.5344322240378547,42.71300281519157,45.7630504708073,0.8121568982637023,1.4807882733963675,1.0532515412251446,1.1209395175822152,0.2620309215163257,0.5105677604338634,-0.4542892271818036,0.0019237759283240244,0.16552040222205697,0.5695013125201607,1.6094379124341003,5.969582006060581,1.399296053341026,1.0151107526366048,1.097833884213014,1.4015850819262627,1.553529059506633,1.8965581049741203,2.9397493904082563,1.0653862371297935,Relax
86.08087126373063,697.7857142857143,53.46501421739998,,,,,,,65.44251593242932,65.83934221459137,0.0766209641768451,0.09378597840659335,698.5,58.5627,0.08384065855404438,75.0,0.8169767536535982,652.6,751.6,44.047619047619044,66.66666666666666,558.0,798.0,7.636363636363637,101.5625,,,0.040858014557715844,0.03557089601456234,0.011296659457600717,0.08772557002987891,1.1486360799286308,0.46574806574411315,0.4054792234743766,-3.3362275031629833,46.55544534879928,60.00796670588947,0.7758210768409539,8776.659901965897,1.2889569900213005,4.6502993796113925,309.3907525700868,0.5595238095238095,0.5783132530120482,0.8541666666666666,0.07692307692307693,50.363196125908,50.35284076465542,50.37415607493171,50.602409638554214,0.5354886261977236,0.4645113738022764,34.068439010106786,31.730380917517074,0.5130278196841224,0.48697218031587747,42.981282442875084,41.87559465537102,0.5214674186967851,0.4785325813032147,38.78175587192751,37.150925297438214,0.9039978819367762,0.8265804663746374,1.1686667396708803,1.200392746405714,0.7644266532947706,-0.004475586928805786,-0.4616177637562823,0.0015059924407300298,0.0931683375284207,0.5087147925907112,1.6094379124341005,5.930949714419671,1.4459193532522314,1.2477777763458813,1.0332669187261607,1.3039102534119673,1.595924544590859,1.8673135361060467,4.331935029687011,1.0653862371297935,Relax
85.77500058636554,699.9642857142857,48.271682543994956,,,,,,,53.31538352560101,53.63519695165028,0.06896306501514664,0.07616871976717324,699.5,51.891,0.07418298784846318,66.25,0.9053987677086828,659.0,734.4,28.57142857142857,54.761904761904766,558.0,798.0,9.333333333333334,101.5625,,,0.05492876803920174,0.03085206611686217,0.009391194740336273,0.09517202889640018,1.7803918814105117,0.5771524330850888,0.3241715709396748,-3.4785515578794195,37.925811474787956,57.06041387528801,0.6646606447278687,6798.602849733759,1.504527171771136,4.53938978193354,343.39577243151024,0.5357142857142857,0.5487804878048781,0.8,0.038461538461538464,50.89115213239973,50.89806899841627,50.88283218431013,50.0,0.5356970287797227,0.46430297122027714,27.760627496949528,25.844634297107387,0.5156945120788093,0.4843054879211906,40.976152013014975,39.709517723405405,0.5218241622840797,0.4781758377159203,34.99783902484624,33.50217097276435,1.0708627231538403,0.5470708867625933,1.2447717105041418,1.2451074343911366,0.5984270194397849,-0.20431914065141443,-0.49938632470650834,0.00040725365092419773,0.029283831486802202,0.5633847394020655,1.6247053845648889,5.798575720624863,1.2615294227937615,1.513009462187539,1.1820899456337945,1.3386853166957158,1.6922692325226545,1.7808750105652733,3.416243315913917,1.0653862371297935,Relax
85.70566241097121,700.452380952381,43.48338687386024,,,,,,,40.317863540643216,40.53982634194971,0.062079005020637346,0.057559749437676846,691.0,45.9606,0.06651316931982634,63.5,1.0785141635797728,662.0,734.0,17.857142857142858,47.61904761904761,619.0,798.0,9.333333333333334,39.0625,,,0.056510825230630175,0.030960965737506008,0.007126433981648543,0.09459822494978472,1.8252281181970094,0.5973772262706583,0.32728907708300997,-3.475028037675205,28.66598611451767,53.9612975008507,0.5312323358063388,4859.5845495907615,1.882415531957661,4.393569252571309,406.31033816075785,0.5119047619047619,0.524390243902439,0.7906976744186046,0.0,52.365006278777734,52.47038354511204,52.26456295869808,47.5609756097561,0.551983041676858,0.448016958323142,21.309708081918565,19.19825957558933,0.5277229760659324,0.47227702393406756,39.199938460261414,37.08350647777302,0.533067252970352,0.46693274702964815,31.549475699485622,29.527611005792025,1.0942909187478629,1.6115441566050435,1.4748168391586858,1.4397604974230565,0.27034882797898696,0.4426818800314254,-0.5217532616726313,0.0015294246545869332,0.20090551174361218,0.6474390371117043,1.8787708462176849,5.817738107225302,1.225541426282382,1.3065902964315663,1.2632409328123422,1.527900267462547,1.8841241601705319,1.7236909082629583,2.417842873313977,0.9131882032541088,Relax
86.06369089183006,697.5238095238095,39.51954715073828,,,,,,,33.34305079240018,33.54574597725816,0.05665691494849153,0.047802025303140615,691.0,40.0302,0.05793082489146165,55.0,1.185240888627561,663.6,723.6,11.904761904761903,46.42857142857143,636.0,798.0,8.4,23.4375,,,0.04979227973887503,0.026472396865612244,0.0020802965588863163,0.07834497316337359,1.8809131636869427,0.6355516854290405,0.33789528283338716,-3.6316527165738646,23.720424460480587,50.707811075078546,0.46778640129742266,3778.7415797328517,2.137727811724461,4.284317302399168,433.5979920274602,0.5119047619047619,0.524390243902439,0.7906976744186046,0.037037037037037035,50.000000000000014,49.993169387351934,50.00752129808785,46.34146341463415,0.5211214183536346,0.47887858164636526,17.123475541902884,16.414783640097713,0.49799790826943025,0.5020020917305696,35.78397838943425,35.92755202696618,0.5021494356391887,0.49785056436081143,28.050904833976784,27.930575688674782,1.3000217558282035,1.7604183503297088,1.5848729150537082,1.7467037810553019,-0.46896068747054365,-0.35853701661490867,-0.4080724953978784,0.0008531594048316289,0.18679143826639477,0.6348826919411139,2.451005098112319,5.788092571562527,1.226036299633326,1.2725156069318944,1.1883975477765911,1.321054610542134,1.8526907061850308,1.7340352943070405,2.655338277498948,0.9131882032541088,Relax
87.79506912923382,684.0,46.750401067798336,,,,,,,37.982658581794624,38.12716449290332,0.06834853957280458,0.0555302026049629,681.5,39.2889,0.05765062362435803,51.0,1.2308354078775876,653.0,718.0,8.13953488372093,43.02325581395349,598.0,866.0,9.555555555555555,148.4375,,,0.053157575890428174,0.030897332110781137,0.00275097823535867,0.08680588623656797,1.7204584428142156,0.6123729414565315,0.3559359099978324,-3.477085438262824,26.95997656034689,57.340928426640694,0.4701698647038516,4856.619770327085,2.126890885765032,4.393304213411604,487.8315922077084,0.46511627906976744,0.47619047619047616,0.725,0.037037037037037035,55.14705882352943,54.679241470843934,55.665790034054154,45.23809523809524,0.725046482043253,0.2749535179567472,23.00504603032002,14.166736694504792,0.54413158333044,0.45586841666956,42.29769368713402,38.715464372502545,0.5769981563480152,0.423001843651985,34.0464905247792,29.15118874205598,1.3701476378771498,1.27415173055953,1.5860265839291026,1.6010960423557976,0.27511817966319363,0.3352644543726333,-0.4881729482719633,0.0005217694092165796,0.10032858816690979,0.6880398016585962,1.5339303599259555,5.981326818580116,1.038078466227917,0.7956472463783342,1.2791806385170186,1.5603482108264228,1.7370821726652421,1.7118136170573073,2.0481979103299564,0.8219640965316637,Relax
86.94432523635189,690.3837209302326,48.494309818939804,,,,,,,41.13006628904428,41.37412146705798,0.07024254533927582,0.05957566066828033,689.5,40.0302,0.05805685279187817,54.75,1.1790476941647217,658.0,722.0,12.790697674418606,50.0,598.0,865.0,10.75,148.4375,,,0.036394175252774996,0.028567056038294673,0.003465782549888893,0.06842701384095858,1.2739911037380933,0.5318685298377059,0.4174821380440717,-3.5555011118607105,29.255921854992607,62.133724497151746,0.4708541471119073,5710.722372596162,2.1237999200680955,4.463661157365176,527.8383964823357,0.47674418604651164,0.4880952380952381,0.8048780487804879,0.034482758620689655,49.89238054240205,49.81788596842554,49.973635717501224,47.61904761904761,0.6303158011864278,0.3696841988135723,23.227011164139213,17.78810463952432,0.46438515042759504,0.5356148495724049,42.3415302234213,45.4730088978842,0.49449678143001186,0.5055032185699881,34.14893284774758,34.52688231576754,1.1464821881482063,1.5149806271080148,1.4454718134602373,1.3015600420347337,0.379112689824022,0.7334102488872696,-0.5949924829733436,0.0006273975269976504,0.14544016279635463,0.6271581405091315,1.5099083170870673,6.0045826325336025,1.0526138471082536,1.0801008934229266,0.9531233525202782,0.9336329671528503,1.7902151778877589,1.666256316351361,2.7559572991817927,0.9714121140828752,Relax
86.49564697724027,694.0833333333334,51.32561030413929,,,,,,,44.26045584725974,44.52928127624056,0.07394733145031473,0.06376821589231803,692.5,40.0302,0.05780534296028881,53.25,1.159626789232831,660.4,725.0,14.285714285714285,47.61904761904761,598.0,865.0,7.636363636363637,85.9375,,,0.04136764884409813,0.033739231560735355,0.004179053836997072,0.07928593424183056,1.2260993191155096,0.5217526821078048,0.42553867698433245,-3.389093977442723,31.48695675179286,65.82172335448304,0.47836724939910463,6511.03169128217,2.090444112250866,4.5206199191645435,550.3865361783377,0.4880952380952381,0.5060240963855421,0.8095238095238095,0.07692307692307693,50.24875621890548,50.191843311036,50.309869464538515,49.39759036144578,0.6059435656473713,0.39405643435262866,24.51032634546051,19.765700767472634,0.4934945387820351,0.5065054612179647,46.239212003768266,46.84479201175593,0.5144351183721031,0.4855648816278971,37.005545694465866,35.9521728512613,1.1328230550035303,1.5441443814505327,1.2741770190824306,1.6049040990612706,-0.5668575554221409,-0.7373766923655021,-0.2858185517158941,0.0015720009336471696,0.16524408533326856,0.7663608358756524,1.7311348474116202,6.011365041826378,1.0129060113869188,1.3855266643840742,1.1173743398555118,1.6225118458184231,1.7870449866598541,1.6716690954215718,2.321272430995722,0.9892872201919511,Relax
85.44465243727159,702.8928571428571,57.74142983551088,,,,,,,49.8165308606285,50.07497170897276,0.08214826662234158,0.07087357675410792,700.0,49.6671,0.070953,63.75,1.159081711190485,662.6,740.8,17.857142857142858,55.952380952380956,598.0,865.0,9.333333333333334,85.9375,,,0.04727930320425431,0.04718189061361919,0.005631162969341567,0.10009235678721506,1.0020646182119501,0.47235677849773,0.47138355143262844,-3.053745133452385,35.408352063139155,72.4689766124833,0.48860013923585355,8061.348858227437,2.046663354545806,4.613377825795781,593.2783950968267,0.47619047619047616,0.4939759036144578,0.7804878048780488,0.07692307692307693,53.074204946996474,52.899879836652296,53.25279347998612,51.80722891566265,0.6618215360714631,0.3381784639285367,28.831089249576976,20.609315913902247,0.47783062571013224,0.5221693742898678,50.09439307148329,52.36701589799039,0.5133404210492712,0.48665957895072876,40.86979278463096,39.79351867138293,1.117199325406122,1.6077102753483774,1.4006275082454078,1.7119036876088927,-0.2002676579180349,-0.656408759042189,-0.3063854015637028,0.002494113805149356,0.23579140855276362,0.6534653375770043,1.7227665977411035,6.00237828584824,1.0684905177220974,0.9505520348552348,1.2576354155373537,1.4344474089848973,1.9255134923563444,1.7211311346140645,2.4907315935448078,1.0653862371297935,Relax
84.79276978524373,708.7738095238095,61.69109818240582,,,,,,,52.375497812281814,52.65951655780997,0.08703918987053579,0.07389592717523007,704.5,49.6671,0.07049978708303761,70.75,1.1778618010183293,662.6,758.6000000000001,21.428571428571427,54.761904761904766,598.0,865.0,12.0,140.625,,,0.03033245424240634,0.023523781834680655,0.003084439276664415,0.056940675353751406,1.2894378317047555,0.5327027481490515,0.41312790353356504,-3.7497433765865615,37.23590125203271,77.92134475394593,0.47786522896407135,9115.241544864339,2.0926402244579,4.666738291478492,652.2453615038353,0.4523809523809524,0.46987951807228917,0.7435897435897436,0.08,52.66011521518129,52.44167783607844,52.882611641486335,55.42168674698795,0.6739135208731363,0.32608647912686384,30.587738656160266,21.277063111109726,0.4384110092368113,0.5615889907631888,51.59375828204182,58.393664678606505,0.48223822127071875,0.5177617787292812,42.41182411641428,43.94618009128713,1.1093418517356186,2.2179075075894303,1.4994930056825224,1.7439432038680396,-0.4889059151706281,-0.385003573347956,-0.3897834119100837,0.0028972651221855477,0.37187468368090865,0.5818352461108076,1.4622802680978129,6.017201053679629,1.0842788689270701,1.0207014646507522,1.3173361459285169,1.5971024791099446,1.8548718125622718,1.7195595336586207,2.7927878447532093,1.0653862371297935,Relax
83.56206795323988,718.6219512195122,66.34340892098363,,,,,,,54.88011625802033,55.186269874997436,0.09232032059192997,0.0763685497846092,713.5,62.2692,0.087272880168185,87.0,1.2088787969957704,671.2,780.6,25.609756097560975,57.3170731707317,598.0,865.0,11.714285714285714,140.625,,,0.05242517496971766,0.049891055268213004,0.0029717264516738863,0.10528795668960454,1.0507930667708127,0.49792185752327156,0.4738533906142271,-2.9979135454344528,39.022585657001564,84.9628795125361,0.45928982022371145,10415.860101590139,2.177274470209069,4.724665248091107,739.950033912376,0.4268292682926829,0.4444444444444444,0.6944444444444444,0.04,52.6178010471204,52.54095559880048,52.69161429228439,58.0246913580247,0.6742799990162242,0.32572000098377596,32.063998502993975,22.285365152942862,0.39744494654153445,0.6025550534584656,53.563347700528105,65.95194218651986,0.44572129384495934,0.5542787061550408,44.14256572112494,49.22548211127067,1.0995368028362524,1.9719206639901077,1.4939928383339733,1.457786845574241,-0.06109415687605946,0.4474316186585279,-0.5183607755732276,0.0009804818986975424,0.24755845310321556,0.5582415411382464,1.3987168811184478,5.973286455784828,1.1127589387289225,1.1092570147106482,1.0191357607318123,1.3707491532431904,1.7183786728511998,1.7070619566855723,2.581468711870267,1.162966830113064,Relax
81.06865438764339,740.475,49.60756756275872,,,,,,,49.55051124415329,49.864122415989435,0.06699425039705421,0.06691719672393165,733.0,53.373599999999996,0.07281527967257843,72.0,1.001151477899477,696.2,786.4,27.500000000000004,60.0,650.0,861.0,10.0,78.125,,,0.04826928013589409,0.0574797217958802,0.0031482355926192866,0.10889723752439358,0.8397618956352315,0.44325532247851107,0.5278345264084815,-2.856323057799028,35.25925909826226,61.06371146731038,0.5774175570238279,6764.041324447765,1.7318489675899025,4.5371763621880286,423.0125026474767,0.4625,0.4810126582278481,0.7631578947368421,0.038461538461538464,50.72659682325109,50.71165339347776,50.74028541443714,56.9620253164557,0.5896991725311267,0.4103008274688734,27.07787913521918,22.586585535530734,0.3988731235586511,0.6011268764413489,38.56564368020664,47.34414415420635,0.44659229412741536,0.5534077058725848,33.32056730407063,37.09192521188485,1.0564525206311683,3.1857804602784108,1.5291057414692664,2.1792070253044225,-1.5965537163329362,-1.4293561323497124,-0.29593657129206496,0.00925026753981291,0.8841988914999411,0.3772746955770523,1.6582280766035322,5.834183719779187,1.4190373433973893,0.824990204237333,0.8877827555762234,1.3648509507215696,1.9872145977432343,1.796615328429252,3.1799692920864224,1.0273133154191965,Relax
80.5237473357478,745.4556962025316,47.51026811239494,,,,,,,48.07899482715652,48.37804837357089,0.06373318810818632,0.06449611301124732,748.0,51.891,0.06937299465240641,66.0,0.9881709940732716,703.2,784.2,26.582278481012654,58.22784810126582,650.0,861.0,9.875,62.5,,,0.05286916006159424,0.06269120553920114,0.0012051866813856187,0.11676555228218101,0.8433265815654937,0.4527804564639766,0.536898120326607,-2.769534103713648,34.20844606552279,57.93439628057128,0.5904686725283931,6226.151798999538,1.6935699496435426,4.501189814914807,392.46381036606454,0.43037974683544306,0.4487179487179487,0.7142857142857143,0.0,48.48812095032397,48.45182698347353,48.528088569381886,57.692307692307686,0.5705530659330909,0.4294469340669093,25.84582158698952,22.423173310187416,0.3856483176453051,0.6143516823546948,35.97760142787716,45.40932137668524,0.4334676022622044,0.5665323977377954,31.324066610273338,35.81064903900643,1.008854781038188,2.9240178608328473,1.4520318130528822,1.8351448393678764,-1.046851036967313,-0.4028307591370619,-0.36897719352306824,0.0061161477502690844,0.6563866817166906,0.39617456231232273,1.7346010553881064,5.914478374731995,1.4124453622019253,0.8735264921180148,0.8667228263646388,1.1653494045693147,2.0363809954873036,1.7934106060555046,3.199471886526296,1.1171257022086005,Relax
80.84886687836521,742.4050632911392,45.33112333998765,,,,,,,43.22703925874317,43.50543388155987,0.06105982512973614,0.058225679478954996,746.0,47.4432,0.06359678284182305,60.5,1.048675183804519,704.0,775.4,24.050632911392405,56.9620253164557,650.0,861.0,9.875,132.8125,,,0.05508072152833074,0.05842710100968784,0.001203038401990423,0.114710860940009,0.9427255601676654,0.48017006477823077,0.509342363320277,-2.8399754384046823,30.762987316113957,56.66623939624621,0.5428803401086788,5476.49595398388,1.842026550086177,4.445472881112069,417.52286984569923,0.45569620253164556,0.4675324675324675,0.75,0.03571428571428571,50.52920423363386,50.50621791418203,50.5518533645209,53.246753246753244,0.5766283130587516,0.42337168694124827,23.360945319780324,20.01720039586734,0.42376257712480647,0.5762374228751937,36.888049551107066,43.01551449916363,0.4585613835222418,0.5414386164777583,30.874438990196214,33.54864229231988,1.0208400073824304,2.859045149538735,1.3833588719528507,1.9497052289932617,-1.4486808058844165,-1.157624363722885,-0.30191066337942135,0.006757970103569489,0.6530714046758271,0.5245191127808173,2.1282317058492684,5.898717457037862,1.4368779464813062,0.9519584407175632,1.2309545129795085,1.4107445487321932,2.0058066221168542,1.8092047599747134,3.2301825961995605,1.0373310091937005,Relax
80.5576392706917,744.7088607594936,42.98036280846208,,,,,,,39.54549473512949,39.792343100533415,0.05771431639020439,0.05310195274808318,748.0,47.4432,0.06342673796791444,59.5,1.0868586446152435,705.6,776.4,20.253164556962027,58.22784810126582,650.0,861.0,7.181818181818182,109.375,,,0.05350976624778339,0.06390064556406305,0.0011435248093048854,0.11855393662115132,0.8373900729083813,0.4513537700462716,0.5390006218710621,-2.7504258149256886,28.137435645688907,53.71832407715585,0.5237958579138655,4748.504373635768,1.9091407174976989,4.383526952311139,410.2233590857409,0.46835443037974683,0.4805194805194805,0.7297297297297297,0.037037037037037035,51.395939086294405,51.31977464364046,51.472557418942245,50.649350649350644,0.5584276110837841,0.44157238891621575,21.031361863136247,18.70186461986452,0.45390577664467213,0.5460942233553279,36.19139387619114,39.696868276436305,0.47641675391366134,0.5235832460863387,29.598438915927538,31.02902746797324,1.1428450102846008,1.2551110714005098,1.319976494168161,1.5394643278984645,-0.4886614186953082,-0.9051752591040847,-0.32512477283353974,0.00026350398430388856,0.08658238950507288,0.5225572701230803,2.302585092994046,5.843470267460645,1.4277356917253305,0.8047189562170503,0.9222198635284842,1.151292546497023,1.9615362404645555,1.8088508328005874,3.333117405897379,0.9575363161788004,Relax
80.55498405661459,745.0126582278481,33.95604008461305,,,,,,,34.749285179882776,34.97304989723114,0.04557780288644201,0.04664254331267397,747.0,35.5824,0.04763373493975904,48.5,0.9771723334404313,712.8,769.4,17.72151898734177,55.69620253164557,665.0,826.0,6.583333333333333,93.75,,,0.018666726155973846,0.10806688149721341,0.004610937996820711,0.13134454565000797,0.17273308804099416,0.14212029942769622,0.8227740326970088,-2.225004970406044,24.72968074110763,41.41647428650032,0.5970976807450812,3217.670047282378,1.6747678516388844,4.214511617720015,277.45191865303696,0.5063291139240507,0.5194805194805194,0.775,0.034482758620689655,49.49817518248174,49.5106752756742,49.48581792852786,46.75324675324675,0.4582103497335059,0.541789650266494,16.740378124172096,18.203217925881756,0.6289774672360088,0.3710225327639914,32.846618704570446,25.22744501531824,0.5840938239671679,0.4159061760328321,26.06856938981977,21.997512641865306,0.9955357256227891,1.073701122056379,1.1709077737641456,1.2643278713984856,-0.04871204137906737,-0.37052602352124975,-0.41299245598680245,0.00015117992196046523,0.06070611037063211,0.3750012312712121,1.9810014688665833,5.7928373560682385,1.5593990715265544,1.1075446591658777,0.9788036278295351,1.245677152034522,1.995401165119047,1.9034212241598523,3.2816963912178565,0.9575363161788004,Relax
80.26432554781286,747.632911392405,31.584716043823654,,,,,,,33.96076167186674,34.17775905642753,0.042246289004318587,0.045424380273224735,748.0,35.5824,0.047570053475935827,43.5,0.9300355613045211,717.6,775.4,13.924050632911392,55.69620253164557,695.0,826.0,7.181818181818182,70.3125,,,0.05192856515887699,0.10704693505098746,0.005157458856355363,0.1641329590662198,0.4851009058236271,0.3163810940490404,0.6521964610885931,-2.234487895360641,24.167325194559844,37.72566024903263,0.6406070837469187,2864.2789275210357,1.5610192665229174,4.16398541786605,235.56192996415078,0.5063291139240507,0.5194805194805194,0.8,0.034482758620689655,50.78413284132842,50.77387386409868,50.79362488529225,48.05194805194805,0.47477767896843037,0.5252223210315696,16.653652927936136,17.516040885762067,0.6000470597357175,0.3999529402642825,29.223316741061325,23.85839893783835,0.5635931775550359,0.4364068224449641,23.783885271256157,20.92886628784195,0.7197586957122803,1.127606922142078,0.8886587491351587,0.9878174885718558,-0.14937341930951664,-0.37653508445165107,-0.4120626722933481,0.00012505047383336618,0.0625117808495215,0.4328503619164539,2.169053700369523,5.8036570139451165,1.6232546468115423,1.3053356967509118,1.1256701965066827,1.3600863745795841,2.0112130292664423,1.9648631736298412,4.121085363832984,1.1171257022086005,Relax
80.98309851804767,741.1125,29.369317387325644,,,,,,,31.263275661121806,31.46253754973499,0.03962868982418411,0.04218425092158317,739.0,33.3585,0.04514005412719892,44.25,0.9394190712986791,712.8,765.0,8.75,53.75,690.0,823.0,8.88888888888889,15.625,,,0.05164535246956366,0.1254614094537945,0.005826080060361596,0.18293284198371976,0.41164333076127163,0.282318647157736,0.6858331620134127,-2.0757570620884684,22.247373654753993,35.28572343712131,0.6304922072633289,2466.196332748158,1.5860624262757048,4.098997757580404,223.86144051029652,0.5125,0.5256410256410257,0.7804878048780488,0.037037037037037035,49.65786901270771,49.65381235295555,49.66222821812734,48.717948717948715,0.4611857953220918,0.5388142046779082,15.108581361902605,16.33071669254928,0.5244802215426014,0.47551977845739873,25.554276144248114,24.33230875244937,0.506475901034632,0.49352409896536786,20.991549014135654,20.721408698696525,0.933521627589858,0.8493061427715838,1.043730510128547,1.1525345346467304,-0.044359501428617776,-0.5166895349574241,-0.3718906893065465,4.1554625464818646e-05,0.03259718130223731,0.2994152962947809,1.791759469228055,5.837492001110317,1.5682871794628226,1.2458898727611227,1.0789817827253791,1.4512471529765616,2.0731658467028486,1.9366438578966023,3.5078622455061312,1.1063374166052884,Relax
81.2259720889984,738.9375,32.729943612245336,,,,,,,31.36070265293933,31.56025956438734,0.04429325025762711,0.04244026409938504,737.0,37.065,0.05029172320217096,48.5,1.0436610421156387,707.0,765.4,8.75,55.00000000000001,659.0,823.0,8.88888888888889,46.875,,,0.04545494608357302,0.10376328423236333,0.004499694437413945,0.15371792475335028,0.43806387220534615,0.29570361528434785,0.6750239726359681,-2.2656430872739888,22.31647355398588,40.781600213041955,0.5472191732890627,2859.168194726089,1.8274213492730833,4.163209814075591,298.1006675473304,0.5375,0.5512820512820513,0.813953488372093,0.07692307692307693,50.43436293436292,50.42977304193719,50.43838731062781,46.15384615384615,0.4766654654036244,0.5233345345963757,15.407915048891143,16.144579148972447,0.5341870644672128,0.46581293553278724,29.806497535021446,27.83364188587517,0.5209310788598674,0.4790689211401325,23.725841833948547,22.752571904386773,0.9933164165659126,1.3441780542163824,1.1077973071733622,1.5578142485845292,-0.9001551781591264,-1.6268943893956367,-0.16521031942192058,0.001046181968347505,0.13446926293613795,0.4830014640655791,2.0794415416798357,5.912492001110318,1.4849222742510406,0.9678002527269727,0.7945134575869863,0.9678002527269727,1.878119712625281,1.8447024172659863,3.6439809258229556,1.1853615177913803,Relax
80.8675792220991,742.1139240506329,33.19676665664438,,,,,,,32.69301658356618,32.89696981046465,0.04473270960265587,0.0440539053695691,739.0,34.099799999999995,0.04614316644113666,45.0,1.0154084916511321,714.2,768.4,8.860759493670885,54.43037974683544,659.0,823.0,7.9,78.125,,,0.02464036496392236,0.07505400307407914,0.0025630887655659347,0.10225745680356743,0.3283018087603142,0.24096399161633303,0.7339709535144703,-2.5895473835632465,23.261670433468687,40.809888136295704,0.5700008379287888,2982.3332841918373,1.7543833858800955,4.181526285429327,286.3847589037696,0.5189873417721519,0.5384615384615384,0.8333333333333334,0.037037037037037035,48.6810551558753,48.70830937357572,48.65493426456737,46.15384615384615,0.4352816994326429,0.5647183005673572,15.350663084793997,17.48468717805056,0.5573136964518839,0.442686303548116,30.46598770639821,27.152726617608085,0.5273776940365958,0.4726223059634042,24.122803154580357,22.83620862232661,0.805232244960687,1.6058543083939867,0.957936026453561,1.4287256325171436,-1.196761314952715,-1.7455791360658477,-0.2068291914137474,0.0011102981956555228,0.1727622544705387,0.5125254117255449,1.9218125974762528,5.879606381033725,1.4962815550935915,0.8270267396490358,0.7551062215360906,0.928393016676077,2.0191163258270257,1.8694154541379548,2.809934008480157,1.1969203952235006,Relax
81.08735091165123,739.7341772151899,33.61879391236453,,,,,,,34.784317126382085,35.00351535554804,0.04544712810069984,0.047022725457043835,736.0,31.1346,0.04230244565217391,44.5,0.9664928533803653,712.6,768.4,11.39240506329114,54.43037974683544,659.0,823.0,7.9,78.125,,,0.02225901289670525,0.030849929828903916,0.0008565248034275724,0.053965467529036734,0.7215255600306207,0.4124677115922054,0.57166056816435,-3.4786208032231514,24.75122307327546,40.22543450462132,0.6153127586585027,3127.859817927372,1.6251897688261623,4.202217390901766,261.4958584139898,0.5569620253164557,0.5769230769230769,0.8888888888888888,0.07692307692307693,51.15420129270546,51.106223433868834,51.20369583083371,46.15384615384615,0.4601381707213698,0.5398618292786301,16.792468936610035,18.18912190965127,0.5623573150283283,0.43764268497167175,30.165249259128284,26.610962369298882,0.5342777922559554,0.46572220774404444,24.412386977233016,22.79240524894638,0.899911975263148,0.9676727709835812,0.967890852598968,1.3837483607549386,-0.8392244561062601,-1.830862976532128,-0.07024986067007294,0.0003900110063839891,0.06746342488756184,0.4882749158023043,2.0281482472922856,5.939794830428198,1.482998481221316,0.9935145990868998,0.9352778642913991,1.3690594785321302,2.0157091420155724,1.8449958198829404,3.5122863744795754,1.0373310091937005,Relax
80.58377574543877,744.375,37.51198120837148,,,,,,,38.68028641261625,38.923226058190764,0.050393929415108625,0.05196344102450545,745.0,38.547599999999996,0.051741744966442946,51.5,0.9697958491883425,712.8,776.0,13.750000000000002,62.5,659.0,845.0,8.0,93.75,,,0.020048789959727958,0.028166929426594083,0.007311805840829023,0.05552752522715106,0.7117847194518369,0.3610603908190164,0.5072606659736641,-3.5696067045758118,27.52287709140362,44.7700660271347,0.6147606991404093,3871.0736867512364,1.6266492008976052,4.29480154825178,291.30076850868676,0.5375,0.5569620253164557,0.8636363636363636,0.07692307692307693,49.0923759580476,49.02930641186421,49.15256534081377,46.835443037974684,0.4415086677326836,0.5584913322673164,18.289866887684852,20.57070358917862,0.5093888636932515,0.4906111363067484,31.95306022458461,31.358583423969748,0.4907681529257664,0.5092318470742333,26.033798114039776,26.51899885470713,0.8389484121428346,1.6505224789349298,0.8654945935311034,1.626847741396099,-1.4699797568436601,-2.395255936415259,-0.038719915916388424,0.0015619457030074842,0.2182197793979362,0.3742050207731711,1.580450375560848,5.918619813556231,1.4863583889542071,1.2078128439455467,1.3092681179842065,1.7282660344604228,2.1248209311245394,1.871503999203042,3.0414370717643426,1.1853615177913803,Relax
80.84353661481428,742.9873417721519,38.2436499407673,,,,,,,45.067328549228456,45.345767109385136,0.05147281493322571,0.06065692645817514,743.0,35.5824,0.047890174966352624,47.5,0.8485892368568632,713.2,773.8,18.9873417721519,59.49367088607595,643.0,850.0,7.181818181818182,109.375,,,0.03454372146378994,0.047415933942261054,0.008559040766019547,0.09051869617207053,0.728525594494337,0.3816197418279692,0.5238247560716766,-3.0487969476504926,32.064299421152135,43.439342078655386,0.7381396192210619,4375.773834004116,1.354757249116735,4.348024976947511,235.39905431168003,0.6075949367088608,0.6282051282051282,0.8979591836734694,0.13043478260869565,51.62151850438763,51.6576044611118,51.58404143138357,44.871794871794876,0.455104372471169,0.544895627528831,21.637359466333333,23.675841158139544,0.5679882629955691,0.4320117370044308,32.7380584427021,28.55163689928586,0.5281603950512599,0.4718396049487404,27.748475591220345,26.22728945367893,0.905510622112472,1.8826371104467161,1.1611349202708028,1.5569633895422557,-1.1884276008450492,-1.4315833864703986,-0.28974786639708283,0.0011003853745326284,0.22188600151146962,0.3827822441065143,2.3025850929940455,5.8036570139451165,1.4683511456669254,1.451302258504148,1.2658288879812922,2.0049031986000667,2.054875840213516,1.8772190218545632,2.8618308408355206,1.1171257022086005,Relax
81.29329083849251,737.075,58.35287135126008,,,,,,,74.18382914307614,74.6013314210211,0.07916815975478761,0.10064624243540499,743.0,37.065,0.04988559892328398,49.25,0.7865982657583857,703.8,773.4,28.749999999999996,66.25,458.0,907.0,8.0,273.4375,,,0.035555531608629794,0.04798244967608231,0.022021719199984788,0.10555970048469689,0.7410111790593523,0.3368286518943308,0.4545527266159531,-3.0369199666821167,52.751107333349076,55.405234585499194,0.9520960921471351,9181.893504751233,1.0503141523717776,4.669902361301061,232.7716080025123,0.6125,0.6329113924050632,0.94,0.12,46.89542483660132,46.44063713086198,47.20414494473106,45.56962025316456,0.2731095143022753,0.7268904856977246,27.588552066540302,45.00854619701941,0.6062512588556441,0.39374874114435593,43.139700406537145,34.76645320288533,0.44772482098733524,0.5522751790126649,36.20885220698101,40.214894622997875,0.6909889726407329,1.9942135614173622,1.0210049451804355,1.0667442527586382,-0.42729013787289816,0.20999655218961966,-0.4770639872964789,0.0007376622435205206,0.21869223767817642,0.6088253839610518,1.5960148921019597,5.903055907333275,1.2451754741240353,1.3159804724124957,1.5185810865023595,1.6034338085688264,1.7834754156339578,1.9333084647073426,2.747559014064123,1.1853615177913803,Relax
82.2142486718029,730.0617283950618,48.084910751454125,,,,,,,50.44427618669932,50.750469225242426,0.0658641713176255,0.06909590548951797,731.0,51.891,0.07098632010943912,67.0,0.9532282825010127,687.0,770.0,28.39506172839506,64.19753086419753,610.0,850.0,9.0,148.4375,,,0.020519390703426687,0.02982083128340004,0.012426288338541156,0.06276651032536788,0.6880891584953549,0.32691622645673063,0.4751073642427365,-3.5125480933271835,35.886000937568106,57.83943291561562,0.6204417838937616,6520.771216762437,1.611754762427848,4.521269073082817,372.89192583147803,0.5802469135802469,0.6,0.8958333333333334,0.11538461538461539,48.60050890585242,48.61775208601998,48.588527664005866,48.75,0.4384044800314388,0.561595519968561,23.766533219336445,26.89924943661374,0.5816549344537332,0.4183450655462668,44.111998568660646,37.41031384897059,0.541824618462618,0.4581753815373823,35.431035258564926,32.58144565954406,0.811225439303797,1.5817456228249664,1.0108560759417933,1.4003288685651087,-0.99134943960577,-1.5077084197721722,-0.253770273169636,0.000755361235278305,0.15965446269489275,0.4717368675248106,1.992430164690206,5.901457718880588,1.3953704190158467,1.6090939847201877,1.4870437712696085,1.9631190488927137,2.2091870947568477,1.8954113992601866,3.0542710199673704,1.2523160499525183,Relax
82.78954411972441,724.939024390244,50.365417186986065,,,,,,,50.535893612460015,50.84415185424748,0.06947538412537399,0.06971054380051679,729.5,57.080099999999995,0.07824551062371486,69.5,0.9966266268727477,677.4,765.4,28.04878048780488,60.97560975609756,610.0,850.0,10.25,148.4375,,,0.018056860734582177,0.03007689496531914,0.009994291704516392,0.05812804740441771,0.6003565446301241,0.3106393822065639,0.5174248286040537,-3.503998011115653,35.95224455981697,61.74467788330894,0.5822727689625816,6973.895112532282,1.717408151821475,4.550445521256552,424.1632525135436,0.524390243902439,0.5432098765432098,0.8409090909090909,0.07142857142857142,48.933419521654805,48.91885078925991,48.952955436927375,50.617283950617285,0.47628393533915997,0.5237160646608399,24.815065988225783,26.021385435829508,0.5434324985804765,0.4565675014195236,45.51686400589967,41.720742299029325,0.5264273689719808,0.4735726310280191,36.65768956802628,34.76875636244425,0.8931019157686674,1.4529543855025429,1.1746712559356975,1.4732911791617274,-0.41864768211844705,-1.117387214731604,-0.2944739861033255,0.0011945592148752836,0.1719609505558485,0.5722394941184397,1.8405496333974871,5.906094077683281,1.30598743697483,0.0,1.3839069201799539,1.7410348858015892,2.0198543248262366,1.8319542243859503,3.480741047839956,1.0854357081055264,Relax
84.16398010570569,712.4457831325301,56.169658724879824,,,,,,,53.198546651705236,53.462080655842335,0.07884060802200168,0.07467030883079727,715.0,56.3388,0.07879552447552447,70.5,1.0558494970290575,668.2,753.0,30.120481927710845,60.24096385542169,566.0,850.0,11.857142857142858,132.8125,,,0.04042630285809215,0.03710205586362622,0.010610096895863865,0.08813845561758224,1.0895973799048944,0.4586681554019394,0.42095196249643546,-3.2940828967901385,37.80339976808826,68.08462074988614,0.5552413944841057,8085.925847683239,1.8010184577991255,4.614699864262235,490.4866346511931,0.5421686746987951,0.5609756097560976,0.8260869565217391,0.1111111111111111,46.76390154968096,46.55604856051265,46.95415187090533,52.4390243902439,0.4732469502341994,0.5267530497658004,26.03712923433442,27.46962407667022,0.46859847646348424,0.5314015235365155,46.606818596158874,49.63184504932861,0.46969586694087817,0.530304133059122,37.75001747298067,40.1117207927692,0.9634245182603558,1.1470583370588854,1.2557478380861327,1.367385446411463,0.33384914122881604,-0.3265992813216747,-0.4026748642866983,0.0011091381365656596,0.12652770421599793,0.6038310448678774,2.065455299705096,6.052691389152187,1.2995537339295613,1.137590487373274,1.212188856629901,1.4664050890118079,2.0616759193148946,1.803195646150974,2.6402327856029384,0.8448847439134477,Relax
85.08476198541679,705.1666666666666,52.402481623691116,,,,,,,58.13217179488791,58.477115385443966,0.07431219327396518,0.08243749250043192,706.0,51.149699999999996,0.07245,68.5,0.9014368465122327,663.0,741.8,33.33333333333333,58.333333333333336,597.0,825.0,10.5,101.5625,,,0.04606288628313084,0.053973662613821916,0.013912532740100403,0.11394908163705317,0.8534326568257528,0.40424096115007596,0.47366474427356103,-2.91925908077019,41.349564833275615,61.315451814430574,0.674374298968209,7965.091127010973,1.4828560363732686,4.608160858803477,363.6879513839306,0.5476190476190477,0.5609756097560976,0.8043478260869565,0.07692307692307693,48.840497737556554,48.724572970512924,48.95494596348264,52.4390243902439,0.5475389145982331,0.45246108540176694,30.601390849946995,27.817896503036646,0.44716424778694047,0.5528357522130596,41.00185158752418,45.58983217343971,0.4785487207825485,0.5214512792174516,36.17731993636745,37.76419046832632,0.9352336362792999,3.603383683977518,1.514090230689258,2.2629194409792093,-1.6228099437172414,-1.4231943384153602,-0.2921872118088263,0.016950427370220147,1.2939704478651208,0.4554707476395965,1.6677068205580763,6.064820101298676,1.3351853000488985,1.221536137143243,1.4078116166772934,1.6495019469834662,2.10800483983629,1.782294075682824,4.16764206928085,1.0653862371297935,Relax
85.36635221252563,702.952380952381,51.0324500501219,,,,,,,57.88855100405777,58.23779114429932,0.07259730734673892,0.08235060094060515,698.0,47.4432,0.0679702005730659,61.25,0.8815637835976361,663.0,739.4,30.952380952380953,54.761904761904766,597.0,836.0,10.5,62.5,,,0.03620132521013849,0.04231702051170826,0.011491003743358279,0.09000934946520503,0.8554790666351927,0.40219516556036056,0.4701402772393859,-3.162565897698168,41.180337039459914,59.32640304408057,0.6941317006672761,7675.16617841852,1.4406487976830469,4.592057897314777,341.87404486525816,0.4880952380952381,0.5,0.7560975609756098,0.037037037037037035,49.32590855803048,49.297700970035486,49.35748516605034,54.87804878048781,0.5998310203494644,0.4001689796505358,31.895121578194445,26.05142662635374,0.43694456468945986,0.5630554353105401,39.2158098927841,44.5167648487815,0.4899109688161236,0.5100890311838765,35.74338068814132,36.472038480663514,0.8288557924410106,0.8441405101670459,1.2696839161587574,1.0686915083296418,0.9668951962544545,0.32256626788865583,-0.7381030236178827,0.0022412881507010273,0.11438585890781804,0.5193786044184057,1.5939337258981352,6.049997333467289,1.2587385007962295,1.4209009219162645,1.3480089238195996,1.6930424535510673,2.0785689167930923,1.8281911715937924,3.0999612860322454,1.2175842710054783,Relax
84.53340373054854,710.144578313253,48.282484964976504,,,,,,,52.3225223155709,52.6423351225463,0.06798965512016983,0.07367869010539828,712.0,42.9954,0.06038679775280898,59.5,0.9227858831761231,672.8,741.6,22.89156626506024,51.80722891566265,597.0,837.0,8.3,140.625,,,0.04127639326722779,0.03712787399176357,0.012730293413357375,0.09113456067234874,1.1117359770285937,0.4529170159235926,0.4073962031292108,-3.2933872709360186,37.22375214264725,57.655262146979936,0.6456262751481927,6742.313955776286,1.5488836785189182,4.535779081535442,357.2051780807473,0.4819277108433735,0.4938271604938272,0.75,0.037037037037037035,49.33378886231637,49.259780845507805,49.41075029310762,56.79012345679012,0.6344420835059492,0.3655579164940509,29.65064069842607,22.506926231608386,0.40713501222162246,0.5928649877783775,36.788169350252936,44.39324102939644,0.4740128026547552,0.5259871973452446,33.41055146185146,35.19461306428265,0.8849880547128328,2.8431769511670453,1.3892909591734282,1.8542714574425294,-0.830037875723443,-0.7758213770424458,-0.3364574184950959,0.009137475647653624,0.7688222981228422,0.4969560695482209,1.4213856809311607,5.90372117256664,1.2087244310820882,1.0851701941878311,1.0835582831896147,1.3014195535594824,2.0745914087837174,1.7995369359164644,3.258830090643217,0.9216924479055795,Relax
83.7349216551081,717.277108433735,47.36992800650807,,,,,,,52.064219256887625,52.37757553141068,0.06604132133806177,0.07258592062219359,722.0,37.065,0.051336565096952905,49.0,0.9098365188726316,683.8,748.4000000000001,21.686746987951807,51.80722891566265,597.0,837.0,8.3,140.625,,,0.02810912237531026,0.044182886699224766,0.011849705300975967,0.08414171437551099,0.6361993177734913,0.33406880979229575,0.5251008614115422,-3.1194177436221007,37.03653884037107,56.04211862986569,0.6608697127419758,6520.708885973018,1.5131575569577225,4.521264921726118,339.20222125080977,0.4939759036144578,0.5061728395061729,0.8048780487804879,0.037037037037037035,51.22206703910616,51.14129191381341,51.296631092967225,56.79012345679012,0.6496202918893628,0.3503797081106372,29.855102754702205,21.925941566560986,0.3609191073120334,0.6390808926879666,33.66816775000071,44.80149038683591,0.44869610011857664,0.5513038998814234,31.81880481834614,35.26982034588493,1.0281686023487173,2.7916922414198626,1.5639906919779463,1.9081565966858485,-0.5584362467187649,-0.3331614562937899,-0.37671782025197076,0.008512647667193141,0.7227255468540366,0.4507720576269043,1.33828514193353,5.912816202713189,1.1992907927712717,1.2359367078477224,1.0689098261945595,1.2311397760042733,2.155782022128716,1.8355195499129713,2.9964936867086402,1.0753078558898426,Relax
83.22903025870049,721.4512195121952,42.345770246314906,,,,,,,49.35772670195808,49.642502821873855,0.058695264629182745,0.0684145031112859,723.5,33.3585,0.04610711817553559,43.25,0.8579359925147242,693.0,750.0,18.29268292682927,56.09756097560976,617.0,837.0,7.454545454545454,125.0,,,0.04825163463574343,0.10005158762546051,0.037604860616845065,0.18590808287804902,0.4822675559769394,0.2595456522855721,0.5381777170554323,-2.30206934975785,35.102550380419316,47.51256331581686,0.7388056532983084,5239.586390142268,1.353535934024897,4.4262671153484625,257.23984706236496,0.5609756097560976,0.5750000000000001,0.8260869565217391,0.13043478260869565,52.1880650994575,52.27420336691121,52.10821922474578,56.25,0.6480532709001627,0.3519467290998374,28.271120423499315,20.834166650000668,0.40170080116540385,0.598299198834596,30.113401202212305,36.75087401510479,0.4887394142903667,0.5112605857096334,29.20679015199549,29.872137861844642,0.9193413838660806,3.347907581678556,1.4764903420155313,1.9566106064014268,-1.1808349223710675,-0.6337689023997655,-0.3565909444414307,0.01084234935889781,0.9701663435057973,0.5422908085434504,1.6863989535702286,5.826944992370194,1.2575418372255873,1.0302923789251857,1.109257014710648,1.586127176283775,1.9328532226121151,1.9514094370616728,2.3584470924463,1.0854357081055264,Relax
81.66527773755864,735.15,54.84779861269026,,,,,,,54.6564645208968,55.00156676532679,0.07460762920858365,0.07434736383173067,731.0,58.5627,0.08011313269493844,78.5,1.003500667184946,689.8,779.4,30.0,61.25000000000001,619.0,891.0,10.0,148.4375,,,0.05296419532208217,0.04300850895487033,0.004630332051591759,0.10060303632854427,1.2314817837014191,0.5264671649582663,0.42750706662983146,-3.146357300193365,38.89198083564722,67.18187322173522,0.5789058710417824,8208.46677798115,1.727396542378174,4.621232154773577,464.198942054857,0.575,0.5844155844155845,0.8,0.2777777777777778,49.154704944178626,49.06434948221035,49.2435181615983,57.14285714285714,0.5589049106140279,0.44109508938597214,29.077813376683444,25.83205125023702,0.40006901633514236,0.5999309836648576,42.493212804420914,52.03586220232642,0.43994297595573373,0.5600570240442663,36.40873772332016,41.07934899030397,1.179840130746484,1.1957438226035961,1.3439790109540999,1.4704705048026643,-0.3419996552975402,-0.5812505976937068,-0.39421522281156884,0.00010364658912820113,0.06724473871510411,0.5259162155137465,1.7707060600302222,5.909183719779189,1.259645368630879,1.3559108052283602,1.1843284451597424,1.502886046148265,2.099589689127489,1.7647843812631583,2.9676592062215517,1.0273133154191965,Stress
81.36703630513801,737.575,54.642399033643265,,,,,,,52.58471164449014,52.91733247810689,0.07408385456888217,0.07129405368198508,737.0,56.3388,0.07644341926729986,75.75,1.039130905634028,691.6,779.4,26.25,60.0,619.0,891.0,10.0,164.0625,,,0.0623114605018743,0.06317129006567465,0.0059362476951467765,0.13141899826269574,0.9863889187175622,0.4741434748826713,0.4806861329090369,-2.7619053521544488,37.418204637572515,67.53480355830283,0.5540580954717572,7938.9023382193645,1.804864883615755,4.606730569390331,487.5647814570765,0.5875,0.5921052631578947,0.8222222222222222,0.3333333333333333,49.211673934921166,49.23910340717577,49.183943899817585,55.26315789473685,0.5354571131670381,0.46454288683296174,27.38249955813534,25.5049014897137,0.4340486328629188,0.5659513671370812,44.49352737445016,50.806256636733295,0.45786954320656753,0.5421304567934323,36.94235550335298,40.198107626091094,1.1567101932035362,1.698850202057284,1.3957370528230284,1.687645389003133,-0.8781809931411075,-1.1103848869479345,-0.3281729985218192,0.0005942359794009518,0.166905741289644,0.5217170848553017,1.6945957207744071,5.849747626002143,1.241339565515093,1.0326780515982439,1.345220444778839,1.5283224928901908,1.8814378403216505,1.7346464734357574,2.6603502293230235,0.9482892142331044,Stress
82.2144128567209,730.0123456790124,53.82204330642801,,,,,,,51.77789103468777,52.10354223969855,0.07372757957451537,0.07092741833910655,727.0,57.8214,0.07953425034387895,75.0,1.0394792493647682,684.0,774.0,25.925925925925924,55.55555555555556,619.0,891.0,11.571428571428571,85.9375,,,0.04853343965463271,0.020353335985080746,0.0030636814052383806,0.07195045704495184,2.3845447100273063,0.6745396992309709,0.28287987069164516,-3.894510450057866,36.842768041530555,66.67946897117943,0.5525354147234577,7717.813096823313,1.8098387421926556,4.594464366964577,482.71634501149435,0.5555555555555556,0.5584415584415584,0.813953488372093,0.35294117647058826,49.55540355677156,49.45793836507598,49.650565778804065,59.74025974025974,0.6243822152595162,0.37561778474048385,29.112940269564675,22.580516974494696,0.3751866769612094,0.6248133230387908,40.84283091830053,52.70687568863852,0.43347275148766096,0.5665272485123389,35.46618198058628,40.54561931758496,1.1772387511259979,2.101189636669969,1.4789976436227925,1.840653753032233,-1.1582191752465114,-1.1697821205092938,-0.32788030975509447,0.0013832848404391354,0.27668820677538997,0.5279481194955427,1.5293952047605641,5.833435805246921,1.2001939825489336,1.2055296132361273,1.2207230763022903,1.2696770133041515,1.9819947560799842,1.7066732206461015,2.609229067439972,1.0957765437084537,Stress
83.39140290431826,719.439024390244,65.72691305904304,,,,,,,58.41074228953793,58.72055080139961,0.09135855969830033,0.08118928819442842,709.0,67.4583,0.09514569816643159,89.75,1.125253857128529,665.4,771.8,30.48780487804878,60.97560975609756,544.0,969.0,13.666666666666666,117.1875,,,0.03847142933585112,0.015482446116462933,0.00678187303232272,0.060735748484636774,2.4848418038376594,0.6334231535087205,0.2549148813137497,-4.168048405444701,41.52169966667883,78.79371802371048,0.5269671327628451,10278.188763236998,1.897651557046988,4.718886699384055,598.0920867728621,0.5609756097560976,0.569620253164557,0.8444444444444444,0.3125,46.98186143324413,47.42718514842711,46.43846084836636,62.0253164556962,0.585698932902007,0.41430106709799286,31.80624938593043,26.750584105772344,0.3625975236458394,0.6374024763541605,47.44648138354426,62.90692652101983,0.41115639513356367,0.5888436048664364,40.39063069375751,48.336710450345024,1.196899176035783,1.514301071451328,1.401545975406318,1.7308185251377193,-0.6797010312885412,-1.1095453403261946,-0.28255806857759025,0.0009187650964571815,0.15415550869176226,0.5336752522104646,1.4170660197866443,6.006882644835603,1.1156056792420792,0.929324850524386,1.3027571813095737,1.6549649469828858,1.8864413498903816,1.6914918430018104,1.889313995570508,0.9303734640904512,Stress
84.55435322584181,709.6024096385543,56.4483229587429,,,,,,,55.64620382380095,55.974379274809664,0.07954922671062466,0.07841884845366451,701.0,51.891,0.07402425106990014,75.0,1.0144146245354273,665.8,760.2,27.710843373493976,60.24096385542169,544.0,852.0,10.375,179.6875,,,0.0295677825987411,0.01391599700119296,0.0026395469846401632,0.04612332658457422,2.1247333264160932,0.6410591947335805,0.30171277814655967,-4.274716237185928,39.57986315792565,69.30297840220896,0.5711134509720304,8617.39619363349,1.7509655888825735,4.642346170500877,485.3885215573604,0.5783132530120482,0.5875,0.8723404255319149,0.23529411764705882,48.43417452113106,48.304348397437785,48.566808720464074,61.25000000000001,0.6185465100250873,0.38145348997491263,31.136596704215886,24.45151412918792,0.45248452946115486,0.5475154705388454,46.61801390537391,51.2802456598582,0.49334303702103277,0.5066569629789671,39.64042680649783,40.17175710710998,1.1762782544577637,1.2733779815047699,1.3871157874439506,1.584683010765692,-0.05337812072192705,-0.48208422446620247,-0.34484793502690125,0.0008069584021308276,0.11889517840379195,0.5242245229300031,1.5234954826333758,5.932209461441343,1.2358719776137188,0.6940646127821859,1.372178794084459,1.8630159958697596,1.881790397674587,1.6813026177498362,2.8142202101586835,1.0753078558898426,Stress
85.32837717472724,703.6867469879518,56.89483831679057,,,,,,,58.003994816168884,58.33914282595321,0.08085250796653798,0.0824287157097219,695.0,44.477999999999994,0.06399712230215826,77.0,0.9808779291341304,663.4,756.6,30.120481927710845,62.65060240963856,544.0,852.0,9.222222222222221,140.625,,,0.0484848682107226,0.010361150890503544,0.005818699735922538,0.06466471883714868,4.679486740721162,0.7497885876968964,0.16022880910681783,-4.569691958503872,41.252003500842044,68.89497088284388,0.5987665423502567,8928.580931377344,1.6700999960265586,4.657752549517174,460.2459623907497,0.5301204819277109,0.5432098765432098,0.8409090909090909,0.2,48.136467889908246,48.092859358598254,48.184852064849075,60.49382716049383,0.5733853838179536,0.42661461618204627,31.248604907131057,26.954121973420406,0.4734666362566062,0.526533363743394,47.40587984686287,49.991995048134534,0.4998502595194585,0.5001497404805416,40.14842931359316,40.16045480476244,1.122786451457828,1.724947448725425,1.3436455674582717,1.7660916937262305,-0.9565947824624601,-1.3810861492150055,-0.25509623404463305,0.0014217771786301898,0.21163966011896082,0.5130500115992533,1.6341305250244718,5.9472108168369635,1.216780778457423,1.2428627367512484,1.0233179056434585,1.3427355385281943,1.7968083328714777,1.731291676833181,2.6315283994995227,1.0753078558898426,Stress
85.83260604847494,699.964705882353,56.09843539512946,,,,,,,57.992199803898096,58.33448076897869,0.0801446629004152,0.08285017703970517,697.0,50.4084,0.0723219512195122,72.0,0.9673444977915574,660.0,747.8,30.58823529411765,68.23529411764706,544.0,843.0,9.444444444444445,140.625,,,0.054097370174784803,0.025627067655516804,0.019079613049517115,0.09880405087981872,2.1109465547120108,0.547521783702843,0.25937264137771576,-3.664106155782969,41.24870692874108,68.08115664297348,0.6058755309498444,8822.407972947,1.6505040209038944,4.652557246866311,449.47289114806244,0.5176470588235295,0.5301204819277108,0.8636363636363636,0.08695652173913043,50.96048298572996,50.907744404147856,51.010543561170486,57.831325301204814,0.5800176991150443,0.41998230088495564,31.41780248924186,26.734414443983066,0.5120490435022296,0.48795095649777037,48.71724325519696,47.55706150992784,0.5303025178688782,0.4696974821311219,40.990536125056025,38.57721487563423,1.0339144916257945,1.0649192257936066,1.2163394664200977,1.5169400825795338,-0.044442177315104914,-0.9455741334289771,-0.21772449132428753,0.0010411612705054423,0.11074937860190787,0.4368637274033138,1.3581234841531942,6.000509906700483,1.2855770212689188,0.9914921930161793,1.170321519141336,1.6149780347224811,1.896410424110937,1.7853508065983656,3.301732243168194,0.980259790232825,Stress
87.65937865454408,685.5930232558139,51.49948666950946,,,,,,,64.87336079760684,65.25355201381889,0.07511670177876585,0.09462371785746829,685.0,48.925799999999995,0.07142452554744524,65.25,0.7938464423043929,634.0,731.0,37.2093023255814,70.93023255813954,544.0,821.0,9.555555555555555,140.625,,,0.05377645189197931,0.02174639502680522,0.01080453227394533,0.08632737919272986,2.4728904181908287,0.6229362271258219,0.2519061186631809,-3.8283072810788257,46.14122912548043,56.41046920931047,0.8179550670687363,8177.089364292569,1.2225610430945173,4.619568853978672,275.860968311943,0.5930232558139535,0.611764705882353,0.9230769230769231,0.16666666666666666,50.80859280714458,50.714146469658225,50.902028439143045,58.82352941176471,0.6010141812052208,0.39898581879477935,35.7736768082476,29.14740860816667,0.34574313274804264,0.6542568672519572,33.169314294631945,45.62825468543028,0.4480793588784708,0.5519206411215293,34.49608211925687,38.28517372436698,0.9073766813691667,1.7890294977611787,1.0275386874042338,1.7653791428429717,-1.2731048607812028,-2.2000802859676343,-0.08757501966173072,0.00251116352823213,0.2897122699431537,0.5104550483363739,1.6094379124341005,6.091905597700197,1.3712877899927112,1.2354106056523262,1.1689799917812354,1.5237905360702544,1.9098028512888778,1.8605246187797122,4.127628791666023,1.1955841404096927,Stress
87.69951753794938,684.9651162790698,49.89576138414933,,,,,,,61.80919406195356,62.16916472027597,0.07284423717108056,0.09023699542207218,692.0,51.149699999999996,0.0739157514450867,67.0,0.8072546834074075,638.0,731.0,36.04651162790697,68.6046511627907,544.0,800.0,12.285714285714286,171.875,,,0.03131607658801664,0.044501230687788676,0.015229755156726338,0.09104706243253166,0.7037125963487096,0.34395482678227757,0.4887717351755889,-3.1122384342869966,43.96023795441061,55.39056639842541,0.7936412427741534,7649.723068602443,1.260015163154229,4.590615823291255,279.1718142308686,0.6046511627906976,0.6235294117647059,0.9056603773584906,0.13043478260869565,50.98734177215189,50.952798076458336,51.01860221420983,54.11764705882353,0.5405195669044012,0.45948043309559883,32.32314517935583,29.80172574101804,0.41537435120179284,0.5846256487982072,35.698966561291954,42.352079434121464,0.4637436099387068,0.5362563900612931,34.05291417654262,36.61858469095298,0.7864776556903572,1.7785246130889265,1.0576854594289486,1.5306006234759835,-1.2030049334130695,-1.9135958079046704,-0.23409692473938853,0.0012448987486946468,0.22952561250180817,0.37812100710154173,1.363304842895192,6.123939173306748,1.3298182017212623,0.7025559564578794,1.1749218544675615,1.7140661889213136,1.7876718585809754,1.896672744521333,3.8577641212060105,1.1955841404096927,Stress
86.89053857905986,691.1294117647059,47.80386222573945,,,,,,,58.93075032046795,59.28294514128166,0.06916774400278919,0.085267316536271,696.0,45.9606,0.0660353448275862,63.0,0.8111870622006337,654.4,730.2,30.58823529411765,67.05882352941175,564.0,800.0,10.625,117.1875,,,0.044119397485563934,0.04864324175677092,0.013112436183452904,0.10587507542578775,0.9069995315314837,0.4167118399503673,0.45943997263895214,-3.0232423955851737,41.91937251811035,53.446854585281635,0.7843187937509468,7038.608301308193,1.2749917609618582,4.554456907340956,272.57719698224236,0.6,0.6144578313253012,0.9019607843137255,0.17391304347826086,50.52341597796143,50.50080102506095,50.54637551910774,53.01204819277109,0.5405768584729086,0.4594231415270912,30.82167911737545,28.4141064575878,0.4345895105337524,0.5654104894662477,35.233985510296144,40.18871147624021,0.4749578278331078,0.525042172166892,33.101432284375676,34.80297383776,0.8920631373658945,2.7537255810075933,1.2674937085073672,2.0889096164626952,-2.0202038959011617,-2.639483492790866,-0.20170742007823073,0.006715919116483803,0.6913493260540444,0.4459745408267244,1.7272209480904839,5.997396230153536,1.3176076493261666,1.2755010906089603,0.6205207870333276,1.1691210559537102,1.874337100174386,1.8517667684969734,4.374161069433203,1.1310689887301828,Stress
86.38275729938454,695.8352941176471,52.84565285063743,,,,,,,61.96456360579926,62.30148392773958,0.0759456344013827,0.08905061891747433,697.0,50.4084,0.0723219512195122,70.0,0.8528366823790816,654.4,741.0,35.294117647058826,69.41176470588235,564.0,810.0,10.625,109.375,,,0.033549615990730974,0.03379747941958751,0.007733617290732764,0.07508071270105125,0.992666215554735,0.4468473298104591,0.4501486227782477,-3.387369052658882,44.05380176328936,59.2307901614986,0.7437652214865329,8197.488049588968,1.3445102985608028,4.620650902183176,318.54562945611497,0.6235294117647059,0.6385542168674698,0.8867924528301887,0.17391304347826086,52.23157357816884,52.28042386633518,52.18812877754969,53.01204819277109,0.5647899245644551,0.43521007543554496,33.12626446779596,29.07893287844995,0.4399142514302007,0.5600857485697992,39.28543280706373,44.32765809646568,0.4844226637504909,0.5155773362495092,36.33658368936656,37.48683508691123,0.8853513396543535,2.7671808755471776,1.2474483182868914,2.0141650027734004,-1.8293494907381938,-2.215651653174289,-0.22292498431823699,0.007128246196860254,0.6892812130018973,0.4777272575717486,1.8523840910444898,6.062217112557384,1.2853067002382643,1.2555674279331472,0.7514083968005201,1.1482779706671908,1.7531310839803056,1.851471581896803,2.793598987523672,1.1310689887301828,Stress
85.47856378696532,702.8095238095239,55.099576057336606,,,,,,,64.35752921193495,64.74056592043287,0.07839901735917533,0.09157179439329452,704.5,54.856199999999994,0.07786543647977288,70.0,0.8561480953671933,663.6,750.2,35.714285714285715,71.42857142857143,564.0,813.0,9.333333333333334,109.375,,,0.032566590200773154,0.038237008610277644,0.0032529952581142763,0.07405659406916508,0.8517033989949635,0.43975274059130537,0.5163214578105797,-3.2639514205774867,45.778493180192775,62.55345172455697,0.7318300096654977,8996.273403574773,1.3664375425887174,4.661032755464778,341.90153941978235,0.5952380952380952,0.6097560975609756,0.84,0.13636363636363635,51.05905806130079,51.126905855755986,50.99510873799433,56.09756097560976,0.5671670879669088,0.43283291203309127,34.480376179261945,30.121501922194724,0.44646847262128575,0.5535315273787142,41.79715074623919,46.53958005990853,0.48857246293827206,0.511427537061728,38.313823562568494,39.19972825289364,0.8234890342717279,2.2196248669835947,1.1697344801621474,1.623567631185089,-1.5498520014968769,-1.874908087299798,-0.2955361026209408,0.00128489667531204,0.31570212728373415,0.4781859860808315,1.6739764335716716,5.954759238229195,1.312883710436134,1.227248489405028,0.8021936178023603,1.170532806781055,1.793376236493698,1.8826152260453313,2.9706047087477203,1.141485254067636,Stress
84.73025726375192,708.3493975903615,51.08993355454954,,,,,,,59.86437924541625,60.211977498391356,0.07212532929137162,0.08451250110335497,705.0,47.4432,0.06729531914893616,69.5,0.8534279349177656,669.4,750.8000000000001,34.93975903614458,71.08433734939759,564.0,813.0,7.545454545454546,109.375,,,0.057693582030073895,0.06746409517995183,0.026615116701421047,0.1517727939114468,0.855174621051148,0.3801312510840101,0.4445071704966726,-2.696159745884991,42.57629759776434,57.82597856542578,0.7362832182700105,7734.651605705872,1.358173017102882,4.595410866377646,314.15073510052366,0.6385542168674698,0.6499999999999999,0.8653846153846154,0.19047619047619047,51.693357836702546,51.59714997083504,51.78939791871924,53.75,0.5691384197613205,0.4308615802386794,32.13119325899543,27.95675673095111,0.4340674943031561,0.5659325056968438,38.097951366526864,43.50160800157662,0.48157147617724905,0.5184285238227512,35.241080279789664,36.56480647861011,0.69364663533476,2.014291636151528,1.0232650718046044,1.2822306130126693,-0.8225521843552883,-0.8115862485998768,-0.3714359248877982,0.0010943222210082052,0.2543746008708852,0.4346154315663213,2.1041341542702074,5.832635214375192,1.4078719113285514,0.8392242806913939,1.268056618004876,1.6603985227706182,1.8606446988593377,1.8937279482357368,4.04712801393201,0.998500151897711,Stress
83.47350153562195,718.829268292683,56.1883527489744,,,,,,,63.6487273543404,64.04460251349141,0.07816647878352166,0.08854498580103,720.5,60.0453,0.0833383761276891,78.75,0.8827883146220165,674.2,766.6,40.243902439024396,75.60975609756098,564.0,841.0,11.714285714285714,109.375,,,0.04903445424433922,0.05178648015975231,0.018769241710371556,0.1195901761144631,0.9468582165282605,0.410020754525915,0.4330328948607453,-2.9606261645603125,45.28637273568678,63.749921326506765,0.7103753509552494,9069.78647026989,1.4077065014365844,4.664567172559359,358.9647148695774,0.573170731707317,0.5769230769230769,0.8,0.13636363636363635,50.291828793774314,50.245517759948854,50.344089465519545,56.41025641025641,0.5379101857721001,0.4620898142278999,33.214454684670045,30.784736477676724,0.43809913429680136,0.5619008657031987,42.195472132269984,47.78697103469344,0.47157486227733625,0.5284251377226638,37.97142259953644,40.19511537905215,0.8788763203259969,2.177443589304999,1.176962455997623,1.654828924696647,-0.9685237426144226,-1.1646368086129946,-0.2805378421529853,0.0036722480638151866,0.3880371545386905,0.5082124981463711,2.079441541679836,5.930484321585721,1.428438285735137,1.2553182646758552,0.8864446526183158,1.3290967224639934,1.938782707714525,1.8854334977823046,2.7774775779234746,1.0854357081055264,Stress
83.10421931222866,722.9876543209876,55.83558314980701,,,,,,,69.31251690712148,69.71856171853565,0.07722895794430464,0.09586957189776374,725.0,62.2692,0.08588855172413792,85.0,0.8055627704967991,675.0,771.0,45.67901234567901,80.24691358024691,572.0,841.0,10.125,101.5625,,,0.050020635022493994,0.08114418167721991,0.03291182545189265,0.16407664215160656,0.6164414254797591,0.30486140115102434,0.4945504772229725,-2.5115276859626605,49.2984677657494,60.88512736438362,0.8096963889179257,9429.6269738023,1.2350308259820637,4.6814646228026655,300.7800365554314,0.5925925925925926,0.5974025974025974,0.8478260869565217,0.13043478260869565,51.86015239802779,51.824604146774824,51.89141253139642,53.246753246753244,0.5715021673631023,0.4284978326368977,37.285250078519276,32.285122176074395,0.4299081445838508,0.5700918554161493,39.920783406451456,45.97096677678646,0.48600866656742714,0.5139913334325728,38.62550207571761,39.72190139152742,0.8371019852054985,1.5825331260542055,1.0932357256225642,1.505255882050516,-0.6218880598745873,-1.3757126484191886,-0.2396451615169293,0.0017581870533217357,0.21759387841322397,0.5183636676575465,2.1747517214841605,6.000223150979352,1.5190579186654234,1.3946959784384476,0.8819364731848249,1.3475249950819106,1.9760024996237566,1.881124961620926,3.3791224959243755,1.1740462968304861,Stress
83.06871184661685,723.1975308641976,60.13327276830324,,,,,,,75.09793605685844,75.57147677044443,0.08314916769204941,0.10384152717877625,727.0,65.2344,0.08973094910591471,86.0,0.8007313639455405,675.0,772.0,56.79012345679012,86.41975308641975,572.0,841.0,13.5,101.5625,,,0.0512819884161726,0.047078125323888456,0.01918957487350729,0.11754968861356835,1.0892954650033826,0.4362579690428316,0.4004955340941192,-3.0559468163316996,53.43710368866291,66.83021184456827,0.7995950067156056,11219.296399143257,1.2506331225198273,4.756935731627832,334.3203060713358,0.6419753086419753,0.6538461538461539,0.8823529411764706,0.14285714285714285,50.158667195557314,50.11357606912927,50.20006717524011,56.41025641025641,0.563050782843059,0.43694921715694096,40.09758665675782,35.32319136348337,0.4121339233054233,0.5878660766945767,42.903430530271386,51.24034410427051,0.4709921975042871,0.529007802495713,41.524214664229504,44.007389788678196,0.7812194973793559,1.667648944483164,0.9959400426579204,1.5447788399473967,-0.820564046653935,-1.6837603548684736,-0.17089068769232374,0.0029961729559573407,0.27663937370959624,0.489039666165604,2.054123733695546,5.916829478113138,1.58111294101336,0.9932604352077794,0.8601045237038591,1.0333913188438455,2.0743813762553622,1.9162223430169985,5.441967199002266,1.0957765437084537,Stress
83.79277502294822,716.433734939759,62.63019469153531,,,,,,,73.90633492105677,74.3450738314997,0.0874193824733861,0.10315864722265088,725.0,69.6822,0.09611337931034482,91.5,0.8474266077249522,662.4,768.6,54.21686746987952,77.10843373493977,572.0,864.0,13.833333333333334,210.9375,,,0.05178144620944167,0.018824299937676255,0.008787150363727635,0.07939289651084556,2.750776729061924,0.6522176225472263,0.23710307552647028,-3.972606693893311,52.56990585406797,71.10553416478056,0.7393222830200815,11743.308640396475,1.3525900990229427,4.776760585222903,384.70656598807903,0.6626506024096386,0.6708860759493671,0.9245283018867925,0.19047619047619047,48.70423693953106,48.60227655748085,48.803308064598674,53.16455696202531,0.533480986657617,0.46651901334238316,38.40524655516435,35.91416378664311,0.45855671407600673,0.5414432859239932,48.150403586982165,52.32146426916501,0.48504380365738886,0.5149561963426111,43.55125904352381,44.874061459619064,1.0663773521977853,2.7206342912769927,1.4428328719939008,2.3513362086906007,-1.4260248652839316,-2.231065334735953,-0.16606929141135207,0.015506107934184209,0.9527093744634565,0.4929554501585631,1.275068726009666,5.96540087713006,1.408284400287982,1.3081507988335412,0.9828400964041777,1.3623057513698755,1.6624793311230808,1.833085885041678,4.029317918984211,1.1521155598819743,Stress
84.94553533078526,706.5180722891566,67.99145596355098,,,,,,,69.59788684765175,70.00600589368308,0.09623456020488619,0.09850828956455543,707.0,75.6126,0.10694851485148515,94.5,0.9769183957033464,642.6,764.6,48.19277108433735,69.87951807228916,572.0,864.0,11.857142857142858,171.875,,,0.04947446788813209,0.02252935835837635,0.006806104122787138,0.07880993036929558,2.195999863872627,0.6277694658058902,0.2858695376687429,-3.792936004376449,49.50172149120871,81.4630118366658,0.6076588671980382,12668.658746732382,1.6456601787300118,4.809700747755495,536.24173847605,0.6265060240963856,0.6329113924050632,0.88,0.19047619047619047,51.55858930602957,51.360933423760194,51.75789483221557,50.63291139240506,0.5802813213594262,0.41971867864057383,37.71939933800316,32.07928064831847,0.4795867424938703,0.5204132575061295,56.41492917768819,58.767151227341095,0.5067527651259163,0.49324723487408334,47.986442463175614,47.342677946493254,1.139911771574548,2.108196400589964,1.4311143687174748,2.1341804541138805,-0.8896398112380819,-1.707695183589414,-0.16650826023625814,0.00907834677580299,0.5646698607036337,0.533200237216489,1.213022639845854,6.013593648214399,1.2461813100183614,1.1848341006782728,1.166589861600388,1.2881285082598495,1.751737755707948,1.7803812984943306,4.3677197729197825,0.998500151897711,Stress
84.48771469502884,710.9397590361446,70.0954661554582,,,,,,,70.5914905394791,71.02559750790566,0.09859550723466362,0.09929320964575591,719.0,80.0604,0.11134965229485397,102.5,0.9929733119356151,643.8000000000001,765.6,50.602409638554214,68.67469879518072,572.0,864.0,13.833333333333334,156.25,,,0.051574366765438986,0.01751327498144233,0.008917239494063709,0.07800488124094503,2.944872779082665,0.6611684543962542,0.22451511627005147,-4.044796115253619,50.22268163566643,85.8991994323202,0.5846699616244594,13553.107625935001,1.710366643809747,4.83900899705813,587.6765017560065,0.6265060240963856,0.6419753086419753,0.8846153846153846,0.18181818181818182,50.188094711219286,50.12442401835202,50.2446439491249,51.85185185185185,0.5701350157481664,0.4298649842518336,37.92194712925583,32.92818598250996,0.4627628141885627,0.5372371858114371,58.434366891462645,62.96107709615086,0.49011649749878117,0.5098835025012186,49.257736996740626,50.24123138024295,1.0822508758958989,2.1459895210197626,1.4642295003382144,2.0508308748323136,-0.6351255599442744,-1.3889446200879458,-0.22665226519123474,0.008596545279308724,0.5731896542604034,0.48376993608416274,1.1749852674526837,6.109979190383072,1.2014363684126401,1.2268656485588627,1.0788837723334532,1.2512294002552098,1.8180733498132124,1.7642836000121196,3.852145732669782,0.998500151897711,Stress
84.04778649405627,714.4024390243902,69.46690476892753,,,,,,,67.5323425030601,67.95146915625759,0.09723777660081012,0.0945298319463807,713.5,77.09519999999999,0.10805213735108618,103.5,1.0286464558189994,653.0,773.0,51.21951219512195,68.29268292682927,581.0,864.0,11.714285714285714,125.0,,,0.03589566662649195,0.010142263707462728,0.006937837388781335,0.05297576772273601,3.5392164571780698,0.677586530021845,0.1914510000222214,-4.59104406042272,48.048944631978266,86.31744544927686,0.5566539229918881,13029.636643994721,1.7964483114126415,4.821902414722084,620.2593164912249,0.6707317073170732,0.6835443037974683,0.9259259259259259,0.3157894736842105,50.43738489871086,50.403819645861944,50.464349749595335,50.63291139240506,0.5562193768441569,0.4437806231558431,35.835823556882296,32.009471254614624,0.48563621341796276,0.5143637865820373,60.152559461821376,61.906146537164894,0.5023341034833145,0.4976658965166857,49.51028509212988,49.279697792706344,1.099159833362562,2.243557291410413,1.1091844670685198,2.175328621580519,-0.9271005480825991,-1.8358808331080998,-0.024797446183437,0.009152551311777958,0.6320681044777077,0.41561259064840606,1.080912711568709,6.10444362044536,1.2651625617332332,0.777982976333551,1.026476442733132,1.5955319786037587,1.6624721312479265,1.7820254551557626,4.091116975077821,1.162966830113064,Stress
83.71319515246002,717.1829268292682,68.91686314608214,,,,,,,62.85177546428061,63.24079740792429,0.09609384240471247,0.08763702134147852,725.5,79.31909999999999,0.10933025499655409,99.75,1.096498271321681,653.6,773.8,41.46341463414634,62.19512195121951,581.0,864.0,13.666666666666666,171.875,,,0.04038820318657976,0.016071130453251235,0.01262084309189972,0.06908017673173071,2.513090370591144,0.5846569174746796,0.23264460534984788,-4.130730756140499,44.71799669478789,87.20114129534014,0.512814351171543,12250.51598295386,1.9500234299517238,4.79512449121992,680.1770745777764,0.6463414634146342,0.6582278481012659,0.9038461538461539,0.3333333333333333,49.40072954663886,49.35287713079308,49.447768233713795,51.89873417721519,0.5500378150997882,0.4499621849002118,33.166247903554,29.99770824579771,0.4965749944739851,0.5034250055260151,61.44896781770961,61.871345527214494,0.5077077918722845,0.4922922081277156,49.375984273034554,48.620602101105064,1.127767847741505,2.8948554970586597,1.6324838461423172,2.490443431315478,-1.4631151452979108,-2.296495410437683,-0.20362610981967935,0.013842957845893527,1.0179570031687255,0.44628665413942903,1.1249295969854831,6.144018163101902,1.203422586644412,1.138295487261315,1.2817032474901444,1.6844960015957302,1.617589278804306,1.7737683999365543,3.7282323709535112,0.8528423420829138,Stress
84.26204280081551,712.7560975609756,65.4289853417777,,,,,,,59.89105335194012,60.26395898948575,0.09179715973763426,0.08402741633061442,719.5,77.09519999999999,0.10715107713690061,86.5,1.0924667655667168,649.6,764.6,40.243902439024396,58.536585365853654,581.0,851.0,13.666666666666666,171.875,,,0.03770084736908641,0.015686404313058042,0.009963663859920315,0.06335091554206476,2.4034091316709585,0.5951113262767795,0.24761132777382405,-4.154960909115323,42.613054062613365,82.66214798731365,0.5155086711411526,11066.21796559996,1.9398315799157286,4.750969329999066,641.4025805178336,0.6463414634146342,0.6625,0.9245283018867925,0.23809523809523808,50.197405527354775,50.14924971224273,50.240201129689,48.75,0.5689917464600643,0.43100825353993577,32.1438174459724,27.976105876265194,0.49603017747036804,0.503969822529632,58.21846301372561,58.682546589220266,0.5113488563957255,0.4886511436042743,47.02453846493624,45.9690318268506,1.1429265589840163,2.5548730165846845,1.6430590677938153,2.1397639171490637,-0.7493798061536019,-1.085582147104506,-0.3055853084944175,0.008441182316189568,0.6857901419579642,0.49197473720525275,1.1657515915057386,6.080053376542921,1.2457641350869617,1.1381186786069473,1.0223584232682128,1.3567579702971042,1.6606078121265477,1.7685903639194043,3.5303750683581585,0.8528423420829138,Stress
82.98004960964238,723.5975609756098,65.28548129601091,,,,,,,61.176530640716855,61.55318386927231,0.0902234678734793,0.08454496524039407,726.0,59.303999999999995,0.08168595041322313,76.75,1.0671654736262421,675.6,773.0,41.46341463414634,65.85365853658537,581.0,851.0,13.666666666666666,195.3125,,,0.05605068773929481,0.06769771525450591,0.018484654915114095,0.1422330579089148,0.8279553826680158,0.3940763741098032,0.4759632974906517,-2.692702847720449,43.52467371758486,81.22882440107234,0.5358279408634439,11106.96912655208,1.86627072561498,4.752565674645909,606.3799082233643,0.6219512195121951,0.6329113924050632,0.88,0.25,50.799147575919015,50.84651488847594,50.7532496549856,50.63291139240506,0.5758342459788619,0.42416575402113815,33.0305729590027,28.34883154558579,0.4519804287869796,0.5480195712130203,54.60972414953921,60.13235353693949,0.4796112238567164,0.5203887761432835,45.1289304199023,47.00827688764756,1.1058587712527765,1.8636911577799489,1.3726501158263065,1.728235257483824,-0.619584411384734,-0.8283995251234484,-0.309203826410222,0.0021906692348306915,0.26540318703650106,0.5349942745575511,2.159484249353372,6.006882644835602,1.3609011535529123,1.159212465825019,1.3135027593424335,1.5994655296302254,2.1139223201865645,1.7814835881152762,2.7813456249634574,0.9303734640904512,Stress
80.81221572749435,743.4303797468355,65.01472881335779,,,,,,,68.00131974586587,68.43616362354403,0.08745234333240139,0.09146965418473045,734.0,57.8214,0.07877574931880109,71.0,0.9560803975030256,692.6,796.2,43.037974683544306,69.62025316455697,614.0,930.0,11.285714285714286,164.0625,,,0.05305598316699818,0.04290187766447651,0.014445052878036551,0.11040291370951125,1.2366820767597648,0.4805668744087448,0.388593708471849,-3.1488396856032583,48.39167537660011,78.25123477783428,0.6184142079545524,11896.295137376443,1.6170391739665377,4.78238184010111,506.141248188043,0.6455696202531646,0.6623376623376623,0.9019607843137255,0.21052631578947367,50.83081570996978,50.76140113914304,50.89580988400853,48.05194805194805,0.5351885019102488,0.4648114980897512,35.404435117284756,32.99458830085408,0.564334751844041,0.4356652481559589,58.784062558759615,51.64968280002869,0.5562708511683935,0.4437291488316066,48.523396608678325,43.33781599530851,1.0597900723078746,1.33665066576288,1.3520933359913432,1.4010297835153693,0.2668089080823961,0.04241978316159045,-0.46338875311441513,0.0009258109463929561,0.13774330461742096,0.5387551291536861,2.0794415416798357,5.996633121512667,1.3616140345061472,0.8664339756999316,1.4907948428409463,1.8361534702849212,1.9254935974292704,1.8570099198586778,3.6499115537275575,1.0373310091937005,Stress
80.67747592204067,744.9493670886076,66.6021287744363,,,,,,,70.5380421093142,70.96228355715229,0.0894049068525678,0.09468837108351298,736.0,68.19959999999999,0.09266249999999998,95.5,0.9442015511462829,688.8,807.4,40.50632911392405,72.15189873417721,614.0,930.0,9.875,125.0,,,0.05917547730238549,0.04490836888829237,0.0065244113266615545,0.11060825751733941,1.317693756582029,0.5350005382112533,0.40601280497753384,-3.10313111210803,50.17791191174502,79.15683711344751,0.6339049631282018,12478.169771948418,1.5775235377006485,4.8031210000971996,499.48709486559875,0.6075949367088608,0.6282051282051282,0.8775510204081632,0.09523809523809523,52.02044790652387,52.043272737901184,51.9975453937345,51.28205128205128,0.6220052667109854,0.3779947332890146,39.59199381220873,30.86407149244748,0.5126955408017028,0.4873044591982975,56.6784810327604,55.257168309857136,0.5440494833646541,0.45595051663534597,48.88750446794638,44.75458389212656,1.056936167084357,1.0450317282751227,1.2379559096537882,1.4814018921187757,-0.014076710548515337,-0.8076957397514413,-0.26704441034837545,0.0007494353050223926,0.09360585018575728,0.49331228151268647,1.8325814637483102,6.015744197516804,1.34910594360445,0.9446229032009059,1.398052674749774,1.674643770233797,1.9590793075458635,1.859311166882231,2.518693656250929,1.1171257022086005,Stress
80.18433060669045,748.7692307692307,65.99703320307961,,,,,,,69.27931420433791,69.72905036495449,0.08814068539552444,0.0925242536117108,738.0,62.2692,0.08437560975609756,96.0,0.9526224957773503,695.8,807.6,39.743589743589745,75.64102564102564,614.0,930.0,8.666666666666666,125.0,,,0.041040131816915446,0.04699044035833442,0.006850363756985459,0.09488093593223533,0.8733719348862496,0.43254349689622174,0.49525692275943967,-3.057811094591161,49.30588435875762,79.69267160185011,0.6187003568545563,12344.31546361868,1.6162912933878903,4.798437121717322,515.2262850275629,0.5512820512820513,0.5714285714285714,0.8409090909090909,0.08695652173913043,50.75067683977357,50.64951985754186,50.84791866512594,54.54545454545454,0.6297572049754987,0.3702427950245014,39.13034897015763,30.003398930261568,0.4778858034500114,0.5221141965499886,55.09097401747627,57.58390824567295,0.519931498086355,0.48006850191364514,47.78179375410974,45.91356246369096,1.0403527696076182,0.5317365388022708,0.5392432053004708,0.8051114747016062,1.0,-0.6889097864460378,0.0,0.0013259899111168632,0.04529883718204073,0.5626057775500528,3.1135153092103742,5.907071770088826,1.4413749081222365,1.4381431597064083,1.3236381744187793,1.7134255310204323,2.0592084298910494,1.8706128485105238,3.4626222468092105,1.0475670364770413,Stress
80.29208650891367,748.6835443037975,66.98862213069593,,,,,,,77.66702431963431,78.1546459569019,0.08947521638530041,0.10373812128040967,732.0,60.7866,0.08304180327868853,94.5,0.8625104761965385,696.6,807.4,45.56962025316456,81.0126582278481,614.0,930.0,8.777777777777779,125.0,,,0.048585329819311324,0.041198948225690445,0.019969401572315686,0.10975367961731747,1.1792856835363323,0.4426760905758762,0.37537646454624995,-3.1893425514551734,55.263680137359124,77.09630714950343,0.7168135826556911,13385.150267125808,1.3950628506440184,4.83359336107811,430.2167761044522,0.5569620253164557,0.5769230769230769,0.8,0.045454545454545456,51.247641014887826,51.19436997514608,51.29559105342037,57.692307692307686,0.6159499605746116,0.38405003942538835,43.380676768385214,34.25449065261561,0.4629721134616976,0.5370278865383021,52.457911067750764,56.49785962758701,0.5149091277071336,0.48509087229286674,48.13374881761842,46.71925872896881,0.8502594622031351,0.8096325278837027,0.9965377733278948,1.1754201715963846,0.29543839751914813,-0.5111400002852671,-0.27905729808550284,0.000531369130606799,0.05929201964255427,0.5303838526317746,2.7300291078209855,5.939794830428197,1.4928096817054277,0.9204700895630475,1.499640976701972,1.9501061824236756,1.9252654909181317,1.9173754999308077,3.1386693466768856,1.0373310091937005,Stress
79.39019270550385,756.6538461538462,62.043936447891916,,,,,,,81.25133365538821,81.7688379344042,0.08199778110329842,0.10738243659025534,742.0,51.891,0.06993396226415094,87.25,0.7636051453756962,708.4,808.6,51.28205128205128,85.8974358974359,633.0,930.0,11.142857142857142,70.3125,,,0.057720980347762976,0.052129812454567104,0.026159129824220653,0.13600992262655073,1.1072547095401266,0.42438800958846484,0.38327948026044056,-2.9540182778574122,57.81929979316101,65.91204862904127,0.8772189758290332,11972.573473459433,1.139966220013572,4.785157620869177,300.55003571599565,0.6153846153846154,0.6363636363636364,0.8571428571428571,0.15789473684210525,48.80788177339902,48.77079353248156,48.846219686145226,58.44155844155844,0.5906101660906052,0.40938983390939465,44.44311858402473,37.00177805116084,0.46858243798342497,0.5314175620165752,45.11882842888955,48.04882387407135,0.5216601977304548,0.4783398022695452,44.782247979915304,42.88252006720744,0.8199068513642639,0.5483235147769469,1.04173491759197,1.0940686087527374,0.6638543425170544,-0.3251282753189496,-0.4045569089225431,0.0010807855746736703,0.05184585923447476,0.5344346837740832,2.240709689275958,5.846111673907243,1.5787263463020362,1.0495010306434214,1.1670802272880048,1.5405959081959042,1.9039832584878038,1.938127476888174,3.7796486481318436,0.9669849567480383,Stress
79.43727948730779,757.2307692307693,66.29233233695528,,,,,,,88.29113588194839,88.8396337198692,0.08754574567050169,0.11659739602451534,751.5,65.9757,0.08779201596806388,96.5,0.7508379145285083,702.8,811.4,60.256410256410255,92.3076923076923,627.0,930.0,15.6,78.125,,,0.020176190921095988,0.06900254891718122,0.02693933711970991,0.11611807695798712,0.2923977626581884,0.17375581347593252,0.5942446751176145,-2.67361183423846,62.81910744144857,68.84841989032424,0.912426277052104,13587.376559730883,1.0959789575885868,4.840105721542159,301.8256778520755,0.6153846153846154,0.6363636363636364,0.8775510204081632,0.09523809523809523,51.53554175293307,51.42603916896755,51.64175290521774,58.44155844155844,0.6172547647607624,0.3827452352392377,49.37111077287373,38.87725285399785,0.4486140510273634,0.5513859489726366,46.11374709434792,51.12364668441516,0.5252568517027291,0.47474314829727104,47.77020122434513,45.41512985661605,0.594261357475589,0.6770916474690882,0.5918451677411292,0.8892662199184297,-0.0705232606654862,-0.9834413380820795,-0.0607373783312267,9.700669040563682e-05,0.027660719575831827,0.4751544489897599,1.5260563034950494,6.0033509368109685,1.6214016598046264,0.728087666153735,0.8452171685542839,0.9846804896948219,1.7286699718308016,2.034866797720191,3.6807533098115757,1.0475670364770413,Stress
80.72055347842286,745.2405063291139,60.965567244830375,,,,,,,90.1320256694703,90.70369162090194,0.0818065667755138,0.12094354091599269,736.0,59.303999999999995,0.08057608695652173,87.0,0.676402941041197,697.8,802.8,60.75949367088608,91.13924050632912,627.0,875.0,11.285714285714286,117.1875,,,0.019914837051832602,0.06881592528755523,0.03468967077511082,0.12342043311449866,0.2893928544681507,0.1613576986345313,0.5575731955478866,-2.6763200886255585,64.13719542379317,57.7284001321549,1.1110163329828457,11631.86517757453,0.9000767768329829,4.772619469692817,207.83996929069892,0.6582278481012658,0.6794871794871795,0.9245283018867925,0.13636363636363635,50.94339622641508,50.89310734350121,50.98968597709293,57.692307692307686,0.5846730476363319,0.41532695236366785,49.04814756156219,41.3391107538863,0.35558210926988765,0.6444178907301124,34.42385253536599,46.341844573145316,0.4821566602332173,0.5178433397667829,42.37170283690167,43.9117788091284,0.4947545001908511,1.0775373972425057,0.6229406022948665,0.9231992676946478,-0.7287685781754929,-1.4940187678590848,-0.2213473368366013,0.00015426307839465798,0.06330520423411944,0.4531945913933333,2.277267285009756,5.965111286124399,1.7059626433293882,1.4686382810147134,1.0065396657021222,1.1842635037186762,1.8320556105807526,2.046480167490122,4.894421134485048,1.0373310091937005,Stress
81.40740972521495,738.3037974683544,58.77539918619794,,,,,,,86.76788960592891,87.32509182171906,0.07960869141908646,0.11752328770819848,730.0,59.303999999999995,0.08123835616438356,73.5,0.6773865245903338,690.0,793.4,59.49367088607595,87.34177215189874,594.0,871.0,11.285714285714286,156.25,,,0.014414313939853837,0.07898739432309665,0.02385436418478168,0.11725607244773216,0.1824887890451522,0.12293021281502614,0.6736315883197087,-2.5384670047774716,61.74816459487546,56.17281917783382,1.0992534378484908,10896.829268910373,0.9097083216380436,4.744270256403437,204.40352422377805,0.6582278481012658,0.6794871794871795,0.9245283018867925,0.13636363636363635,50.594197832925545,50.55167687769103,50.629973032236194,53.84615384615385,0.5531285547888753,0.4468714452111247,45.92604161803299,41.27977083898941,0.42823168866696565,0.5717683113330345,36.75916362002545,42.47528109785516,0.4965752423497484,0.5034247576502516,41.595897686821836,41.88179189612887,0.5857308436200469,2.2126872099670454,0.817972030297458,1.476504668555072,-1.9140153620404714,-2.39831504319345,-0.20238331234019216,0.002387781430299873,0.3497838156622314,0.4636026499982697,2.427748235948052,6.031505115210938,1.7346786680192634,0.9317578050195782,1.136345612239438,1.368081958623397,2.0347523487933135,2.0060995485852757,5.415413630132951,1.1969203952235006,Stress
81.90118320850884,735.0125,64.88324348250576,,,,,,,98.19587761075734,98.7878038272178,0.08827502046904748,0.13359756141665255,729.5,65.2344,0.08942344071281699,87.75,0.6607532318179293,684.8,793.2,65.0,86.25,584.0,889.0,13.333333333333334,109.375,,,0.027530303284190896,0.06399605745405118,0.03129724818030711,0.12282360891854918,0.43018748934584766,0.22414504447958122,0.5210403603796592,-2.748933799800414,69.85352598475208,57.466290586015084,1.2155565510217836,12611.053557977537,0.8226684304892363,4.807721480064046,189.10281232974162,0.65,0.6708860759493671,0.9433962264150944,0.13043478260869565,51.62754303599374,51.45800766425565,51.79908324665672,50.63291139240506,0.5690500320314222,0.4309499679685777,52.713242144985706,45.87308299634704,0.4556867358726333,0.5443132641273669,38.79237400587693,42.39724369230256,0.5233139585770451,0.47668604142295506,46.27922956601446,44.169367305261645,0.5511085597143022,0.8759443025973069,0.6778904848637681,0.9081971844055547,-0.1895467001894131,-1.0261376176371124,-0.23707609164316445,0.00019744789116291292,0.049554337193898505,0.4526783869940183,2.0794415416798357,5.968619813556232,1.688792213970292,1.5367633020454652,1.2049402508377078,1.4158335216653284,1.9519181324539772,2.0361501080173188,4.626219774686866,1.3434097201635646,Stress
81.94176333020071,732.8765432098766,63.47763045279206,,,,,,,94.82444305135675,95.41077082737262,0.08661435686667043,0.12938665308626413,725.0,59.303999999999995,0.08179862068965517,86.0,0.6694226552790054,684.0,793.0,64.19753086419753,87.65432098765432,584.0,871.0,13.5,156.25,,,0.03156866762263272,0.07185730613954337,0.0210813300283512,0.1245073037905273,0.43932439606527846,0.2535487209308159,0.5771332600731363,-2.6330729856206037,67.4656030502708,58.29962980536873,1.1572218087062018,12356.574059266635,0.8641385709089089,4.798868186426788,201.51583513811906,0.6296296296296297,0.6499999999999999,0.9615384615384616,0.1111111111111111,49.06132665832288,48.92224849816249,49.189931099702875,52.5,0.5284026613506382,0.47159733864936165,49.04776798493278,46.336414310337396,0.42370345079809263,0.5762965492019072,37.948690793114224,44.25769653440682,0.48364979856756674,0.516350201432433,43.85080773038958,45.30897810407384,0.4884607647143491,2.1243325456240565,0.7090759652773455,1.466716722524476,-1.8959919631520545,-2.7294750621607333,-0.14335115102020834,0.0032281204211389923,0.3824378915300449,0.44246942959578117,2.8903717578961645,6.000223150979352,1.691592576788082,1.5629141102010498,1.104673562696589,1.0986122886681096,2.248145474672656,2.030601313457754,7.269082569238138,1.1740462968304861,Stress
82.71209025791738,727.679012345679,66.54487718083448,,,,,,,99.99962499929687,100.63049340300209,0.09144811936560675,0.13742271427747696,729.0,69.6822,0.09558600823045267,92.0,0.6654512672552759,674.0,794.0,71.60493827160494,87.65432098765432,584.0,871.0,11.571428571428571,164.0625,,,0.019544554342630322,0.07863264245395156,0.017948499028986823,0.1161256958255687,0.24855522760888904,0.16830516453471256,0.6771338754522075,-2.5429683673631565,71.15650427941091,61.43698789013551,1.158203009669945,13733.91616619277,0.8634064940696119,4.844764502031846,212.18037728167644,0.6419753086419753,0.6625,0.9433962264150944,0.16,50.05839416058393,49.99384899938716,50.11947672931648,52.5,0.5500303752278142,0.44996962477218566,52.772559516994086,47.73164701309057,0.4369973949126178,0.5630026050873822,40.613399122594245,46.09832201633286,0.5017552987826147,0.4982447012173854,47.08710665493168,46.92209191470366,0.5307963564021938,2.486152102308401,0.7685576488966233,1.6567712197090205,-2.570151164755176,-3.3269179592011593,-0.14273562748325505,0.0038456275768137243,0.49287728989107016,0.47792336007389213,2.917770732084279,6.0002231509793535,1.6909269281877952,1.4609082018994815,1.129276822714905,1.131802161129595,1.943802224741021,2.023802932476883,4.858764545620875,1.1740462968304861,Stress
83.08582451944079,723.7073170731708,65.51721813176582,,,,,,,94.56058218784244,95.14920219850687,0.09052999270026955,0.13066135985783028,721.0,70.42349999999999,0.09767475728155338,91.75,0.6928597161301033,672.0,790.4,74.39024390243902,85.36585365853658,584.0,860.0,11.714285714285714,164.0625,,,0.02383533528319762,0.08015437001037677,0.010213301845709002,0.11420300713928339,0.29736788250112756,0.20871022471525424,0.7018586639546148,-2.523800878513621,67.28064609905415,61.45439817910151,1.094806036550431,12989.516802915554,0.9134038054364857,4.820563106013226,224.5307246304014,0.6219512195121951,0.6419753086419753,0.9230769230769231,0.16,49.802371541501984,49.78199822130565,49.81601928374514,51.85185185185185,0.5409331775920296,0.45906682240797053,49.4839620483243,45.585907910230326,0.43238909410439613,0.5676109058956039,40.41013820252691,46.29971691067052,0.49156385670128244,0.5084361432987177,45.17544559573997,45.94419868714781,0.462379615999057,1.010833075491151,0.5767774906229206,0.8979592914733701,-0.7028141229698868,-1.561984551402746,-0.1822602973350558,0.00017756528213593435,0.05953805603384086,0.5139988375986677,2.0243817644968085,5.997676699687268,1.6588873840976077,1.173175521672956,0.9860336771012393,1.3076578791348987,1.8506302607653218,2.006914007553726,3.592102740898135,1.2404979521206017,Stress
82.50975832174512,728.2469135802469,66.68986633368624,,,,,,,96.11653083627186,96.72291021655363,0.09157589972585248,0.1319834372709368,729.0,72.64739999999999,0.09965349794238682,95.0,0.6938438763180915,672.0,791.0,77.77777777777779,87.65432098765432,584.0,854.0,13.5,187.5,,,0.012756320795719178,0.07482412699859792,0.010416865589037944,0.09799731338335503,0.17048405784885684,0.13017010727444958,0.7635324318116142,-2.592614892553697,68.39342571022266,65.41788685738844,1.0454850958319843,14055.967405037465,0.9564937883731496,4.8548308513468115,250.28720971035818,0.6172839506172839,0.6375,0.9215686274509803,0.16,49.9477065590916,49.901078300173154,49.99293154558961,52.5,0.5462059802102912,0.45379401978970907,50.546694792344034,46.072727318139584,0.4371202071718166,0.5628797928281837,43.25107966293435,49.079975844295014,0.49408763871477995,0.5059123612852201,47.040537020956045,47.60010625727755,0.463608841252867,0.8310039180778825,0.5786366064696562,0.69380585152903,-0.042434356850324484,-0.5750611562156038,-0.3614095041504004,4.5566362612473255e-05,0.03220865247110049,0.40623934484007007,1.5475625087160125,6.009542749771494,1.6452412353802794,1.4985251387732097,1.3899844893644702,1.4396065574153507,1.7557708774125735,2.0344913649716756,5.275072556097606,1.1740462968304861,Stress
82.61748319806087,729.1481481481482,71.22536611192517,,,,,,,101.46310905940149,102.05127077645142,0.09768298293401634,0.13915294075297607,726.0,77.09519999999999,0.10619173553719007,88.0,0.7019828859199094,668.0,794.0,80.24691358024691,90.12345679012346,584.0,926.0,13.5,187.5,,,0.009957639876193348,0.07749975546077958,0.017891677300186776,0.1053490726371597,0.12848608123973534,0.09452043218727867,0.735647248910316,-2.5574804979725934,72.16114559473334,67.23955791596325,1.0731948250599914,15243.269967737531,0.9317972623881224,4.8900482512837025,250.61454396112862,0.6172839506172839,0.6375,0.9411764705882353,0.15384615384615385,51.819075712881016,51.61752773635564,52.03592233014861,52.5,0.5877976786739859,0.41220232132601425,55.35266679681284,46.35321189696089,0.46835712926698253,0.5316428707330174,46.01648238950001,49.026946643973375,0.5323193068002654,0.4676806931997346,50.89908826797466,47.708813391215095,0.4547191611075697,0.8733580723750847,0.5485648907326013,0.7619433001369622,-0.42823021356749447,-1.1055418383382918,-0.25568049789236913,5.538080063654619e-05,0.035603661827462454,0.4609968584234485,1.3217558399823195,6.10830818187026,1.614357537749072,1.295041597708437,1.3355807013023482,1.509039081918831,1.6612614659518925,2.0504199614578438,4.1017455380955505,1.0957765437084537,Stress
