PPG_Rate_Mean,HRV_MeanNN,HRV_SDNN,HRV_SDANN1,HRV_SDNNI1,HRV_SDANN2,HRV_SDNNI2,HRV_SDANN5,HRV_SDNNI5,HRV_RMSSD,HRV_SDSD,HRV_CVNN,HRV_CVSD,HRV_MedianNN,HRV_MadNN,HRV_MCVNN,HRV_IQRNN,HRV_SDRMSSD,HRV_Prc20NN,HRV_Prc80NN,HRV_pNN50,HRV_pNN20,HRV_MinNN,HRV_MaxNN,HRV_HTI,HRV_TINN,HRV_ULF,HRV_VLF,HRV_LF,HRV_HF,HRV_VHF,HRV_TP,HRV_LFHF,HRV_LFn,HRV_HFn,HRV_LnHF,HRV_SD1,HRV_SD2,HRV_SD1SD2,HRV_S,HRV_CSI,HRV_CVI,HRV_CSI_Modified,HRV_PIP,HRV_IALS,HRV_PSS,HRV_PAS,HRV_GI,HRV_SI,HRV_AI,HRV_PI,HRV_C1d,HRV_C1a,HRV_SD1d,HRV_SD1a,HRV_C2d,HRV_C2a,HRV_SD2d,HRV_SD2a,HRV_Cd,HRV_Ca,HRV_SDNNd,HRV_SDNNa,HRV_DFA_alpha1,HRV_MFDFA_alpha1_Width,HRV_MFDFA_alpha1_Peak,HRV_MFDFA_alpha1_Mean,HRV_MFDFA_alpha1_Max,HRV_MFDFA_alpha1_Delta,HRV_MFDFA_alpha1_Asymmetry,HRV_MFDFA_alpha1_Fluctuation,HRV_MFDFA_alpha1_Increment,HRV_ApEn,HRV_SampEn,HRV_ShanEn,HRV_FuzzyEn,HRV_MSEn,HRV_CMSEn,HRV_RCMSEn,HRV_CD,HRV_HFD,HRV_KFD,HRV_LZC,Labels
77.1198953204865,778.25,41.05609983100359,,,,,,,43.26599896762661,43.5265601838859,0.05275438462062781,0.05559395948297669,776.5,40.0302,0.05155209272376046,54.25,0.948922960538215,743.0,813.0,10.526315789473683,53.94736842105263,680.0,887.0,9.5,117.1875,,,0.053830233156068344,0.02795638312726778,0.014088027624163064,0.0958746439074992,1.9255077779916394,0.5614647519108836,0.29159308434292985,-3.577109728808573,30.7779258677501,48.630965554991924,0.6328874106549746,4702.211014157529,1.5800598703094773,4.3792722243780915,307.3593485113808,0.5657894736842105,0.5866666666666667,0.9090909090909091,0.0,47.39316239316239,47.42000024699919,47.3683156568517,44.0,0.4049474343998405,0.5950525656001596,19.59953805302288,23.758782160071455,0.6053568205858664,0.3946431794141335,37.837167055830314,30.550279867785164,0.5479832356358236,0.45201676436417665,30.13132176575318,27.366031222390735,0.9101337294945785,1.5114954761014219,1.1105144722169302,1.1670111878768823,-0.3818851856412486,-0.11597014495749658,-0.4626219750219344,0.00018959762664250688,0.10463906072152704,0.702205458137485,2.0949457282158015,5.823392480463448,1.2220814355702347,1.2039137083275393,1.2233999352064697,1.5605668745825354,1.8134073870208398,1.8741072808156463,2.555512068117859,0.9043052979984136,Relax
77.35472041348012,775.921052631579,42.19281555206439,,,,,,,45.92544683143177,46.234712593987744,0.054377717177495226,0.05918829844308656,773.5,43.7367,0.05654389140271493,59.5,0.9187241162167041,737.0,813.0,13.157894736842104,56.57894736842105,689.0,887.0,9.5,78.125,,,0.05324676912191597,0.03172673239508829,0.019413704514236064,0.10438720603124031,1.678293511567528,0.5100890343399039,0.30393315044367913,-3.450595660250405,32.6928788014198,50.11836979582427,0.6523132922041628,5147.542883771921,1.5330057074584607,4.4185700833398505,307.32698778204934,0.6052631578947368,0.6266666666666667,0.9148936170212766,0.041666666666666664,50.000000000000014,50.02011556885036,49.97942643823679,44.0,0.43615111324643147,0.5638488867535686,21.590945299335992,24.54904082454965,0.5947455438805292,0.4052544561194707,38.65116018677555,31.90515330173493,0.5474054277747596,0.45259457222524035,31.305599360998524,28.465718088716933,1.0791907435840196,1.20379443965704,1.2378543950563432,1.4146418590503336,-0.20845835530217904,-0.5366687840923188,-0.35314148481666274,0.0003534404275709897,0.0832163707971075,0.5751227263666259,2.2823823856765264,5.754377842334019,1.255395878193553,1.2086992808754211,1.279427589031751,1.6580319092885092,1.8143509106675053,1.8693730154172172,2.9598401617264276,0.986514870543724,Relax
77.6607181702513,773.2368421052631,46.71213073597411,,,,,,,53.2785134927768,53.63447190545067,0.060411155020488584,0.06890322678846675,769.5,48.925799999999995,0.0635812865497076,65.0,0.8767536418279964,732.0,817.0,19.736842105263158,63.1578947368421,675.0,887.0,9.5,93.75,,,0.04337939597485225,0.02347149898772575,0.016846213936330137,0.08369710889890813,1.8481732247922125,0.5182902557273176,0.2804338082462959,-3.75196840291303,37.925298789703525,54.15796381923018,0.700271873519683,6452.696095339974,1.4280168000662852,4.516711321446589,309.35392876497093,0.618421052631579,0.64,0.8958333333333334,0.13043478260869565,49.31092436974789,49.35677344834035,49.2645406357266,48.0,0.4485074802132507,0.5514925197867494,25.40017556866328,28.165773747774278,0.5518229712564122,0.4481770287435877,40.231128551216464,36.25660409553742,0.5178266227428943,0.4821733772571055,33.64307226921632,32.464227630973696,0.9185328948782562,1.0978511695230169,1.1230287246861796,1.1793865516544766,0.08098015805532377,-0.2132714739240904,-0.4486653304811956,0.00021259377690556195,0.068742461176152,0.46387993925980187,2.8622008809294686,5.912272579176126,1.3296271514927664,0.8888370153723535,0.9902032923993946,1.163490087539381,1.9327753573695834,1.8828106713556212,3.1383146943432885,1.0687244430890344,Relax
78.9356207133542,759.8589743589744,56.24176115339648,,,,,,,69.82361822719919,70.22937227404809,0.07401605172965506,0.0918902330344959,754.5,48.925799999999995,0.06484532803180913,66.5,0.8054833390385373,717.4,806.6,28.205128205128204,67.94871794871796,614.0,887.0,11.142857142857142,125.0,,,0.050235201266583485,0.019587658131058942,0.016612964893732537,0.08643582429137497,2.564635390839736,0.5811849621198814,0.22661504407048852,-3.9328555982727793,49.659665373453905,60.08357417104499,0.8265098416429678,9373.664838208639,1.2099069480070095,4.678879530927635,290.7821354025673,0.6153846153846154,0.6363636363636364,0.8775510204081632,0.19047619047619047,47.32627228106433,47.125774929699574,47.50519079980721,50.649350649350644,0.47683410539662924,0.5231658946033706,34.31702048163334,35.945591194411996,0.4772248778461522,0.5227751221538477,41.506613139586186,43.44234053142389,0.4770661372673042,0.5229338627326959,38.081864640902964,39.87055603552567,0.7523671332342523,1.5845459127654626,1.0958084434764912,1.1783658176121965,-0.1496375487940007,-0.29200937719364317,-0.44789840201498465,0.0008693102879323979,0.17197940876206752,0.5698975177265475,2.3025850929940455,5.96803186627041,1.3210740285211198,1.3542718314128441,1.0970594736682902,1.3950881089226095,2.0082878472087455,1.901115837288255,3.069271724520917,0.8864028770190351,Relax
80.03621584078468,750.7948717948718,57.95976189852749,,,,,,,76.9503972463017,77.45480899707746,0.07719786598963738,0.10249190576161218,739.5,47.4432,0.06415578093306287,73.0,0.7532093916683852,707.4,798.0,37.17948717948718,70.51282051282051,643.0,887.0,9.75,93.75,,,0.05166483739514799,0.052111557404595256,0.021491833768529388,0.12526822856827263,0.9914276212092661,0.41243368718182244,0.41599979500144246,-2.9543685236414636,54.76882067734229,61.65123057192067,0.8883654092427312,10607.79240070914,1.1256629193300416,4.732595121766391,277.5940167435109,0.5897435897435898,0.6103896103896104,0.8085106382978723,0.14285714285714285,50.14836795252226,50.1504589717628,50.14213629682342,49.35064935064935,0.49639978506179455,0.5036002149382053,38.587818503280346,38.866674942071285,0.5474303938071582,0.45256960619284187,45.61484492032605,41.47481348875157,0.5249213014831099,0.47507869851689016,42.247685226219794,40.191905745929496,0.7097434887443105,1.9499050873444763,1.1048779907119726,1.356812632960264,-0.4340363745172571,-0.6883615300621426,-0.37079645882077544,0.0021185994138552644,0.30504320298661897,0.5552309275230778,1.9095425048844386,5.9583538213708795,1.3763886710157698,1.0717439406543559,1.3489378675137291,1.5848745844305117,1.9324956297165803,1.944865446529746,4.279531399160253,1.1281491162060446,Relax
80.66153230375588,744.3417721518987,56.53110921996602,,,,,,,77.0604158586475,77.5565105004881,0.07594778545953974,0.10352826986434625,733.0,41.5128,0.056634106412005454,64.0,0.7335946554410173,705.6,794.4,35.44303797468354,65.82278481012658,643.0,880.0,9.875,93.75,,,0.04813953698309364,0.08255462259036365,0.02707193240966627,0.15776609198312355,0.5831234578100151,0.3051323410371551,0.523272279566858,-2.494295112723307,54.84073450006081,58.594132763207554,0.9359424214312533,10095.02191921557,1.0684417941766002,4.711077376221541,250.41768135097357,0.5569620253164557,0.5714285714285714,0.75,0.14285714285714285,50.57977736549165,50.56952462159653,50.584209617476475,48.05194805194805,0.49276103871430166,0.5072389612856981,38.497849492983576,39.059312207588476,0.5582015237296308,0.4417984762703694,43.77736723310034,38.94630293635926,0.5276431184070034,0.4723568815929965,41.2222166886143,39.0028485020039,0.6841849059860412,2.3074908138764285,1.1732041645313165,1.5096475145204,-0.7366743169158401,-1.0148994105533764,-0.3541951508687129,0.0036362209536763283,0.45846274641275864,0.5604753167455079,1.69644928942373,5.854289925337522,1.2828964287641276,1.2978451015760788,1.313376846038218,1.5422488059705224,1.9359825116131437,1.8989927393339876,4.8796813973330515,1.0373310091937005,Relax
81.25313695276029,739.1518987341772,53.431501466014325,,,,,,,71.11321778396575,71.57347323738084,0.07228757926147196,0.09620920666746519,731.0,45.9606,0.06287359781121751,64.0,0.7513582303128714,699.6,780.0,30.37974683544304,63.29113924050633,643.0,880.0,8.777777777777779,93.75,,,0.046373176903351944,0.06455582407458435,0.01614719241842785,0.12707619339636414,0.7183422652892612,0.3649241896844445,0.5080087965275123,-2.740224939972068,50.61008827922587,56.76668002187514,0.8915456789039483,9025.691038596366,1.1216475203260294,4.6624505729228645,254.6888235347096,0.5316455696202531,0.5394736842105263,0.7560975609756098,0.14285714285714285,49.93518278454757,49.92309403493799,49.94479406153829,53.94736842105263,0.5057535371767992,0.4942464628232008,35.99206261703504,35.58025499423164,0.5014518303487154,0.49854816965128484,40.19833876809005,40.08178540174862,0.5033568486411377,0.4966431513588622,38.15321094706645,37.897915948283845,0.8063991882285574,2.373159846690798,1.2849447408520127,1.6593621218394052,-0.9143776052264325,-1.1871645532248283,-0.3422283347202715,0.0032856109940055927,0.46266820349703086,0.5206029935786587,2.0583881324820035,5.835178849333383,1.310394617277245,1.0825232778075218,1.13845537171723,1.6112000993147437,1.7697051574153109,1.8355717048151303,4.244991047111978,1.2767150882384006,Relax
81.6658204840019,735.375,58.58810848368637,,,,,,,79.21130209601932,79.70992118435343,0.07967106372080418,0.10771552214315053,729.0,49.6671,0.06813045267489712,68.5,0.7396432950018461,693.4,794.0,36.25,65.0,599.0,880.0,10.0,93.75,,,0.05383781936466922,0.09287392477241675,0.019428624719617142,0.16614036885670314,0.579687134969221,0.3240501976440452,0.5590087792119984,-2.3765123531588284,56.36342579730156,60.42203889980976,0.932828928377639,10698.986283086168,1.0720079208297966,4.736312740682711,259.0916171731286,0.5125,0.5194805194805194,0.775,0.041666666666666664,49.03153153153154,49.107291473951406,48.956521095735525,53.246753246753244,0.4748325532601679,0.5251674467398323,38.84263121880391,40.84955198574273,0.5029126451528835,0.4970873548471166,42.849095016035946,42.60020940226526,0.4898459621030456,0.5101540378969547,40.89495655758346,41.73406126027484,0.6683277763909152,3.436701897346414,1.271061700916619,2.046863080906297,-1.761431456698249,-2.0276543652202452,-0.2742599145451928,0.012221293227024964,1.1590999703357288,0.4649214798724599,1.5892352051165808,5.793619813556232,1.2829282090820964,1.1303653426677986,1.11280694902586,1.3981175016867406,1.7470223506710594,1.8842832548740989,3.0633570478953898,1.1853615177913803,Relax
82.48735698425297,727.9753086419753,53.256683925269414,,,,,,,71.90679731430124,72.36047136700877,0.07315726686474956,0.09877642340430758,727.0,48.925799999999995,0.06729821182943603,66.0,0.740634903992274,691.0,769.0,35.80246913580247,60.49382716049383,599.0,845.0,8.1,117.1875,,,0.05457121620316728,0.07043479866069793,0.02598342339946623,0.15098943826333144,0.7747763497706651,0.3614240627082337,0.4664882489188211,-2.653067838786085,51.166579993466904,55.53586408229449,0.9213250003213588,8927.0875816666,1.0853933190255332,4.65767990552292,241.11302336493006,0.5185185185185185,0.5256410256410257,0.8048780487804879,0.04,50.01230012300122,50.020873638284925,50.0050174224049,51.28205128205128,0.49435629896989475,0.5056437010301055,35.975466323804476,36.38385370087372,0.5077523932789522,0.49224760672104784,39.57304992866541,38.96416197880359,0.5016019751179492,0.4983980248820506,37.81706266932848,37.696092163757676,0.8050459496298642,2.4063548161594603,1.3024269614708102,1.7246635631782876,-1.0011683747673619,-1.429363449770325,-0.3245326919903829,0.0036726842657148623,0.49667261069454244,0.4495285418433479,1.6486586255873814,5.799424848430088,1.2487812658488957,1.4653859618441576,1.1404997327692648,1.5115088942424717,1.710119635144005,1.8504015866948318,3.646352038245782,1.2523160499525183,Relax
82.86163690141888,724.9135802469136,53.16112243239043,,,,,,,69.21154166755716,69.60230495055734,0.07333442755243068,0.09547557605967726,720.0,42.9954,0.05971583333333333,66.0,0.7680962040657686,691.0,769.0,34.5679012345679,56.79012345679012,599.0,849.0,7.363636363636363,101.5625,,,0.05672032474855768,0.04194805284436856,0.018660457794054237,0.11732883538698047,1.3521563196030983,0.48343039084534983,0.3575255196730895,-3.1713232632518187,49.216261816753104,55.0305144063072,0.8943449347642713,8508.67762042302,1.1181368185012162,4.636832179238077,246.12657719501468,0.5061728395061729,0.5128205128205129,0.825,0.043478260869565216,52.619233776387794,52.573081246536916,52.67259459686267,52.56410256410257,0.5181397582061431,0.48186024179385667,35.450178982248,34.18656927782227,0.5106059177334791,0.4893940822665208,39.32298651668985,38.497535599451204,0.5139564022747547,0.48604359772524525,37.43669629164137,36.40591824290629,0.8655439331927207,2.2785538338244473,1.388076633436489,1.541097133325676,-0.45084476987976707,-0.41572898569448613,-0.4328431491862761,0.0026982591694496255,0.4114001764338524,0.5100280134345949,1.5404450409471488,5.876766360855894,1.1595325344328928,0.7702225204735744,0.8610443931823246,1.1018200558999036,1.6582589808316335,1.8264753043011657,3.0581834905722727,1.0957765437084537,Relax
82.69584530491193,727.4814814814815,52.54191448527335,,,,,,,74.60294900337385,75.04597325150647,0.07222440133908871,0.1025496193407542,727.0,47.4432,0.06525887207702888,65.0,0.7042873664806091,692.0,765.0,32.098765432098766,54.32098765432099,599.0,862.0,8.1,117.1875,,,0.048747188047075916,0.029291602316900957,0.0164255152140658,0.09446430557804267,1.6642035324557607,0.5160381770530554,0.3100811691533729,-3.530454414384387,53.06551658688447,50.335378377992704,1.0542389527379696,8391.422862317926,0.9485515569339329,4.6308057166618495,190.98280611721438,0.5308641975308642,0.5384615384615384,0.8333333333333334,0.08695652173913043,52.04545454545455,51.91992516899768,52.18242953327269,52.56410256410257,0.5087838687652724,0.4912161312347277,37.86510032714571,37.205637928557096,0.4640402724842265,0.5359597275157736,34.28871218386377,36.85016327274342,0.487600853453269,0.5123991465467312,36.12119603510284,37.0283271759523,0.8116620021785523,2.4076982313718203,1.3602939521975168,1.5300121206608783,-0.6997668144530014,-0.6306863742940356,-0.42951019930489287,0.002591073379536581,0.43675718011748466,0.5533497122195907,1.6357552207514738,5.975531792954661,1.15977933114105,1.1854572661539982,1.036787116570341,1.2087543864030075,1.6897057268875462,1.8215618226608783,3.6959675836454373,1.0957765437084537,Relax
82.63022616283523,726.8395061728395,47.51748541066842,,,,,,,66.93466964137494,67.35019006109651,0.06537548524415093,0.0920900268531333,728.0,45.9606,0.0631326923076923,59.0,0.7099084176445386,694.0,760.0,29.629629629629626,55.55555555555556,599.0,846.0,8.1,117.1875,,,0.05045180850895688,0.04329567722681681,0.03355482931052947,0.12730231504630315,1.165285121760554,0.3963149333977646,0.34010125590464757,-3.139702482056267,47.62377610640415,47.478389487791496,1.0030621640746689,7103.455748633851,0.9969471841483586,4.5584397893061315,189.33378683101103,0.5555555555555556,0.569620253164557,0.8444444444444444,0.09090909090909091,51.04223806911683,51.04767303644583,51.035534975116036,50.63291139240506,0.46888287483957364,0.5311171251604262,32.61367655959961,34.71064842269661,0.5487871711619839,0.451212828838016,35.17207204443226,31.892362980119493,0.5087088459398427,0.491291154060157,33.917005695026425,33.3313060828686,0.6724300660532713,2.7907456860650828,1.2350250233911895,1.4835032905807408,-0.8172677705868381,-0.4652728048776049,-0.41096348605669525,0.0037954647297448164,0.592003502617383,0.5636239913181811,1.704748092238425,5.966212194162521,1.1804838942499944,1.35745364834776,0.7669456113852173,1.0587233836273708,1.758056449840364,1.8594124559663672,4.063148771285972,1.0957765437084537,Relax
81.56473734766118,736.4375,54.9816640897304,,,,,,,70.49777804201179,70.94791713501404,0.0746589684660686,0.09572812090912235,735.5,48.1845,0.065512576478586,59.5,0.7799063405511184,696.8,773.8000000000001,32.5,62.5,599.0,875.0,13.333333333333334,117.1875,,,0.04622639957453393,0.049230987940486304,0.012727567762577552,0.10818495527759778,0.9389695699467879,0.4272904624854634,0.4550631630263356,-3.0112320175586964,50.167753317229675,59.676498603358404,0.8406618097799456,9405.412746246462,1.189538989836785,4.680347968804492,283.9500874625411,0.5875,0.6075949367088608,0.875,0.09090909090909091,50.21579080985021,50.27464260814782,50.15741319500903,45.56962025316456,0.4428755173511621,0.557124482648838,33.38624006444909,37.445772757894815,0.6127128264126077,0.3872871735873922,46.71236113497986,37.13811792150835,0.5423865221955417,0.45761347780445827,40.59978884456052,37.2922626035734,0.6724680359957012,1.9257227294608457,1.1462083698872028,1.1833948821527676,-0.09059569469564366,-0.08366791995380951,-0.4806895812690666,0.0018780947176009087,0.29165623716232897,0.4792157327133655,1.8325814637483102,6.07192809488736,1.1660883050809197,1.0703338821280437,0.8916587691690558,1.1173127391379434,1.9755946817359848,1.8971254553915224,3.2922111659084585,1.0273133154191965,Relax
80.90764371601745,742.3924050632911,54.938991272958674,,,,,,,71.23183529135241,71.69251135102036,0.07400263108601571,0.09594903558486659,744.0,53.373599999999996,0.07173870967741935,69.0,0.771270191877652,700.2,786.4,34.177215189873415,65.82278481012658,630.0,875.0,13.166666666666666,195.3125,,,0.04878058738361719,0.0362974976740326,0.00837754579673311,0.0934556308543829,1.3439104761900722,0.521965203569427,0.38839283777977207,-3.3160064746870836,50.69426093660003,59.29030830869965,0.8550176644833145,9442.617056126304,1.1695664797806231,4.682062487259566,277.3758286948547,0.620253164556962,0.641025641025641,0.9,0.19047619047619047,50.22455089820358,50.26814490617168,50.178694971862015,46.15384615384615,0.45467064203956853,0.5453293579604315,34.18294934574877,37.436092730960034,0.579630960918942,0.420369039081058,45.13978604658038,38.44138882779348,0.5268576898685506,0.4731423101314494,40.03794644025265,37.94207040984087,0.8680202493573461,1.5456453609997916,1.2157740592280717,1.398551480205406,-0.2210090206573092,-0.7295235202214998,-0.3817468575979773,0.001180641577649814,0.18905521341043724,0.40885723323190293,1.897119984885881,6.117010020301616,1.2745447206197902,0.8080302629045553,0.9583282288378786,1.146329680536173,1.9664700420991925,1.8576817122168305,3.57190288637888,1.0373310091937005,Relax
81.47364923599193,737.275,61.02665427209302,,,,,,,79.81783056403731,80.32744978259386,0.08277325865124006,0.10826059552275245,737.5,54.856199999999994,0.07438128813559321,72.0,0.7645742040449439,693.6,787.8,40.0,68.75,591.0,875.0,13.333333333333334,179.6875,,,0.01777341056206804,0.03498987319426606,0.011502150248538342,0.06426543400487245,0.5079587017474715,0.2765625228753688,0.5444586772978646,-3.3526965966655218,56.80008445669397,65.22760440565892,0.8707982605561733,11639.391674470453,1.1483716094716432,4.772900392739192,299.62211621322473,0.6125,0.6282051282051282,0.8775510204081632,0.13043478260869565,49.78549978549978,49.734164263574975,49.830506688425096,47.43589743589743,0.5192906815020862,0.48070931849791376,40.9313841096072,39.38151655477282,0.5013010443211525,0.4986989556788475,46.18285032293872,46.06283439553166,0.509059398201467,0.490940601798533,43.636188359429184,42.85258777894295,0.6936835178318875,1.3397832301651116,1.0206395132211847,1.1825125562431018,0.06586377368187435,-0.5709912523093408,-0.37917967669891767,0.0013144950489103703,0.1628724452315064,0.4862102552710281,1.7730673362159022,6.0374920011103175,1.2736268798360184,1.1994870758930372,0.960508151672137,1.300192658364466,1.8696099966021849,1.9082894230584588,3.9986453593991436,1.1063374166052884,Relax
81.41579441226601,737.4625,67.94095421388833,,,,,,,86.79694038823888,87.34386635556231,0.09212801222284298,0.11769675120869046,739.0,62.2692,0.08426143437077131,82.0,0.7827574786621676,686.8,787.8,41.25,70.0,591.0,941.0,13.333333333333334,187.5,,,0.04888560177742658,0.03199602557422712,0.004060344020849678,0.08494197137250338,1.5278648175854708,0.5755176267695074,0.3766809865279931,-3.4421435847013715,61.76144019506965,73.8384993463364,0.8364395368516387,14326.831365957976,1.1955436776267216,4.863120259016137,353.10860423582926,0.6125,0.6329113924050632,0.88,0.125,49.079878665318496,49.041381580378435,49.10779046435949,46.835443037974684,0.466448687166373,0.5335513128336271,42.18495600116839,45.11736830841225,0.5226814976474219,0.477318502352578,53.382809313626396,51.01372026723717,0.4995315916006794,0.5004684083993206,48.110782798846195,48.155874919789625,0.7124014377540658,2.2234962014540245,1.1883856117537628,1.4965200749246754,-0.8953591207746872,-1.2252589692281695,-0.36141893880033965,0.002287072987468767,0.38142375683596375,0.5091984618435887,1.6964492894237302,6.1124920011103185,1.2550655371704338,0.8614122860582473,0.945150242879307,1.1307800419158696,1.7041797138654426,1.9143386711154748,3.8984698836190277,1.1063374166052884,Relax
81.58981620869883,736.375,75.50041914545402,,,,,,,93.15985988434551,93.72709110987871,0.10252985115661724,0.12651143762939468,736.0,75.6126,0.10273451086956521,100.5,0.8104393806429612,675.0,796.4,50.0,73.75,567.0,916.0,16.0,148.4375,,,0.04321935724328733,0.047987206883822874,0.017027351937203936,0.10823391606431414,0.9006433182894241,0.39931436295445294,0.44336570853916246,-3.036820826851571,66.27506170468462,82.07015922598252,0.8075415270268252,17087.766050956743,1.2383264098897313,4.9396553994140655,406.5185825335582,0.6,0.620253164556962,0.8775510204081632,0.13043478260869565,51.59631074849238,51.414028378189805,51.78915029721913,46.835443037974684,0.5054490666868917,0.49455093331310845,47.13231511611888,46.62142953951211,0.560265797269942,0.4397342027300583,61.43025687929862,54.42273950401163,0.538620793242248,0.4613792067577521,54.750030084291936,50.672439587162174,0.7458166940441237,1.5341690454681127,1.0625191880333285,1.3147222551232869,-0.2926119848709323,-0.8700189079415686,-0.3356093366406014,0.001448645878184368,0.1959003337994255,0.4388957907194051,1.4307461236907244,6.1030559073332755,1.3525804991712902,1.4770824781838932,1.0122788718089013,1.28958098995751,1.815931965856235,1.8779930631844186,4.723114517926065,1.1853615177913803,Relax
82.32035872459896,730.395061728395,81.22648567621673,,,,,,,98.10931403286845,98.69783111643643,0.11120897433781067,0.13432362727193714,713.0,83.0256,0.11644544179523142,111.0,0.8279181897959692,665.0,796.0,51.85185185185185,72.8395061728395,567.0,967.0,11.571428571428571,148.4375,,,0.051377668710524474,0.05662078243322232,0.016932850149199284,0.12493130129294608,0.9073994830629285,0.4112473669833245,0.4532153419298392,-2.8713791803683915,69.78990567083683,88.04663563969014,0.7926470462362171,19304.352967474453,1.2615955673440933,4.992625359725814,444.3169809703742,0.5925925925925926,0.6124999999999999,0.8775510204081632,0.13043478260869565,51.635083011906765,51.356181819939806,51.95114912017732,50.0,0.5307356159135623,0.46926438408643734,50.85876447624965,47.82285349553804,0.541698551969689,0.45830144803031103,64.80247647488852,59.6057806776312,0.5374668053255097,0.46253319467449033,58.24935571029569,54.0364432889766,0.8258631792708296,2.69859611858918,1.2956234911964397,1.8695523967010368,-1.4815110438285792,-1.7992025714496376,-0.28732315608433995,0.004667024635478858,0.607276177624131,0.4355962248256078,1.3499267169490154,6.058925465820876,1.3427367256793352,1.4741161732141956,1.1099680169543102,1.3977022809503206,1.8101721674012985,1.8454740469837871,4.331317198503989,1.017506790586421,Relax
82.9804028994095,724.6341463414634,85.40557014753331,,,,,,,116.22817065720767,116.95182346738198,0.11786026173170198,0.16039565792479013,707.0,89.6973,0.12687029702970296,121.5,0.734809553179843,655.4,807.4,60.97560975609756,78.04878048780488,567.0,936.0,13.666666666666666,125.0,,,0.030109543586402852,0.03745580605724023,0.01454267333414517,0.08210802297778826,0.8038685254934638,0.3667064739160513,0.45617717610096054,-3.2845935461292965,82.69742744591781,87.43192943056111,0.9458492793710624,22714.95782686949,1.057250898012995,5.063282044791729,369.7499436218782,0.5975609756097561,0.6172839506172839,0.88,0.08333333333333333,49.81263383297644,49.808488296358675,49.80711646113037,50.617283950617285,0.47118150878975856,0.5288184912102413,56.76596691680676,60.13775852158109,0.5556244855209835,0.4443755144790165,65.1719552312677,58.283432768534276,0.515750942257611,0.48424905774238886,61.113659474238496,59.217854297856206,0.7767431484765106,2.014807944421375,0.755960211039842,1.6924463425723513,-1.0599729962726023,-1.8765714400429085,-0.03519831300771693,0.003580738736216628,0.3883077118451019,0.45788420745567304,1.3862943611198906,5.982492400933164,1.365097125432327,0.9814796597221468,1.2110803505045769,1.365605094457161,1.7597768662616233,1.8801417164593752,3.695099849625647,1.0079045860979887,Relax
82.99649576728369,726.2962962962963,88.80377869838148,,,,,,,123.4424461034372,124.18427444321338,0.12226935363877103,0.16996155251365652,704.0,91.9212,0.13056988636363637,118.0,0.7193941913948251,657.0,813.0,60.49382716049383,74.07407407407408,567.0,936.0,10.125,125.0,,,0.043081373563480206,0.024420427794671164,0.032581321918016014,0.10008312327616739,1.7641531068051597,0.43045592656618353,0.24400145594263598,-3.712335292243718,87.81154257552745,88.80213703024967,0.9888449254956018,24497.676557011324,1.0112809139398753,5.096095006313313,359.2156251830597,0.5679012345679012,0.5875,0.851063829787234,0.09523809523809523,51.556646428110085,51.55394790545341,51.54958772279834,55.00000000000001,0.5370975429086586,0.4629024570913412,64.37356364380126,59.76208103064956,0.5012870096428396,0.4987129903571604,62.873356013185415,62.711726533228855,0.5189967604951556,0.48100323950484447,63.62788143794861,61.254660940586405,0.7521195067532519,1.8791664924567106,1.0834508182558267,1.5879601108938575,-0.629333942613866,-1.4273135146053795,-0.2315249635073764,0.004167749701964397,0.3712549263428672,0.4863925974834853,1.3411739258394206,5.975531792954661,1.2461952296521093,1.1570616352867533,1.0761397460075108,1.3611470378215507,1.745694708610739,1.8721523849467354,3.478839932330584,1.0957765437084537,Relax
82.65762236754811,729.0370370370371,89.81946398810845,,,,,,,125.53430805958983,126.31622902537057,0.12320288191825483,0.17219194866942317,713.0,88.95599999999999,0.12476297335203365,129.0,0.7154973439250734,657.0,815.0,61.72839506172839,76.5432098765432,567.0,936.0,16.2,132.8125,,,0.048344584113835735,0.029710451560342292,0.027911591932481526,0.10596662760665955,1.6271911591665744,0.4562246171812444,0.28037555059905594,-3.516256390688681,89.31906211775254,90.80267894266422,0.9836610897146715,25479.604853539644,1.0166103045613686,5.113162798489391,369.24375637956024,0.5802469135802469,0.6,0.8541666666666666,0.1,50.796837746266775,50.76184061353744,50.815463083846936,53.75,0.509486328724551,0.49051367127544904,63.75953639270488,62.56110936566975,0.5089918859960612,0.4910081140039388,64.78196113982531,63.62722698690177,0.5092350548020407,0.4907649451979594,64.27278183700506,63.096419942442104,0.7208379746868043,2.596062470952092,1.0452591902545736,1.7628131136098177,-2.4190407353287355,-2.8155584996951677,-0.22359913084368685,0.002457570666637115,0.45733925751300364,0.43354954455263695,1.4307461236907242,6.068245064613018,1.392399831692567,0.9373964639918544,1.0718800106880366,1.1152846172824986,1.876570587101194,1.8726240023959524,4.804110564701174,1.017506790586421,Relax
82.81736677923729,728.1358024691358,90.24671089386302,,,,,,,131.61197703856593,132.42189900255562,0.12394214182001907,0.1807519649387721,713.0,88.95599999999999,0.12476297335203365,124.0,0.6857028738913197,655.0,818.0,67.90123456790124,80.24691358024691,567.0,936.0,16.2,125.0,,,0.0441589373118013,0.03211144273691524,0.030075228945108962,0.1063456089938255,1.37517761732444,0.4152398743079764,0.30195363062690866,-3.4385428408120644,93.63642276230719,86.64858780723054,1.080645687736108,25489.198268224878,0.9253726835249246,5.113326285440405,320.72894489128794,0.5925925925925926,0.6124999999999999,0.8571428571428571,0.10526315789473684,51.072215138518594,51.056706119668995,51.07490151182513,53.75,0.5222636041326745,0.4777363958673254,67.6794380082601,64.73006266533524,0.5127142338804822,0.4872857661195176,62.043912431583784,60.48578923325134,0.5178592294527855,0.48214077054721466,64.9228519049031,62.64388123283682,0.7145931154184851,1.1747005250009956,0.8664407420465323,1.2267909564832225,-0.6317897535839663,-1.4802745172356668,-0.19324078199727993,0.0005278519298369174,0.09852770200850769,0.5612607721126004,1.9661128563728325,6.167010496711785,1.4536480989186495,1.0733253303485506,1.0958683296327936,1.3559936451721222,1.8371627746473909,1.9407869345771083,4.296870781224273,1.2523160499525183,Relax
82.30108526950707,731.2,85.83018264669228,,,,,,,125.76364208659861,126.56364556143053,0.11738263491068418,0.17199622823659547,714.0,82.2843,0.11524411764705883,123.5,0.6824721455473685,661.8,816.6,65.0,81.25,580.0,936.0,13.333333333333334,109.375,,,0.044368186470035355,0.050982112115069866,0.05226077626623632,0.14761107485134153,0.8702696814501043,0.30057491631111255,0.3453813486990304,-2.9762804506242357,89.49401202817822,82.12697478305896,1.0897030149299853,23090.305353661508,0.9176812271775271,5.070399786167549,301.4655320131815,0.6375,0.6582278481012659,0.8846153846153846,0.26666666666666666,50.4663599054844,50.41354030763363,50.50644746545071,53.16455696202531,0.5082820929601609,0.49171790703983914,63.80559416033868,62.757316459762436,0.5112938415005399,0.4887061584994601,58.72474050405397,57.412932687232804,0.5096588794966793,0.4903411205033206,61.31781549200168,60.144515996803456,0.6499180347413868,1.0495377768865604,0.7070208403875835,1.149118208580885,-0.6052574338865364,-1.5541200046789727,-0.0787694564889532,0.0004950020912212628,0.08201139926032397,0.48610429097226326,1.6314168191528755,6.22192809488736,1.4727961407306003,1.041501587523254,1.4052545497957833,1.6008768658495935,1.8967451629420715,1.9435585676430627,7.312945304478713,1.1063374166052884,Relax
82.39796393640677,730.6875,78.7060858068674,,,,,,,118.67528295652016,119.4324007323527,0.10771511187322542,0.16241592056319584,717.0,74.87129999999999,0.10442301255230124,115.5,0.6632053772789694,668.6,806.0,61.25000000000001,77.5,580.0,903.0,13.333333333333334,140.625,,,0.0547892022375317,0.06883437343884022,0.029879299791403104,0.15350287546777502,0.7959570124686651,0.35692622741150953,0.44842400006565786,-2.676052044871696,84.45146045123577,73.48943250145943,1.1491646836374556,19497.634763682076,0.8701972956867209,4.9969520407405374,255.80122169728725,0.675,0.6962025316455697,0.9454545454545454,0.25,50.281350482315105,50.23508384181352,50.31475599020112,54.43037974683544,0.524267001731046,0.47573299826895393,61.148778212839844,58.24962858910974,0.42969362765393093,0.5703063723460692,48.17307289680706,55.49821381869398,0.48351326104113496,0.5164867389588652,55.04460931482829,56.89055707160331,0.5936413462919314,2.0292621086997435,0.8569749632024241,1.3988042184071414,-1.5628383252989817,-2.0686193058398294,-0.23299198123208625,0.0015761764890815013,0.2840107067957148,0.4303000640405661,1.4586150226995165,6.171928094887361,1.5061080298079286,1.3252922757972996,1.1672987445298464,1.5903239385809822,1.8899901780015524,1.9817471264485824,6.721212653159528,1.1853615177913803,Relax
82.33418114700248,730.0,78.45986235012141,,,,,,,108.81745034689978,109.49993858734767,0.107479263493317,0.14906500047520518,717.0,75.6126,0.10545690376569038,120.0,0.7210227964356706,670.0,809.0,54.32098765432099,72.8395061728395,552.0,903.0,16.2,171.875,,,0.04770872412502832,0.07424149823220197,0.014248493754430849,0.13619871611166115,0.6426153197476131,0.3502876200823714,0.5450969021714993,-2.6004320097783795,77.42814911462405,78.75788035717079,0.9831162134313881,19157.673603407147,1.017173744403708,4.989312879707161,320.44179225681063,0.6790123456790124,0.7,0.9107142857142857,0.4,49.434815373021856,49.34998645969241,49.511087735198146,53.75,0.49974506465223767,0.5002549353477626,54.73804129266009,54.76595773454782,0.4502814278656832,0.5497185721343167,52.84891025433923,58.39346199090467,0.47459307259098965,0.5254069274090102,53.80176799896154,56.60877374517799,0.7681626679715464,3.4146409375235276,1.2423671336433406,2.3773639297848623,-2.399007396645075,-3.2113752609473423,-0.16760874220506494,0.017096821630120582,1.3207262250427723,0.4294228750651228,1.767661917648994,6.117627780662401,1.460489001984208,1.1825071552457378,0.9912216237463034,1.1350626599721938,1.930707846082218,1.9167066033647298,4.277942587072451,1.0957765437084537,Relax
83.16150290813275,723.4938271604939,76.13296320530124,,,,,,,99.37385219462915,99.98961892319153,0.1052295960894391,0.13735272985623537,717.0,77.09519999999999,0.1075246861924686,103.0,0.7661267176821388,663.0,797.0,50.617283950617285,72.8395061728395,544.0,866.0,11.571428571428571,226.5625,,,0.04770529048072823,0.028444560300737286,0.009967600525760567,0.08611745130722609,1.6771322873812082,0.5539561349828904,0.3302996067459153,-3.5597983387742937,70.70333758884746,81.52177574664377,0.8672938848704888,18107.705357694245,1.153011703927012,4.964833529153208,375.982246243174,0.7407407407407407,0.759493670886076,0.9166666666666666,0.5333333333333333,50.989522700814895,50.9394233561411,51.023650161576064,51.89873417721519,0.5417353891644823,0.45826461083551784,52.0453794201497,47.86816018496711,0.44342886618833954,0.5565711338116605,54.28572117816129,60.81825710305259,0.4856361197889994,0.5143638802110007,53.17734970276542,54.727603439885236,0.8201904778319556,3.1542633300327836,1.2760685748301541,2.3098915748142463,-1.9811062603245198,-2.806245124256317,-0.1722458172275214,0.015889977240644938,1.1704955747462573,0.44402632906130624,1.9459101490553128,6.018862348563636,1.4637187465903356,1.6949391477223732,0.0,0.0,2.1737687615902415,1.8611411696277709,4.188022447417169,1.1740462968304861,Relax
81.45287762926043,737.6962025316456,80.17454587278417,,,,,,,92.26383573543528,92.72873008198366,0.10868233508270615,0.12507023273103723,741.0,80.0604,0.10804372469635627,108.0,0.8689704393244942,675.2,809.4,44.303797468354425,70.88607594936708,544.0,999.0,11.285714285714286,218.75,,,0.04400337310417751,0.03160406259872723,0.008434037548089022,0.08404147325099376,1.3923328042626277,0.5235911675746021,0.37605317203733724,-3.4544696034019555,65.56911385178765,87.33516799337806,0.7507756080203479,17990.297574723638,1.331955899095882,4.962008456964463,465.3063688292391,0.6582278481012658,0.6753246753246753,0.8653846153846154,0.4375,53.65296803652969,53.313534615715255,54.0483980896729,50.649350649350644,0.5555886888840695,0.4444113111159304,48.9435136914743,43.773472367598195,0.5114679558115751,0.4885320441884248,62.459481525212574,61.04297450184744,0.5274014519534856,0.4725985480465143,56.109956179210755,53.114788991156125,0.9443346430684869,3.1935172413748516,0.9389862026667006,2.45843393127845,-2.3198636377314763,-3.1545449727765504,-0.024208697255191012,0.012793523645341654,1.097595282185176,0.47765328932001117,1.6314168191528755,6.050616191215076,1.3331471143576632,0.8557940720952326,0.0,0.0,1.9805550804232128,1.8225210712898796,2.503530736551503,0.9575363161788004,Relax
81.02956367034747,743.775,84.72994703203014,,,,,,,107.30336741327295,107.9643996285212,0.11391878865521178,0.14426858581328084,747.0,73.3887,0.098244578313253,99.0,0.789629897687157,686.0,811.6,41.25,66.25,544.0,1016.0,10.0,218.75,,,0.043079559050399174,0.04517375131535675,0.016943130178246554,0.10519644054400248,0.9536413912066306,0.40951536789288495,0.42942281204335125,-3.0972390839405035,76.34235910406171,90.84939440351751,0.8403177545133519,21789.00936785624,1.190026028402939,5.045207595561257,432.45257601932053,0.6375,0.6538461538461539,0.8627450980392157,0.3157894736842105,51.626820061118096,51.419210996224265,51.82342924945004,52.56410256410257,0.5268099300027376,0.4731900699972625,55.42319703184551,52.526977195849874,0.48659931532549733,0.5134006846745024,63.37351318724742,65.09539376785165,0.5032461144005823,0.4967538855994176,59.53122266057112,59.145978828340446,0.9006372241062199,3.1879058071817394,1.493133020294733,1.7897192589816624,-1.658008670949675,-0.9861386393119957,-0.40696518133667015,0.0027801160676162937,0.6491651088642538,0.4687021336831143,1.572396640753751,5.9518075889569015,1.1951407187213372,0.9107028231440628,1.014325822635438,1.129208904980048,1.7879837638757627,1.7869551492428817,3.296987656559377,1.1063374166052884,Relax
80.89991422951317,744.9367088607595,93.31231564251313,,,,,,,125.70432340646413,126.45672591761789,0.12526207197550615,0.16874497109788728,756.0,97.85159999999999,0.12943333333333332,129.5,0.7423158815372511,663.6,826.2,49.36708860759494,68.35443037974683,544.0,1016.0,11.285714285714286,218.75,,,0.024860369592824044,0.031127096897677432,0.011725398754074516,0.06771286524457598,0.7986729271459625,0.36714396153566164,0.4596925087315045,-3.469676556260032,89.41840842299624,94.93829296195224,0.9418581863361692,26669.705917183706,1.061730963861983,5.132988336778458,403.19570117561943,0.6075949367088608,0.6233766233766234,0.8333333333333334,0.3333333333333333,52.22725281145028,52.392748317862825,52.04126539780456,51.94805194805194,0.4905303998383803,0.5094696001616198,62.65707534595826,63.855203491861275,0.5129620328278189,0.4870379671721813,67.9961040034504,66.25563606880117,0.5024118379153936,0.49758816208460666,65.38111061521185,65.06649031517082,0.7544283159903445,2.467990382086181,1.2513888928437682,1.5462802461557197,-0.7683167163510518,-0.7288369177773455,-0.38051357272199693,0.00342625815619612,0.48338075296793925,0.44490355513833313,1.4423838277709342,5.999983279822671,1.2385187099330917,1.1223434707719306,1.2875629507697206,1.6335973241451747,1.802172561260385,1.838908614235929,2.6620319211644032,1.0373310091937005,Relax
80.20285047944418,753.8076923076923,105.8837953696321,,,,,,,156.10332076303422,157.03418242459432,0.14046526249351673,0.20708639929786674,753.0,102.29939999999999,0.13585577689243028,133.0,0.6782930359973849,678.4,830.0,51.28205128205128,66.66666666666666,544.0,1080.0,13.0,289.0625,,,0.02607568186276968,0.05388260041793347,0.02039463175789688,0.10035291403860003,0.4839351044774566,0.25983980746926644,0.5369310989535183,-2.920947665465525,111.039935270516,96.18004110826294,1.1545008090142772,33551.66145487106,0.8661752267231486,5.2326841409590985,333.2350756527656,0.6410256410256411,0.6578947368421053,0.88,0.2631578947368421,52.61823253455052,52.680996752058185,52.560534147591056,51.31578947368421,0.5153758217394896,0.48462417826051024,79.76231137441714,77.34606954257087,0.5018382334644192,0.4981617665355811,68.13446203533822,67.88442671734218,0.5095767673316514,0.4904232326683486,74.17658401623257,72.76918944315105,0.6537648361445246,2.6831820473910692,1.267801519079946,1.4478486693772368,-0.4718789632689422,-0.20980764878939917,-0.43289789991239863,0.00491804894215122,0.616265741345465,0.5754960204656734,1.376244025266389,5.952068885528916,1.1411900945456894,1.1219417264664255,1.3456753447821217,1.5952049183478414,1.5478523316577724,1.8652060493511988,2.648773943613769,1.0475670364770413,Relax
79.98137425758199,754.3461538461538,104.64222620192818,,,,,,,158.2128272337572,159.16783444380684,0.1387191088181376,0.2097350485941818,749.0,86.73209999999999,0.11579719626168222,119.0,0.6614016577007424,681.0,825.6,52.56410256410257,66.66666666666666,544.0,1080.0,13.0,218.75,,,0.03689791294734676,0.07116908001823204,0.04191324206239662,0.14998023502797542,0.5184542632544117,0.24601850330788114,0.47452305968821196,-2.6426968242933278,112.54865508199353,92.17746320642352,1.2209997017378367,32592.29437430275,0.819001019063895,5.220085044192682,301.9737452031422,0.6153846153846154,0.6315789473684211,0.875,0.2631578947368421,52.396088019559905,52.52371460177927,52.27033854271751,53.94736842105263,0.5030782241453557,0.49692177585464437,79.86987772884751,79.37966728922065,0.5025454143473699,0.49745458565263023,65.34500703791547,65.01318926484336,0.502864449108831,0.49713555089116895,72.96974480291908,72.55289917478733,0.5270696657489877,2.6138019804631414,1.175534682671772,1.3755946090461517,-0.36216567167686264,-0.29965396860009497,-0.42346018257322965,0.0064601914204299666,0.6582852690798681,0.5718515492964302,1.4087672169719492,5.839826738065281,1.1289106563852551,1.0784901368778979,1.3014818659931664,1.6411145111359218,1.5456484238658417,1.896641374417673,2.7383911125620086,1.289313275664051,Relax
79.71673401391455,757.3846153846154,103.04610376185748,,,,,,,162.83738203193082,163.90240164772453,0.13605518473533895,0.2149995903326326,743.0,89.6973,0.12072314939434724,127.0,0.6328160185088897,682.2,829.8,51.28205128205128,64.1025641025641,551.0,1080.0,13.0,132.8125,,,0.03983621824139119,0.055033111118619776,0.03715795355957169,0.13202728291958266,0.723859099216237,0.301727168509976,0.4168313541083796,-2.899820254552672,115.89649965786715,88.33262766411879,1.3120463267385056,32161.873684130554,0.7621682097809819,5.214311451872009,269.2972827680458,0.6153846153846154,0.6315789473684211,0.875,0.21052631578947367,50.44215626892791,50.493125293648056,50.38886419030726,51.31578947368421,0.4780252853825648,0.5219747146174353,80.13147091860318,83.73411082581264,0.5770447576427187,0.4229552423572813,67.10052215041075,57.447132541059716,0.5144091185837331,0.4855908814162668,73.90376412753518,71.80381032013396,0.5385672245886338,3.262301243522952,1.2865399939724307,1.7418885919708016,-0.9489962766430438,-0.9856957323933204,-0.36042104514338447,0.011910924988491249,1.0808025032661066,0.59061810508521,1.499234772300486,5.855789718806776,1.0929428097803167,1.331651914177421,1.333598135633837,1.8670114456970424,1.4235004893803482,1.8853641081817147,4.780097469045472,1.0475670364770413,Relax
80.80797214294415,746.1392405063291,99.54572898115786,,,,,,,159.1003150732589,160.12540924739798,0.1334144132583166,0.21323140030176357,721.0,84.5082,0.11720970873786409,114.0,0.6256790185193618,680.6,817.2,56.9620253164557,68.35443037974683,551.0,1080.0,13.166666666666666,132.8125,,,0.044755223756246895,0.04927481650227458,0.02731984884867146,0.12134988910719294,0.9082778371012491,0.368811410422575,0.4060557192495518,-3.0103421499020966,113.22576271910621,84.75557744926235,1.3359092832195865,30148.340714274967,0.7485538221502333,5.186233524664681,253.7764457927818,0.6708860759493671,0.6883116883116883,0.9056603773584906,0.3333333333333333,49.44670937682002,49.489418432796306,49.4148985442419,49.35064935064935,0.47641494382870414,0.523585056171296,78.15390244595895,81.93163130191054,0.5574588856589165,0.44254111434108323,63.28120031998601,56.38260010694531,0.5055176291918483,0.49448237080815177,71.10746367812125,70.32705668024191,0.6141399695169044,4.715659839386383,1.5100871552565818,2.442031953149792,-2.304106681568541,-1.9997572431155208,-0.302372344563666,0.029814982190727864,2.3519998642406788,0.5761533761878144,1.4663370687934267,6.025299735518874,1.1626108073509405,1.3141483418850606,1.3862638398158689,1.782524547403215,1.4759963648519718,1.8971573917940578,4.958316887898481,1.1171257022086005,Relax
81.59000812515664,741.775,110.24586734124225,,,,,,,177.35646719445052,178.4853807983015,0.1486244040864713,0.23909739098035188,718.5,97.85159999999999,0.13618872651356992,114.25,0.6216061307782513,669.6,815.8,56.25,68.75,474.0,1080.0,13.333333333333334,210.9375,,,0.03534686314418023,0.06697977834999964,0.042836080714895565,0.14516272220907545,0.5277243970482685,0.24349821087862167,0.4614116994411953,-2.7033645208183343,126.2082231051422,89.85487505913211,1.4045784719202659,35626.993099421714,0.7119573736829758,5.258749279620271,255.89136343884653,0.7,0.7142857142857143,0.9454545454545454,0.3888888888888889,49.49463696369637,49.6973470732516,49.295920167196236,49.35064935064935,0.46217419123772124,0.5378258087622788,85.8027329072855,92.5590940828393,0.5551335137430546,0.44486648625694525,66.94842555146141,59.93168517631279,0.4934427031955446,0.5065572968044553,76.95518390004193,77.97112537827246,0.524438195235548,3.444283945615961,1.2528932088887759,1.813184973598898,-1.3264088181691225,-1.302213146631268,-0.3373270689766194,0.012645414256175885,1.1751660253994214,0.5716303079258505,1.5339303599259553,6.07192809488736,1.1289665642685578,1.0785291185620531,1.0085524978059524,1.5483160292844969,1.5126747102850475,1.9436256212179968,3.290974959855913,1.1063374166052884,Relax
82.33107821731151,732.175,99.844027096444,,,,,,,151.10638385093574,152.07192754000295,0.13636634287765084,0.2063801466192314,718.5,55.5975,0.07737995824634655,83.25,0.6607532028225801,680.8,794.2,51.24999999999999,68.75,476.0,1080.0,11.428571428571429,296.875,,,0.04320172072076976,0.07838128512907593,0.03219179503028002,0.1537748008801257,0.551173926909038,0.28094148373794625,0.5097147561269003,-2.54617009020988,107.53109119164537,92.6736192661485,1.1603204023232094,31306.89883321476,0.8618309201473888,5.202610159810388,319.4759622621342,0.65,0.6623376623376623,0.8823529411764706,0.4444444444444444,50.012416190712685,50.29853512527468,49.73265394122623,46.75324675324675,0.43153577578225727,0.5684642242177426,70.63866160128256,81.07475183196915,0.6033925987355404,0.3966074012644597,71.98733790550615,58.362855389070255,0.50478030492704,0.4952196950729598,71.31618796438168,70.63759011242142,0.44853967670290895,2.7994650792641735,1.1688083953581319,1.4318124179356797,-0.3432821843481886,-0.4040826474180388,-0.40605204382593074,0.010162611569405362,0.8499542811381571,0.5672087649962525,1.3121863889661687,5.862492001110319,1.1311900796916299,1.3566163091903396,1.1199469344803874,1.3477165892107716,1.6097888201309865,1.9643176478778681,3.2629660855568177,1.1063374166052884,Relax
84.19881369756358,716.5301204819277,94.72480517709691,,,,,,,142.41462996921453,143.2904980004736,0.13219933463981443,0.198755957214232,705.0,62.2692,0.08832510638297872,82.0,0.6651339486510155,649.0,785.0,59.036144578313255,73.49397590361446,476.0,982.0,11.857142857142858,289.0625,,,0.05460694100921406,0.12590609116083823,0.045201231243583787,0.2257142634136361,0.4337116695923523,0.2419295093865791,0.5578118513941989,-2.072218958158246,101.32168281573232,85.15324761654534,1.1898745573626888,27105.254094280404,0.8404247269699266,5.140023592828233,286.25957951495076,0.6506024096385542,0.6625,0.9245283018867925,0.2608695652173913,49.8110533774209,49.99087825739605,49.62939514425761,47.5,0.4645455103005319,0.5354544896994683,69.05866176977439,74.14217240137398,0.561586285470188,0.43841371452981204,63.813044124506774,56.38236407963431,0.5047145182485433,0.49528548175145665,66.48760548353485,65.8636193493931,0.5437898972032696,2.7562636772686853,1.1672795144147292,1.5253889005258534,-0.5199749538601068,-0.6032361016041441,-0.3700743368406638,0.009447176977574629,0.7871732841487575,0.5047142159847122,1.4198170531585341,5.98040223252568,1.2551485138270935,1.25313050192604,1.2842730279417733,1.533704630338466,1.7475066853962227,1.9710416647034623,3.1572278840267516,1.1521155598819743,Relax
85.46067507665579,704.9759036144578,90.61052756146057,,,,,,,141.81970691089685,142.68836633933327,0.12852996406954398,0.20116958066761984,695.0,51.891,0.07466330935251798,63.5,0.6389135158655332,652.4,744.6,55.42168674698795,72.28915662650603,476.0,982.0,9.222222222222221,226.5625,,,0.020799603000716857,0.07966954949676704,0.025220955534400992,0.12569010803188488,0.2610734356111917,0.16548321364669719,0.6338569577532432,-2.5298678302215514,100.89591143497286,79.95810028925716,1.2618597874383068,25344.627218507005,0.7924810743276742,5.1108560177470554,253.46112487372176,0.6144578313253012,0.625,0.9,0.16666666666666666,49.46987951807229,49.72706006364318,49.224252109626654,45.0,0.41968844057791044,0.5803115594220893,65.36563827169951,76.86287292684226,0.6406787763616862,0.35932122363831387,64.00039228485986,47.92961077716947,0.5049345173417552,0.49506548265824474,64.68661716028524,64.05134199928547,0.48405789493067514,2.8029941214420715,1.1444521648367745,1.4454573014395455,-0.45167693258776964,-0.40978418943120665,-0.3926129975442434,0.009495325034913937,0.8082200475960467,0.5453077660633139,1.2116356770715049,5.799443798686475,1.2286049896621924,1.088419949097446,1.2048098237790748,1.248087280072107,1.499033997768696,1.9849921157142605,4.578703217945841,1.2289232638741059,Relax
81.72254523720463,739.7875,128.51643186570996,,,,,,,206.01745040995368,207.3135237058294,0.17372073989586193,0.27848192948644535,726.0,103.0407,0.1419293388429752,136.25,0.6238133304240752,639.2,822.4000000000001,62.5,77.5,430.0,1092.0,16.0,109.375,,,0.01666527380451358,0.07339650171054944,0.018433514315316826,0.10849528983037984,0.22705814876893843,0.15360366178631216,0.6764948213447478,-2.611879005116688,146.59279844407004,107.62995586821886,1.3620074194172944,49567.34651346626,0.7342103910328392,5.402165780422229,316.0921279394088,0.6625,0.6835443037974683,0.8703703703703703,0.29411764705882354,49.03569615970224,49.26251243834358,48.83388974022032,51.89873417721519,0.4297995354624438,0.570200464537556,96.11434829783714,110.705459296047,0.5683182952860448,0.4316817047139552,81.13887478834458,70.7155598031726,0.478310211794631,0.5216897882053692,88.9423547884713,92.88807543550678,0.41872016435160614,1.5670674284145907,0.7556988586329363,1.0029509468046856,-0.14580448851394134,-0.699945160653259,-0.34221987919058766,0.0018983933987504423,0.2224694787672933,0.5184183351403941,1.308332819650179,6.19692809488736,1.292743125710931,0.8059131579505631,1.037419600416504,1.0671861127270306,1.6770560080719077,1.9833721459366724,4.662480162925016,1.1063374166052884,Stress
80.85608274942444,752.3076923076923,146.79797122455187,,,,,,,235.08564341588308,236.6264075134915,0.1951302275990976,0.3124860290804172,731.5,94.8864,0.12971483253588517,136.0,0.6244446453280684,632.4,872.4000000000001,65.38461538461539,78.2051282051282,430.0,1138.0,15.6,109.375,,,0.017702857719979825,0.08981571628389075,0.014659307086187182,0.12217788109005775,0.197102004553684,0.14489412946137922,0.7351225564117229,-2.409995304689974,167.32013736060125,116.90198381941994,1.431285696734308,61449.72820322094,0.6986725307754066,5.495490076271287,326.70481955111904,0.6538461538461539,0.6753246753246753,0.8461538461538461,0.4,50.17612231132428,50.33374555008662,50.06871389611825,51.94805194805194,0.4679661843411645,0.5320338156588352,114.46083563707214,122.0448041111391,0.5207364923068418,0.47926350769315823,84.35889606384212,80.929910884702,0.48527591235130296,0.5147240876486971,100.54279248122901,103.54850237046435,0.31791352119327465,1.6162644317369779,0.6765178023829608,0.9902574762954668,-0.29940412170989994,-1.0317973471199657,-0.3058859257483417,0.002398709577069878,0.25539362849893815,0.5216844387824664,1.236762627148927,6.182838116298146,1.2198515313723017,1.10923884905992,1.075753184583275,1.36197339891516,1.6764769032254663,2.010952960150357,3.637427141268832,1.1281491162060446,Stress
79.15986862808295,768.1818181818181,141.37852580858458,,,,,,,233.3763901376577,234.9148479544741,0.1840430513484533,0.303803584794584,751.0,88.95599999999999,0.11845006657789613,112.0,0.6057961806898807,686.0,878.6,64.93506493506493,80.51948051948052,498.0,1138.0,12.833333333333334,46.875,,,0.0031835806074743695,0.0629429985879162,0.018234658335864816,0.08436123753125538,0.05057878841008304,0.037737481106709346,0.7461127933856608,-2.76552574647379,166.10988199001537,112.19043451422775,1.4806064590912131,58546.531686441595,0.6753989176933577,5.474471282400831,303.0931921858278,0.6883116883116883,0.7066666666666667,0.8867924528301887,0.42857142857142855,50.682761222180304,51.049792923104334,50.352291717957854,50.66666666666667,0.4414388405783096,0.5585611594216904,110.37058786953463,124.15192306202913,0.6259904510528291,0.37400954894717064,88.76457627754047,68.61154126500821,0.49924808576307184,0.5007519142369282,100.1519262630479,100.30265099876453,0.302020175726489,3.7754529477696863,0.8965000198363409,2.0430606906275974,-2.5025262060218676,-3.20863454195684,-0.1963117573830243,0.020122795620725737,1.6012477534811493,0.4322694850840083,1.0986122886681096,6.110942384850747,1.185247381616931,0.9332589365692353,0.9565308430514052,1.1294983731039254,1.6718681719478585,2.031812230790558,5.265076423001967,1.1394157346718001,Stress
79.64710719551681,760.6493506493506,137.26556725384614,,,,,,,217.45888903664672,218.80836444450014,0.18045840325330637,0.285885853778757,751.0,90.4386,0.1204242343541944,121.0,0.6312253679853658,674.6,862.6,64.93506493506493,79.22077922077922,498.0,1138.0,15.4,234.375,,,0.022128420471481215,0.09874227400771483,0.033786243289045746,0.1546569377682418,0.22410280392927046,0.14308068419563133,0.638460035693214,-2.3152421161582084,154.7208782790435,112.3952299668373,1.3765786886569344,54631.946570466534,0.7264386760016274,5.444416784936401,326.59296818403095,0.6363636363636364,0.6486486486486486,0.875,0.35294117647058826,51.961099501687826,52.38696875225287,51.60259139083456,47.2972972972973,0.4495511302990943,0.5504488697009055,103.78339623144606,114.84096249451527,0.6542149472727571,0.3457850527272431,90.90925767045898,66.09231868458194,0.520207149733142,0.479792850266858,97.55892184604963,93.692692499925,0.3915449138270314,2.951856582490681,1.0134190461829893,1.5976007557606033,-1.0433842557952158,-1.4242411954243508,-0.3020968521835501,0.011715363356386328,0.9564946503033274,0.4869661066780018,1.3862943611198906,6.136916410824774,1.2045895228347094,1.174647062483446,1.0191490976789574,1.24738735042139,1.691717799543727,2.013697049447155,3.3089844544168527,1.1394157346718001,Stress
79.68036313635372,758.8717948717949,136.53393650486976,,,,,,,218.8253469494164,220.26014259722857,0.17991699971921613,0.2883561471491836,751.0,88.95599999999999,0.11845006657789613,116.5,0.6239402263414708,675.2,841.8000000000001,62.82051282051282,79.48717948717949,498.0,1138.0,15.6,226.5625,,,0.020911610014272865,0.10921415077544974,0.05231221056011305,0.18243797134983564,0.1914734479533543,0.11462312291432802,0.5986371694849923,-2.2144446382110874,155.74744045561624,111.30847169688802,1.3992415678812222,54462.68030081535,0.7146728791899979,5.443069120656706,318.1965837834134,0.6666666666666666,0.6799999999999999,0.9215686274509803,0.3888888888888889,50.07586041683302,50.61194187120693,49.60138111527386,48.0,0.4161186989589946,0.5838813010410053,100.46847502417964,119.01000621354227,0.6558187731165387,0.3441812268834612,90.14053720429773,65.30129726136794,0.49715650926178917,0.5028434907382108,95.44430554298039,95.98864777400739,0.23805918264957981,4.1702003321762815,0.9976802370780467,2.0818103374820693,-2.2051048632956327,-2.6694941644990484,-0.24002925182295667,0.02910118091890405,2.0807694625298208,0.5627733993109203,1.3766324502081533,6.080274013734044,1.1836447230646323,0.8795878182797321,1.116043083194933,1.2180473186540648,1.6523880019165578,2.0260447789216314,3.3533511992507856,1.1281491162060446,Stress
79.19514774106159,764.6753246753246,136.26893316627522,,,,,,,217.46079501469006,218.89080631154724,0.17820495675616835,0.2843831728283141,762.0,80.0604,0.10506614173228347,110.0,0.626636783688158,674.6,844.6,66.23376623376623,76.62337662337663,492.0,1138.0,12.833333333333334,289.0625,,,0.014331710846177043,0.07557421918366206,0.02937128353628394,0.11927721356612303,0.189637564251214,0.12015464159239479,0.63360148115605,-2.582640070044985,154.77917348228618,112.19123515504245,1.37960129655752,54553.33749586365,0.7248471007495221,5.443791435219758,325.2859661265615,0.6233766233766234,0.6351351351351351,0.9148936170212766,0.2631578947368421,50.79027106707068,51.450510413987914,50.20817404759551,54.054054054054056,0.44135483262423075,0.5586451673757693,102.83384656814117,115.69382005967302,0.623201834440554,0.37679816555944606,88.56727666885436,68.86734167278884,0.5039838273027549,0.496016172697245,95.96604216215597,95.20443988879047,0.2825931674733519,4.792817221164451,1.2744980379630138,2.500196723226312,-2.350585942079462,-2.992111950970235,-0.24426341988365965,0.052166849294719535,3.1690365954442083,0.5021323519198044,1.2070929316621797,6.058994332902696,1.1625495023215193,0.9523344279747892,1.0969657663294345,1.327559522905696,1.5132406160487764,1.9972171558126632,3.1124102777239218,1.220802572862643,Stress
79.20743701857198,763.922077922078,134.23278741305367,,,,,,,208.03298700977817,209.4149289237526,0.1757152873211576,0.27232226037456936,766.0,85.9908,0.11225953002610965,132.0,0.6452476087686244,671.6,844.6,59.74025974025974,75.32467532467533,498.0,1100.0,9.625,281.25,,,0.009148161840138804,0.10196926176326679,0.023903679091829562,0.13502110269523515,0.08971489723420083,0.06775357079394997,0.7552098133387949,-2.283083866376578,148.07871632368432,118.09803948340785,1.2538626125498773,54939.563130469156,0.7975355433609925,5.446855311628407,376.7495363570705,0.6363636363636364,0.6486486486486486,0.875,0.2777777777777778,50.12867157689237,50.76446005836647,49.498029278148096,48.64864864864865,0.3779192954196991,0.622080704580301,91.03175270201052,116.79297924104854,0.7446708034861959,0.2553291965138042,101.91188895596275,59.67506865728833,0.5205033963820357,0.4794966036179643,96.62508243352883,92.74080498694217,0.41600841473568867,3.349759221433971,1.111272798205051,1.8062807710801108,-1.7617738046787537,-2.181721336820053,-0.2925200210128716,0.010858034459378371,1.1010826276961057,0.5188160466882299,1.0586069540544105,5.987438813365983,1.1451439127340959,1.0657710911424991,0.8837376620041069,1.2425349908846557,1.3624236845666526,1.962681144435636,4.3100042222307176,1.220802572862643,Stress
80.59691816516502,752.3461538461538,125.28998331901845,,,,,,,194.17858964191876,195.42370061343397,0.16653236369789273,0.2580974045646893,760.0,74.87129999999999,0.09851486842105261,114.25,0.6452306793970615,649.4,814.0,57.692307692307686,73.07692307692307,496.0,1067.0,11.142857142857142,289.0625,,,0.017207066193902075,0.11498874408100127,0.02322279986359512,0.15541861013849848,0.14964130908135617,0.11071432294091621,0.7398647046098993,-2.1629210329657185,138.18542390832883,110.81073797877724,1.2470400110032158,48105.413830441816,0.8018988895115903,5.389164065012938,355.43603092456505,0.6282051282051282,0.64,0.875,0.2,51.18891593334581,51.691189950380064,50.66430203748329,48.0,0.4109137501679119,0.5890862498320883,88.59317129440619,106.07532080654069,0.688018161612019,0.31198183838798077,91.91402791171177,61.89370827835652,0.5193458197747627,0.4806541802252374,90.26887206272971,86.84124828863534,0.5072985140251121,4.536390383850092,1.5729440648367963,2.566364101067257,-1.826246085272242,-2.412762875830377,-0.2810109024639691,0.0462714003059857,2.8527930169853972,0.5127703418637468,1.177083904109605,5.9583538213708795,1.212151512117388,0.9271847134627971,1.1989607944658611,1.2475345882613162,1.2844516830990471,1.973729329677699,3.6638428668124248,1.1281491162060446,Stress
80.35484569661031,752.2278481012659,135.86002877840465,,,,,,,207.75947631816942,209.0879660711672,0.1806102088899466,0.2761922160188366,758.0,111.195,0.1466952506596306,134.0,0.653929395597553,629.4,843.8,64.55696202531645,77.21518987341773,451.0,1067.0,13.166666666666666,328.125,,,0.01929132952802248,0.1507500000611835,0.02270059728870543,0.19274192687791142,0.12796901837607222,0.10008891080684376,0.7821339264532368,-1.8921324429689816,147.84751867342507,121.80117052608787,1.2138431678023855,56573.80312530749,0.8238296565201746,5.459585484756956,401.37366591304874,0.5949367088607594,0.6153846153846154,0.8541666666666666,0.14285714285714285,49.160432252701575,49.52235714827643,48.828061942330635,48.717948717948715,0.3994324567719062,0.6005675432280937,93.44788116113972,114.58524870496734,0.6593184938146122,0.34068150618538773,98.90063746639436,71.09281996282024,0.5044944685531322,0.49550553144686793,96.21289566572055,95.35189633941528,0.46578919773103966,4.399370944094846,1.4441307272908683,2.4356677178210644,-2.012462069214145,-2.528007263438759,-0.2746184617914276,0.04083941380785339,2.5590133095758563,0.500021890701158,1.2791962255635234,6.06637710890921,1.3557337497946234,1.0069574920078836,0.9760135817121129,1.2098906246023888,1.372201558869227,2.009736352785804,5.47077288844321,1.1969203952235006,Stress
80.50793040738873,752.6666666666666,128.65070667899312,,,,,,,199.9650294101771,201.2620731233833,0.17092653677457015,0.2656754155139643,748.0,66.717,0.08919385026737968,93.5,0.6433660278422939,662.0,807.2,53.84615384615385,70.51282051282051,451.0,1067.0,13.0,328.125,,,0.013238998880966694,0.1255836564896637,0.018412611475025015,0.1572352668456554,0.10541975963294511,0.08419866068572456,0.7986990387655116,-2.074783156904773,142.3137767012071,113.53972192686126,1.2534272084344296,50762.69174902966,0.797812583986454,5.412514752950171,362.33367574229055,0.5897435897435898,0.6103896103896104,0.851063829787234,0.15,50.86263788064487,51.308358797362885,50.43501233678549,50.649350649350644,0.42340876988479437,0.5765912301152059,92.60992756832567,108.07161368375381,0.6640933912650572,0.3359066087349428,92.52570554252083,65.80472831862245,0.5170129622622525,0.4829870377377474,92.5678261340078,89.4699277782715,0.548287070570314,3.4443568541304446,1.4059523046810134,2.069045574639546,-0.8226277224262546,-1.4194064333212548,-0.30748415508591775,0.02954619852620369,1.7182107914413423,0.5824138735611801,1.2527629684953674,5.999957827753397,1.194505343763103,0.9008452936586135,1.0842296130084597,1.375003150577712,1.4038345553491325,1.9811983105439464,5.0425321386683635,1.1281491162060446,Stress
80.38750591481904,752.7948717948718,130.26799140137834,,,,,,,198.90897219778503,200.17386496058975,0.17304580076479972,0.26422732094804374,751.5,81.54299999999999,0.1085069860279441,100.5,0.6549125962595918,654.2,821.8000000000001,53.84615384615385,73.07692307692307,451.0,1067.0,15.6,289.0625,,,0.03141294314494249,0.14656492911968855,0.040768836320274,0.21874670858490503,0.21432782954024357,0.14360418654139323,0.6700211860001559,-1.9202867465279183,141.54429732995322,116.97973488261007,1.2099898967286415,52017.90800252699,0.8264531817196363,5.423122992207884,386.7130963618105,0.5641025641025641,0.5844155844155845,0.8444444444444444,0.14285714285714285,51.42242186037807,52.09945449289557,50.7663742428813,48.05194805194805,0.414138181407575,0.585861818592425,91.10675490584485,108.36163260606878,0.6850345683788136,0.3149654316211863,96.82040088882694,65.6511107669366,0.5240507874043725,0.47594921259562734,94.00699659532488,89.58881561329295,0.3818325303443123,2.155238775276603,0.9816219902333954,1.2775112160287045,-0.04881507597558343,-0.6860695734513991,-0.36271162657727574,0.008796352860589081,0.6090065308886647,0.5839119655804654,1.3044643428722584,6.157197090657121,1.1557361595060291,1.0768025184685959,1.0957969852207272,1.458116638243406,1.6583635328657607,2.0049546378037966,3.337470095389291,1.3698953553930542,Stress
81.09582254630322,745.6962025316456,131.65089367682688,,,,,,,200.94131047748806,202.240530312873,0.17654762519893608,0.2694680619202437,742.0,72.64739999999999,0.0979075471698113,92.0,0.6551708723506909,655.2,794.6,50.63291139240506,69.62025316455697,419.0,1128.0,11.285714285714286,320.3125,,,0.013072257022808342,0.09862868214707188,0.06562045477553853,0.17732139394541874,0.13254011650805006,0.07372069851217226,0.5562142274689694,-2.3163931656884693,143.005650414996,110.95020378055966,1.2889174200872717,49846.09886151647,0.7758448946498766,5.404601284460746,344.32059665404256,0.569620253164557,0.5897435897435898,0.8478260869565217,0.08695652173913043,49.72248803827751,50.39198957104772,49.06870879187801,47.43589743589743,0.37790107314384347,0.6220989268561565,87.9114075897752,112.79397377289496,0.7176545008578655,0.2823454991421343,93.9909005480203,58.95471425696058,0.5055640526174242,0.4944359473825757,91.00193671082893,89.99482999761815,0.3885884968399719,3.5699533552112497,1.245302080719543,1.9891731205841512,-1.2077009651419282,-1.8389168574190369,-0.2916300394292995,0.024733567301701943,1.6783291679487369,0.6327458813793001,1.1741198411762546,6.177198469696089,1.064780172433194,1.2026772589988617,1.0168245032422143,1.2069005598073343,1.4699905486112046,1.9792181178415191,2.75590848518662,1.1969203952235006,Stress
80.92028001826482,745.9240506329114,128.90970524541177,,,,,,,199.9970512603136,201.26732173538454,0.17281880794168358,0.268119858973065,740.0,71.1648,0.09616864864864864,88.5,0.6445580293962662,656.0,798.6000000000001,54.43037974683544,72.15189873417721,451.0,1129.0,11.285714285714286,320.3125,,,0.02016545501559604,0.08366311819263843,0.05792504032953037,0.16175361353776485,0.24103159733018906,0.12466772503285055,0.5172256517972965,-2.480957041458057,142.317488030345,112.60627643774342,1.2638504045467485,50346.668748506985,0.7912328835774101,5.408940850154248,356.39115525900274,0.5822784810126582,0.6025641025641025,0.8936170212765957,0.13636363636363635,48.90319071791153,49.19431900600508,48.64240029220046,51.28205128205128,0.40660910514027976,0.5933908948597202,90.76096048440623,109.64301577889451,0.6399031118714592,0.3600968881285409,90.07820200998523,67.57285709381974,0.4964169338398129,0.5035830661601872,90.42022568375855,91.07052740846704,0.39236582416681487,2.8822033859571436,1.0724021647375923,1.615926293130549,-0.7058175821985344,-1.252149214875421,-0.3114206197102017,0.014687356317127398,1.0345452434342661,0.5688469180953017,1.3350010667323402,6.0916935646054124,1.1971306672437863,1.3632326043890712,0.8104733374136766,1.0917041966103467,1.5633617904201615,2.0151655076606327,4.443813822663269,1.1969203952235006,Stress
80.40318328666743,751.5316455696203,119.60660253654187,,,,,,,184.54893034723256,185.7424858837392,0.15915045393183216,0.2455637516200059,738.0,65.2344,0.08839349593495933,87.5,0.6481023884099443,682.2,792.4,46.835443037974684,63.29113924050633,509.0,1129.0,11.285714285714286,234.375,,,0.01517589878282857,0.08254255847404424,0.06781746338528077,0.16553592064215358,0.18385544455349875,0.09167737566540007,0.4986383508415686,-2.4944412583602356,131.33977132283857,101.94850416998524,1.288295227008406,42065.59018609951,0.7762195955053981,5.330897096468341,316.53770667682534,0.5443037974683544,0.5641025641025641,0.8181818181818182,0.15,49.75845410628018,50.218073122883844,49.31755812854507,47.43589743589743,0.4230843937320162,0.5769156062679839,85.43030880394652,99.7595811236897,0.6292937643011859,0.3707062356988139,80.87374832169972,62.072009270651726,0.5006148296863642,0.499385170313636,83.18323397758496,83.08100974612039,0.3213097051528678,2.728446031499054,1.1451867962474798,1.4127384684393514,-0.21577816274380623,-0.6749112699197113,-0.4019399067809766,0.013545349146282658,0.9673354199675658,0.5324325186335792,1.0660361182334968,6.0916935646054124,0.9684430008310253,0.954207668196396,1.0669190480764286,1.5590630196056072,1.5254951138614812,1.9980173248442956,3.134877639343545,1.2767150882384006,Stress
82.62921992532524,730.9753086419753,113.16436887428856,,,,,,,176.9001837195202,178.00854054322537,0.1548128473512029,0.2420056896971936,729.0,63.751799999999996,0.08745102880658435,100.0,0.6397074694603686,656.0,773.0,44.44444444444444,61.72839506172839,509.0,1129.0,13.5,179.6875,,,0.018568483936393976,0.07389120793644384,0.06062705488935676,0.15308674676219458,0.2512949030737908,0.1212938698425561,0.4826754078929293,-2.605161430549013,125.87104612723512,98.48303683530375,1.2780987484954713,38943.69421215283,0.7824121580411229,5.297407256423018,308.2173015230136,0.5432098765432098,0.5625,0.8,0.21052631578947367,50.71274298056155,51.39172950812978,50.05315157811771,45.0,0.39482019928947293,0.605179800710527,79.09415955650181,97.92350411534429,0.719895075953183,0.28010492404681714,83.55953867252114,52.1220878432478,0.5182501744861717,0.48174982551382856,81.35749067883646,78.44018325886002,0.3441271145471227,3.059997558270606,1.2179986983689992,1.590380271042969,-0.4926687961095979,-0.9258033980276293,-0.37830657849138094,0.01715716866522791,1.2107212574719017,0.5636946224943218,1.0829869707650288,6.0002231509793535,0.9679963082752532,1.1623381985538224,1.1102656277590566,1.4396568549696065,1.5875560704388771,1.9735223339840773,2.7517553772168872,1.2523160499525183,Stress
82.50112436145659,731.6125,114.73033807447592,,,,,,,174.01607666163738,175.1109306685266,0.15681844975923173,0.23785279319535602,722.5,73.3887,0.1015760553633218,97.5,0.6593088424672474,656.0,772.0,46.25,61.25000000000001,509.0,1129.0,13.333333333333334,257.8125,,,0.03551652613338516,0.12032128815646212,0.04308401523923617,0.19892182952908344,0.29518073382991505,0.17854514116155587,0.6048671905004297,-2.1175897127503,123.82212653560255,102.45639583604226,1.2085348652489318,39855.40305294556,0.82744820092056,5.307457315418342,339.1094416293517,0.55,0.569620253164557,0.8222222222222222,0.21052631578947367,51.0600706713781,51.390580530425424,50.73268548711862,44.303797468354425,0.4054064673950756,0.5945935326049245,78.84714195753574,95.4884205625921,0.7019066334118877,0.2980933665881121,85.8378335070851,55.939068516750616,0.5258937760070423,0.4741062239929576,82.41664108680314,78.25349144945605,0.39771160525181276,3.3818297999661597,1.3984997176977927,1.7309109045664761,-0.6411187226478567,-0.9232553721299739,-0.40170670715835266,0.02000946886680188,1.4384023811419,0.6012042452312496,1.1767770615174462,6.0280559073332745,0.9053641257201475,1.227955447047513,1.1311376335016958,1.4408014773879398,1.5598399122728184,1.9483251992250035,3.9973878262530964,1.1853615177913803,Stress
82.92473482146681,726.4567901234568,97.49333943694769,,,,,,,146.2977699761688,147.21808448262792,0.13420390691148926,0.20138537069948292,726.0,62.2692,0.0857702479338843,83.0,0.6664034554513639,667.0,768.0,35.80246913580247,54.32098765432099,509.0,1129.0,10.125,234.375,,,0.03537230848388222,0.10464354236723761,0.042554777900509606,0.18257062875162944,0.33802667306259676,0.19374588741764698,0.5731674535097073,-2.257195538948332,104.09890585096025,87.15648256172138,1.1943908564373373,28503.338621580995,0.8372468648854431,5.161865842251347,291.885967116976,0.5555555555555556,0.5750000000000001,0.8260869565217391,0.2631578947368421,49.49794937066893,49.99897331831874,49.00511173240096,46.25,0.3956447770555931,0.6043552229444069,65.4797292046085,80.92827735686313,0.6365745725602474,0.36342542743975265,69.53834307797435,52.542090694048156,0.4949308601753202,0.5050691398246797,67.5395295169389,68.22777063062719,0.48942368671425934,2.1413847938388164,2.0382930292256116,1.1768326252373273,0.6804831106181242,0.43968329434957515,-0.9022912679995089,0.012174462726579197,0.6901569494882969,0.6268749839778667,1.1201184938890734,5.96621219416252,0.8299566432472022,1.1269024354410082,1.123669926188591,1.3249825773894393,1.495711964405384,1.8889362916690047,2.7780189455050417,1.0957765437084537,Stress
84.11581626692006,719.0853658536586,98.01829020798412,,,,,,,154.46334816365314,155.3645712509773,0.13630967178927664,0.2148053005922082,712.0,65.9757,0.09266250000000001,89.25,0.6345731293104837,657.6,765.6,37.80487804878049,56.09756097560976,509.0,1004.9999999999999,16.4,156.25,,,0.022285487616491836,0.07925331390617733,0.06985122205853668,0.17139002358120586,0.2811931327297446,0.13002791615775003,0.46241497754754973,-2.5351060512481873,109.85934188770656,80.7672219146014,1.3601971107024766,27875.457944505095,0.7351875637226931,5.15219212076735,237.51622843218362,0.5365853658536586,0.5555555555555556,0.8222222222222222,0.19047619047619047,52.23140495867769,52.302705927308246,52.159588392300705,48.148148148148145,0.48175049532410924,0.5182495046758907,76.28146891611355,79.11838439958187,0.5995488591590388,0.4004511408409612,62.538496420382344,51.11047447715871,0.5230601581677312,0.47693984183226873,69.74928685844097,66.60330078637354,0.43146429421335125,3.6061033749391207,1.4286241942441438,1.7911330992515762,-0.8364773892608248,-0.9217715195660424,-0.39947351273213233,0.016781694379256612,1.4618998750574292,0.6204157949058575,1.2253639943072536,6.10444362044536,0.8453739729165048,1.349070911569048,1.2143243169310607,1.4519620592269535,1.6289233577022735,1.933494582119572,3.082339649382456,1.0854357081055264,Stress
83.02422340033911,725.9629629629629,91.52191601529718,,,,,,,128.0600933155993,128.76329413975674,0.12606967667022212,0.1764003122045396,715.0,63.751799999999996,0.08916335664335663,87.0,0.714679441859728,671.0,775.0,34.5679012345679,54.32098765432099,525.0,1004.9999999999999,11.571428571428571,210.9375,,,0.02641482100072035,0.13708535895368776,0.07448020731621928,0.23798038727062737,0.1926888560699192,0.11099578962648653,0.5760363722654025,-1.9871514891179813,91.04939845414003,87.05865865879368,1.0458396655407607,24902.26928274125,0.9561695094849372,5.103209035052156,332.9713397847813,0.5802469135802469,0.5897435897435898,0.8913043478260869,0.22727272727272727,53.26585481575202,53.56710680597807,52.979159662687046,47.43589743589743,0.45856895570032724,0.5414310442996729,61.70673803554471,67.0504722040405,0.6103182316111543,0.38968176838884566,68.01271993664405,54.3459287738095,0.5309835845566658,0.46901641544333417,64.93632108522826,61.02968866491448,0.5398774076475893,3.4665363111007856,1.4900604046000725,1.7466364119953095,-0.8518931976513962,-0.7280701712179105,-0.42598490701695196,0.012008248018478619,1.2124031871834777,0.6043146506769914,1.2878542883066382,6.058925465820876,0.8587934287070407,1.2965789296634342,1.2962898602753303,1.5057526424934744,1.6700337927252613,1.8654325232677786,2.440566853800058,1.017506790586421,Stress
83.135119761105,725.4938271604939,82.79041663393023,,,,,,,120.92988671126753,121.66659087622632,0.11411594907425081,0.16668630687675776,727.0,62.2692,0.08565226960110041,76.0,0.68461501854873,677.0,770.0,32.098765432098766,51.85185185185185,525.0,966.0,10.125,218.75,,,0.027992336127061233,0.1303549155648022,0.04213924006120488,0.20048649175306832,0.21473939824805185,0.13962205574198155,0.6501930101373385,-2.0374944288050023,86.03127145242895,78.43739693119456,1.0968144637422856,21199.68395676285,0.9117312299001249,5.033299496510494,286.0552974969692,0.5802469135802469,0.6,0.9166666666666666,0.16,51.711220841137425,51.732634035378396,51.675590866668905,46.25,0.47114297265717486,0.5288570273428251,59.06448953517361,62.57764796887508,0.5488844278759321,0.45111557212406783,58.11170627720188,52.68258565118067,0.5064235250808536,0.4935764749191462,58.59003469233662,57.84209909836625,0.5867306276248921,2.804463320905149,1.431320857581876,1.4656241437180335,-0.34838306206629355,-0.2694971491082685,-0.4877683241993388,0.007873400740049049,0.784724421298812,0.5566756217278601,1.1831696766961728,6.182382255944334,0.8162684073646207,1.2832271254565226,1.068504162117289,1.5459488843367954,1.6872090387691567,1.8603897341448616,3.1977835593603605,0.9392370374643888,Stress
82.70800625794888,727.1728395061729,67.38282238884342,,,,,,,86.34292096055125,86.83345035909736,0.09266410779946549,0.11873782444788121,727.0,42.9954,0.059140852819807424,58.0,0.7804093449610026,694.0,764.0,22.22222222222222,43.20987654320987,525.0,966.0,10.125,218.75,,,0.043498182003857244,0.15174396100538703,0.04406991497259669,0.23931205798184096,0.2866551111204552,0.1817634362876855,0.6340840586348615,-1.8855606455155383,61.40052158274318,70.27611906894407,0.8737039323771775,13555.942033018335,1.1445524770378401,4.839099813031079,321.7388246278645,0.5679012345679012,0.5875,0.8723404255319149,0.16666666666666666,53.20041972717732,53.58858227363786,52.82172048365439,43.75,0.49922536250352134,0.500774637496479,43.410172056497125,43.47747852900977,0.5703204154245478,0.42967958457545224,53.072216890725436,46.06596037961438,0.5395215470334804,0.4604784529665195,48.48248778513169,44.79042221801837,0.7270140338770963,3.1626179326172528,1.539378392805855,1.6235530517841616,-0.9092276133984338,-0.48349069439865255,-0.47338449955962675,0.0049749508045216035,0.7962230523235927,0.6420950290019816,1.09861228866811,6.015594910211902,0.8430839702667293,0.6597643324038147,1.0628918728216235,1.3880189694215077,1.5900654146928186,1.799439878179303,2.002565368910965,0.9392370374643888,Stress
83.34436577661737,721.4938271604939,82.60101746600796,,,,,,,107.3031336914258,107.93756912731509,0.11448610418621591,0.14872356443259852,724.0,42.9954,0.05938591160220994,53.0,0.7697912877693367,685.0,762.0,23.456790123456788,40.74074074074074,472.0,1048.0,11.571428571428571,234.375,,,0.021434668610494007,0.17051536491191593,0.02117447627389301,0.21312450979630296,0.12570520329101503,0.10057345647847131,0.8000739336591959,-1.7689298695334084,76.32338707471624,86.76908054490144,0.8796150264058665,20805.22914303056,1.1368609789285093,5.025142613316218,394.5775273960133,0.5061728395061729,0.525,0.7857142857142857,0.08,52.69997759354693,53.18123489913257,52.27770127212506,45.0,0.5113964892624933,0.4886035107375067,54.60189638288761,53.37122203746277,0.5486612414764975,0.45133875852350236,64.27130769542305,58.292987105893346,0.5323986089452649,0.46760139105473525,59.63291071835812,55.88631177444079,0.655063531015364,3.4850572609983694,1.578133925332582,1.6047313681531177,-0.8609984134939115,-0.17610695796485754,-0.4923681475428853,0.006552559284882498,0.9935248371240099,0.5733232871932086,0.9963334395476916,6.083616823845568,0.7716300901790139,1.1494587684262223,1.1131522582012092,1.1364365177566433,1.3596044979355588,1.809684842736776,1.9855476784192074,1.0957765437084537,Stress
83.4348487166306,725.9753086419753,103.07193790123503,,,,,,,154.18008950574648,155.11942316498593,0.14197719491871366,0.2123764922448382,725.0,44.477999999999994,0.06134896551724137,56.0,0.6685165265609306,674.0,769.0,34.5679012345679,48.148148148148145,452.0,1079.0,11.571428571428571,328.125,,,0.039048212215907666,0.03436254232121038,0.004380829046002754,0.0777915835831208,1.1363598144426306,0.5019593433804366,0.4417257078266544,-3.3707881938811894,109.68599601370718,93.35192532575488,1.1749730456115821,32168.020390169277,0.8510833535585429,5.21439444534063,317.8010786695605,0.5679012345679012,0.5875,0.851063829787234,0.19047619047619047,51.84597634842804,51.79114196689968,51.913090344697444,43.75,0.4864475317081379,0.5135524682918622,76.51784767397882,78.62074483867055,0.5903059019657831,0.4096940980342166,71.72356074086186,59.752094496153155,0.5300643058271441,0.4699356941728558,74.15945717845541,69.82669373407478,0.5848465378810475,1.8033813926335625,1.2525664848075042,0.9946955569206939,0.38514212837147177,0.42518711677530185,-0.6429930068814946,0.00608314315013614,0.3854968323281539,0.4967398516167867,0.8730619973233352,6.049605867028736,0.7697325967304541,0.8626013072605657,1.0428517504167787,1.0390419252555572,1.1830296372273723,1.9494037147545422,3.0537018332428603,1.2523160499525183,Stress
83.5951369955978,722.4691358024692,106.36436038680357,,,,,,,156.47795371872678,157.42117979516374,0.14722339698105072,0.21658773498320008,725.0,45.9606,0.06339393103448276,62.0,0.679740230869815,682.0,769.0,37.03703703703704,49.382716049382715,447.0,1079.0,10.125,304.6875,,,0.012216664626506673,0.14269388913134323,0.024050036198676735,0.17896058995652664,0.08561449057753125,0.06826455271227237,0.79734811539237,-1.9470535786023873,111.31358373554698,99.71475774123108,1.1163200538922826,34870.443920455065,0.8958004440691463,5.249427586187118,357.29809705936856,0.5432098765432098,0.5625,0.7777777777777778,0.14285714285714285,51.998919502971354,52.616296427034534,51.3859173774439,42.5,0.4235379522857546,0.5764620477142454,72.46291063517612,84.53858380585007,0.6496689240834751,0.3503310759165249,80.37213132467551,59.01994084817028,0.5241807191014904,0.4758192808985096,76.51977819947078,72.90447712459178,0.46241125625994894,1.655273161634532,1.1602983488164826,0.8866114640773878,0.6972422440128092,0.5302502804178035,-0.6653424287196424,0.008210575422745387,0.42303883555576016,0.5296101295224838,0.8898574748059994,6.058925465820876,0.8235171360548187,0.8735422464148337,0.8884265437543715,0.9291265108130625,1.3039043762535714,1.9311244263215994,2.5082965491758182,1.017506790586421,Stress
85.52384327362353,707.277108433735,117.89281130497541,,,,,,,183.90678975250796,185.03552561396194,0.16668546160931041,0.2600208426931412,712.0,56.3388,0.07912752808988764,82.5,0.6410465402807005,645.8000000000001,749.6,45.78313253012048,54.21686746987952,435.0,1079.0,9.222222222222221,257.8125,,,0.008635137787520302,0.11618520223658285,0.01272368355543784,0.13754402357954099,0.07432218235448734,0.06278090143645279,0.8447128360280486,-2.152569790035283,130.83987492204957,104.61463387114624,1.2506842501901305,43001.38388668686,0.799562319464708,5.340452542394413,334.58367723185955,0.6265060240963856,0.646341463414634,0.8679245283018868,0.2222222222222222,49.56220728975769,50.23406020109464,48.94808986673694,45.1219512195122,0.386311288031211,0.613688711968789,81.32346631101939,102.49938271419065,0.6845283768329781,0.3154716231670221,86.55420418001,58.75875559232952,0.5026087228232277,0.4973912771767722,83.9795702360829,83.54254848743017,0.36515978149743317,3.5351516249962014,1.3136087916125039,1.8067626710942504,-0.7859239732928884,-1.0684572299354103,-0.3604999355629403,0.025027327850569644,1.640361796352899,0.5671793671700605,0.9322545828631693,6.10997919038307,0.9734399969069331,0.9266618355211902,1.0294659111657356,0.9545366145632052,1.24488629884231,1.9675780758800268,3.96468441678819,1.0753078558898426,Stress
85.71464191766907,706.547619047619,129.83960492203818,,,,,,,195.5078958748152,196.69430376377917,0.1837662479098771,0.276708732156436,694.5,80.0604,0.11527775377969762,109.0,0.6641143793249926,621.6,751.6,54.761904761904766,63.095238095238095,435.0,1079.0,10.5,257.8125,,,0.011338006167960843,0.11175230679598505,0.021872750508109433,0.14496306347205531,0.10145657385542385,0.07821306956683129,0.7709019395656443,-2.191470403231847,139.0838760121349,115.79836141084371,1.2010867366134481,50597.50149128206,0.8325793379582004,5.411099181834404,385.6452923203387,0.6547619047619048,0.6666666666666666,0.9074074074074074,0.2222222222222222,50.32990234890472,50.85199118466499,49.87177781679301,49.382716049382715,0.4092954629055547,0.5907045370944453,88.98153412160381,106.89726091085731,0.644105774367613,0.3558942256323871,92.9353652898139,69.08167907546277,0.5054251813578472,0.4945748186421528,90.97993057863171,89.99806324063073,0.4474375146599553,3.996682989715473,1.379579469370209,2.0428755606777504,-1.6833996438717698,-1.7865922620460157,-0.3340383530506727,0.0196453349741853,1.7052594662929714,0.5889223663623495,1.4190841839428814,6.154222184683521,1.180604300690923,1.2326997435832836,1.2362757410645187,1.3481368798899518,1.4307481262710406,1.9715755828583617,3.60221733971255,1.2936832879433207,Stress
85.03964259293986,714.9878048780488,137.58503488661685,,,,,,,209.14422928203234,210.3371859422947,0.1924299043255485,0.2925144007424082,707.0,72.64739999999999,0.10275445544554454,101.5,0.6578476267737827,621.0,769.8,53.65853658536586,63.41463414634146,435.0,1079.0,10.25,257.8125,,,0.006815685601469185,0.10246805100227782,0.021657556601289398,0.1309412932050364,0.06651522630519903,0.05205146088481608,0.78254955708912,-2.278204226530202,148.7308505154923,119.5357306208555,1.2442375994441206,55853.279002353396,0.803705016185625,5.4540187844738695,384.28586525358065,0.6585365853658537,0.6708860759493671,0.9245283018867925,0.29411764705882354,52.30717413270462,52.902553022196905,51.79148935457302,48.10126582278481,0.43413153540766886,0.565868464592331,98.04807494285646,111.94021842036936,0.6683468009418867,0.3316531990581131,97.72342443878061,68.83983738373922,0.5259897056644538,0.4740102943355466,97.8858842837977,92.92345159059596,0.3932457677174381,5.342890078237393,1.5295610838649072,2.7495592308791106,-2.437108519619578,-2.7240559894825704,-0.27165950840286085,0.06301722805828681,3.839673744166345,0.5185272638973273,0.9808292530117262,6.080053376542919,1.083645496201074,0.8520153961757104,1.1962726386898443,1.9214505492265754,1.316183392749796,1.9707338680667186,3.0895712194585903,1.162966830113064,Stress
84.7383174837868,717.9268292682926,136.8676733638903,,,,,,,217.8112219217865,219.09380566098244,0.19064292875554623,0.3033891659178953,721.0,81.54299999999999,0.11309708737864077,120.5,0.6283775103793224,620.2,789.8,56.09756097560976,68.29268292682927,435.0,1059.0,13.666666666666666,257.8125,,,0.010348416544364336,0.07266815714123417,0.028923601367180224,0.11194017505277873,0.142406481070542,0.09244595641810598,0.6491695864060587,-2.6218519939536065,154.9227156988483,112.10783361578571,1.3819080317776642,54563.33839673432,0.723637157469601,5.44387104424448,324.5015761912086,0.6585365853658537,0.6708860759493671,0.9245283018867925,0.19047619047619047,51.80590452261307,52.48034398724513,51.1610239794581,51.89873417721519,0.43133668854319024,0.5686633114568099,101.78199742587095,116.86659060655444,0.6618556715977303,0.33814432840226977,91.20478159418194,65.19090559566003,0.5105264673511689,0.48947353264883103,96.63820979727022,94.62466425933107,0.3040017034585608,4.409958193401284,1.3265501116939602,2.245814983554787,-1.300146910371737,-1.7124834627237253,-0.2915479395617985,0.05538834224239863,2.9427967601631564,0.5109854121985862,0.8792494601938061,6.104443620445359,1.140968367362539,1.0348872430100071,1.3472368628308125,1.7046323257651772,1.352621483044718,1.9924722404565296,3.269245371792592,1.2404979521206017,Stress
85.22425532569265,709.9756097560976,126.64444011715071,,,,,,,192.33618972139178,193.48172545855525,0.17837857861153522,0.27090534812522116,703.5,98.5929,0.14014626865671642,144.75,0.6584535146536972,616.8,787.4,56.09756097560976,67.07317073170732,435.0,1059.0,16.4,265.625,,,0.011400990762775117,0.0740375380762506,0.02758586480253535,0.11302439364156107,0.15398932837330892,0.10087194804098264,0.6550580427004892,-2.6031830430958753,136.8122401074183,112.94572265221953,1.2113096175291924,48545.012257895156,0.8255527616793649,5.393114725047223,372.9706130216457,0.6341463414634146,0.6455696202531646,0.9019607843137255,0.2,51.662707838479804,52.58372985155483,50.78209007366857,49.36708860759494,0.393583407031654,0.6064165929683459,85.85427333569365,106.56855188093719,0.6836017507789817,0.3163982492210184,93.38376328503317,63.53116573900551,0.511091444097254,0.48890855590274584,89.69805877296093,87.7298845039619,0.33113428493570646,5.0464474353074245,1.3181048096808952,2.6161151963429727,-2.461144957791456,-2.9212212409066867,-0.24278729674650726,0.060323615970622496,3.512835265570832,0.5544216254973207,1.0895624531481918,6.037251242343809,1.2128473557772832,1.0944402561654472,1.1639942145688404,1.4948562956328273,1.5775700581808478,1.9701971073591704,2.9093602207583613,1.162966830113064,Stress
82.39567450788384,732.8875,139.59997041728315,,,,,,,193.29861466233984,194.52581849299594,0.19047939883990808,0.2637493676210057,720.5,114.9015,0.15947467036780014,161.0,0.7221985044287089,620.8,819.4,57.49999999999999,71.25,496.0,1131.0,20.0,125.0,,,0.03029891130866641,0.10286558709101434,0.049908686246560835,0.1830731846462416,0.2945485673635272,0.16550163459063655,0.5618823274953398,-2.2743321226789055,137.55052537226095,138.42959700454932,0.9936496843788436,59819.266135051475,1.0063908998523219,5.483811190749156,557.2571467824107,0.6125,0.6233766233766234,0.9375,0.17391304347826086,50.62568008705115,50.929003426118435,50.34026035323127,51.94805194805194,0.41536067679748934,0.5846393232025108,88.65284498016362,105.17777989963176,0.5769672632642723,0.4230327367357278,105.14885326809949,90.03594828314752,0.4966754261881899,0.5033245738118101,97.25124232284449,97.90004435101395,0.2926925912720531,4.165917499241835,1.2480790265713373,2.0327153551075328,-1.1927324020584358,-1.3936612740623633,-0.3116534164013105,0.0429125564644658,2.4327300919627843,0.49116474892097495,1.1104467463151126,6.053055907333273,1.1426518766695115,0.8691248534150192,1.2450034358312483,1.6443903046602353,1.6423481979664867,1.9780415128593356,4.263564679707953,1.1853615177913803,Stress
81.2537353325758,743.5189873417721,126.7339086796339,,,,,,,178.9121328531167,180.0265737775045,0.17045147580256526,0.24062886879696654,734.0,80.0604,0.10907411444141689,108.0,0.7083583804999961,655.4,800.2,48.10126582278481,67.08860759493672,507.0,1131.0,15.8,179.6875,,,0.015307681495601615,0.1260927371423597,0.031168370205609742,0.17256878884357105,0.1214001840432659,0.0887048092426355,0.7306810112497188,-2.0707376336861576,127.29801111185373,125.26717800012851,1.0162120129482213,50096.66148981505,0.9840466233997892,5.406778894813836,493.07497413538727,0.5316455696202531,0.5512820512820513,0.8604651162790697,0.08,51.61595957469207,51.97036885040591,51.225813835556124,50.0,0.4381676943380282,0.561832305661972,84.28434403464648,95.43992466876333,0.5702573574813055,0.4297426425186946,94.59599343009708,82.11859662152605,0.5031345032381975,0.4968654967618023,89.58865057131294,89.0287681928379,0.52646780923463,3.6277102264959313,1.3332375767878066,1.9383733933243656,-1.3357150121568289,-1.429702015472623,-0.33319069640215715,0.015891707458173237,1.3943047826698276,0.5241543269310993,1.0216512475319812,6.117010020301616,1.0037645205378682,0.922271936014136,1.0518072410592971,1.6083334354808252,1.5916935969239934,1.9130649408212408,3.03786180645361,1.0373310091937005,Stress
81.47471597902575,740.3037974683544,119.27068486197955,,,,,,,164.59857930034605,165.65264622335255,0.16111045934095453,0.22233923405935532,738.0,77.09519999999999,0.10446504065040649,99.5,0.7246155183657093,659.0,795.4000000000001,45.56962025316456,65.82278481012658,507.0,1131.0,13.166666666666666,234.375,,,0.01961604376175336,0.11728182458432602,0.01511201982993674,0.15200988817601613,0.16725561553358476,0.1290445246498665,0.7715407595624464,-2.143175483458622,117.13410946602872,121.0939728052154,0.9672992532373491,44561.08742426081,1.0338062359225528,5.3559258903454525,500.75081687467076,0.5189873417721519,0.5384615384615384,0.8095238095238095,0.08333333333333333,50.87822014051523,51.10392235692085,50.61528028367127,53.84615384615385,0.43552618503428403,0.5644738149657161,77.30723828277071,88.01058820598597,0.5322482309475248,0.46775176905247495,88.34452518116726,82.81905046705347,0.4854911951403029,0.514508804859697,83.00953023718115,85.45425313180142,0.6195836539429992,3.3278360248586116,1.4231471855435895,1.777826803012415,-0.7314117184162079,-0.5996976245546923,-0.39342034438614076,0.01295748806714113,1.1473986216650807,0.4625775282206024,0.862223510603879,6.151882013999886,0.9654800799484815,0.8160812748395389,1.3231774625126527,1.669754113625696,1.4956405504652033,1.900425377745048,3.651677610935034,1.1171257022086005,Stress
82.01898960107879,736.620253164557,121.74861698761354,,,,,,,159.62122633733867,160.55539479735583,0.16528002924787294,0.2166940504983375,724.0,97.85159999999999,0.13515414364640882,120.5,0.7627345045596486,640.0,812.2,53.16455696202531,70.88607594936708,507.0,1131.0,13.166666666666666,226.5625,,,0.021514958602587494,0.0863160976893867,0.00936479801877093,0.11719585431074511,0.24925777668970017,0.18358122588142517,0.7365115276221234,-2.4497391665450334,113.52980841729364,125.94441797970411,0.9014278698369063,44919.89179439907,1.1093511011379404,5.359408811399119,558.8663150718471,0.5443037974683544,0.5584415584415584,0.8372093023255814,0.12,52.46808991302384,52.439736686475236,52.4806286254535,51.94805194805194,0.5181862141527666,0.4818137858472333,81.77499220818886,78.8528137339831,0.48602635686619444,0.5139736431338056,87.80289478574714,90.29201563532311,0.5004533570052015,0.4995466429947985,84.84249431566215,84.76560128158022,0.5356047639777932,2.509779001326594,1.192933351017791,1.277380242195171,-0.0032105028806270752,0.2587410192829227,-0.46635285770868923,0.007825647048424969,0.6491244601024931,0.36719428953187094,1.0479685558493546,6.126565558303685,1.0970083172489884,1.076602434617399,1.1417973538966422,1.3359883928045293,1.5808764280669751,1.9152975927284779,2.66239947125486,0.9575363161788004,Stress
80.9580176614047,743.5875,130.63919718741442,,,,,,,177.82657602068514,178.88247979444475,0.175687726309835,0.23914680655697568,746.5,96.369,0.12909444072337575,129.25,0.7346438317083618,633.8,823.8,57.49999999999999,75.0,498.0,1131.0,13.333333333333334,265.625,,,0.01296977837094708,0.15273320140461757,0.007419402904844824,0.17312238268040947,0.0849178715018735,0.07491681994054915,0.8822267753013133,-1.8790626614159198,126.48901449811746,131.86669365125815,0.9592188216429935,52400.785677897635,1.0425149897362884,5.426307908644324,549.8920191135986,0.5375,0.5512820512820513,0.8372093023255814,0.125,47.915222343270294,48.064359048970715,47.74039198670029,50.0,0.40484180162927835,0.5951581983707215,80.51755661392689,97.62569150088332,0.5280455105998708,0.47195448940012913,95.82322745637299,90.59102590410913,0.4689794062958078,0.5310205937041922,88.5018865426967,94.17406653475417,0.7190016106065809,3.2868265821093723,1.3910293274346612,1.9193922426694001,-0.9762305420815824,-0.8655513411499456,-0.3392483138262641,0.015331265694963167,1.1554699293377935,0.37290985181181124,0.8602012652231117,6.22192809488736,1.112437601498042,0.6405851697964242,1.0439111073447482,1.265912496377238,1.6431873804427077,1.9342844528150986,3.6653764725299274,1.1853615177913803,Stress
80.22381605632233,752.8333333333334,132.4279188073787,,,,,,,194.97402424392365,196.22198046751015,0.17590602453935622,0.25898697043691427,753.0,92.6625,0.12305776892430279,121.75,0.6792080089689475,664.2,825.4,61.53846153846154,75.64102564102564,515.0,1131.0,13.0,187.5,,,0.038907599148967846,0.05122337507855838,0.03603002242952244,0.12616099665704866,0.7595672696166051,0.308396415531916,0.40601593547807874,-2.9715593066183144,138.74989300643068,124.58131247356079,1.1137295815203168,54304.45150021704,0.8978840255234415,5.44180554144273,447.438281395018,0.5769230769230769,0.5866666666666667,0.8636363636363636,0.22727272727272727,48.81069921910063,48.7261900598015,48.85768265478298,52.0,0.4570521788295421,0.542947821170458,93.81736176434003,102.25378000991353,0.4962667169901177,0.5037332830098823,87.76280121500008,88.42055270428575,0.4745525738511457,0.525447426148854,90.84053788239221,95.5877336974969,0.3336049300159481,2.6171523023051657,1.0329096884211737,1.2779383099871726,-0.11618935190554502,-0.25166854174481634,-0.4063758645799178,0.012239910403419272,0.8350584598324821,0.4178362108859397,0.8403048248962325,6.0962369944755395,1.1300975911451554,1.0086609702349536,0.993672163057941,1.03983671119428,1.3934647574103356,1.9983446686907287,4.901584298754602,1.208731195935048,Stress
81.4399487824679,742.620253164557,120.83409942789524,,,,,,,186.08737953045826,187.25341694570528,0.16271317529111295,0.25058214981005,738.0,84.5082,0.11450975609756098,118.5,0.6493406470271534,660.2,818.8,58.22784810126582,72.15189873417721,520.0,1066.0,13.166666666666666,242.1875,,,0.037268244192150315,0.04890515427654201,0.055359479687979316,0.14153287815667165,0.7620514594721667,0.2633186343521945,0.34553917728152056,-3.017872483627705,132.4081609226602,106.76717396854444,1.2401579624245749,44412.20887472574,0.8063488928821186,5.354472483636444,344.3663701027535,0.5569620253164557,0.5657894736842105,0.8372093023255814,0.2631578947368421,51.40347527210235,51.75599995039059,51.02450097896293,53.94736842105263,0.46027654696885345,0.5397234530311467,89.84900753956137,97.2947723532602,0.5722650805742927,0.4277349194257075,80.767449832101,69.82727608068701,0.5043904356747096,0.4956095643252906,85.42899129752472,84.68211503062855,0.44676482963410924,2.1064317087545024,1.072992790302544,1.3114398104378726,0.1430990507481127,-0.47896067317664737,-0.3868004981389507,0.009934777735749545,0.6270241282911787,0.4534023143969703,0.9734491457141035,6.177198469696089,1.1050783490538603,1.0281369846029151,1.0814140807990391,1.2347827606148118,1.624038975052298,1.9511017152353352,3.1908894128677288,1.2767150882384006,Stress
80.66596141719506,752.7820512820513,135.03569969878407,,,,,,,210.70071715063574,212.04872552292983,0.17938219896290952,0.2798960426750275,753.5,104.52329999999999,0.13871705374917054,148.75,0.6408886572618703,629.4,829.4,69.23076923076923,78.2051282051282,520.0,1066.0,19.5,54.6875,,,0.019775216958415602,0.06022757589683482,0.05085451613192679,0.1308573089871772,0.328341572177652,0.15112046175696145,0.4602538166418855,-2.8096249601740326,149.94109175922864,116.44472094028083,1.2876589900209092,54851.732054917025,0.7766031284290275,5.446160455819945,361.7253382850687,0.5769230769230769,0.5866666666666667,0.9090909090909091,0.25,51.157759794888236,51.21184282498229,51.082200024647086,52.0,0.4649237844967774,0.5350762155032223,102.25403736720979,109.69767065607374,0.5589592677329808,0.4410407322670193,87.05824040539528,77.33198440733482,0.5002941928304933,0.4997058071695068,94.96058492969158,94.90472791106009,0.4020516670291596,2.465535473387942,0.874465489764158,1.4960726066003538,-1.0659837633862441,-1.79057497275804,-0.24788149529966697,0.007583386208911912,0.6595117656391785,0.499368125829434,1.401798547655856,6.131556065016094,1.4815206444560727,1.1532305698140184,1.1542265910201657,1.397650407798384,1.7508966784342934,1.9904731623917404,5.7950390824821785,1.208731195935048,Stress
