PPG_Rate_Mean,HRV_MeanNN,HRV_SDNN,HRV_SDANN1,HRV_SDNNI1,HRV_SDANN2,HRV_SDNNI2,HRV_SDANN5,HRV_SDNNI5,HRV_RMSSD,HRV_SDSD,HRV_CVNN,HRV_CVSD,HRV_MedianNN,HRV_MadNN,HRV_MCVNN,HRV_IQRNN,HRV_SDRMSSD,HRV_Prc20NN,HRV_Prc80NN,HRV_pNN50,HRV_pNN20,HRV_MinNN,HRV_MaxNN,HRV_HTI,HRV_TINN,HRV_ULF,HRV_VLF,HRV_LF,HRV_HF,HRV_VHF,HRV_TP,HRV_LFHF,HRV_LFn,HRV_HFn,HRV_LnHF,HRV_SD1,HRV_SD2,HRV_SD1SD2,HRV_S,HRV_CSI,HRV_CVI,HRV_CSI_Modified,HRV_PIP,HRV_IALS,HRV_PSS,HRV_PAS,HRV_GI,HRV_SI,HRV_AI,HRV_PI,HRV_C1d,HRV_C1a,HRV_SD1d,HRV_SD1a,HRV_C2d,HRV_C2a,HRV_SD2d,HRV_SD2a,HRV_Cd,HRV_Ca,HRV_SDNNd,HRV_SDNNa,HRV_DFA_alpha1,HRV_MFDFA_alpha1_Width,HRV_MFDFA_alpha1_Peak,HRV_MFDFA_alpha1_Mean,HRV_MFDFA_alpha1_Max,HRV_MFDFA_alpha1_Delta,HRV_MFDFA_alpha1_Asymmetry,HRV_MFDFA_alpha1_Fluctuation,HRV_MFDFA_alpha1_Increment,HRV_ApEn,HRV_SampEn,HRV_ShanEn,HRV_FuzzyEn,HRV_MSEn,HRV_CMSEn,HRV_RCMSEn,HRV_CD,HRV_HFD,HRV_KFD,HRV_LZC,Labels
87.81654619444845,686.3837209302326,118.91283694663784,,,,,,,150.55032381233858,151.44250649374914,0.17324542135917692,0.21933842429756759,678.5,48.1845,0.07101621223286662,64.0,0.7898544083828278,634.0,718.0,25.581395348837212,63.95348837209303,354.0,1514.0,10.75,328.125,,,0.025982684712691013,0.1010271160005345,0.018260118214325226,0.14526991892755073,0.25718525620936805,0.17885798315650706,0.695444154897057,-2.2923663229210924,107.08602330161774,130.88791097001754,0.8181506031229111,44033.39793204676,1.2222688539041138,5.350752309984079,639.9208677249081,0.5581395348837209,0.5662650602409639,0.7872340425531915,0.23809523809523808,50.444258172673926,51.327187524629515,49.37721013227713,49.39759036144578,0.37311652536984335,0.6268834746301566,65.41220033281981,84.78712840317887,0.6385016533730188,0.3614983466269813,104.58768478900282,78.69600643343617,0.5320886151851175,0.46791138481488254,87.22768987513301,81.79828412451134,0.9485340525702766,1.0587484060872603,1.317286683099888,0.8900876782999494,0.8112777009058751,1.0214997791020273,-0.9034943546018709,0.004819181535139686,0.1969321761187782,0.7440671755972357,0.9890500861565833,6.115161411653685,0.7070405146734039,1.093115098575731,1.09141173926934,1.031756242213311,1.211610962224775,1.8847861913864086,1.7837047194768019,1.0461361228584811,Relax
89.10186592949705,677.264367816092,130.95947001019633,,,,,,,152.61743476860315,153.5100530535668,0.19336536252820813,0.22534396023333345,672.0,48.925799999999995,0.07280624999999999,65.0,0.8580898388755885,628.4,704.8,27.586206896551722,65.51724137931035,336.0,1514.0,9.666666666666666,367.1875,,,0.03414409669270467,0.08807927517177631,0.008971404808665765,0.13119477667314675,0.3876518809460598,0.2602550006832198,0.6713626670611543,-2.4295180158048386,108.54799949448375,151.03041453598374,0.7187161594436441,51503.42503417498,1.3913698570157333,5.418806221022052,840.5566651118345,0.5057471264367817,0.5176470588235293,0.7272727272727273,0.13043478260869565,50.573306833817455,50.93537999337012,49.895961268060084,48.23529411764706,0.4204752688182778,0.5795247311817221,70.38808388456938,82.6351655666962,0.5842938414018958,0.4157061585981042,115.44631335895303,97.37728095781634,0.5284944145147206,0.47150558548527927,95.60944937900949,90.30754518580602,0.9862301899629158,0.7905606992544116,1.1130058575014377,0.8327923670147753,1.0,1.2593442884170063,-0.8544490521106544,0.0024014473364986186,0.09432820911873152,0.7460837502576667,0.9459825216815586,6.066450536053747,0.721494940111397,1.0341640982379314,1.0330727239789705,0.9556546770898965,1.1004258940304767,1.9319053838284843,1.8761931985208662,1.1108523268704704,Relax
88.87684707898927,678.6206896551724,134.81626095587836,,,,,,,162.57323930934908,163.5256682788562,0.19866217315652807,0.2395642245920286,672.0,57.8214,0.08604375,73.5,0.8292647764700442,626.4,716.2,35.63218390804598,71.26436781609196,336.0,1514.0,8.7,343.75,,,0.04979455644214721,0.12849703955214578,0.008719152142472203,0.18701074813676521,0.38751520358521513,0.2662657464250735,0.6871104513103866,-2.051849413416955,115.63010893804112,152.94026734708223,0.7560475141293592,55557.494573527954,1.3226681938787523,5.451712762480471,809.156908733195,0.5287356321839081,0.5411764705882353,0.782608695652174,0.13636363636363635,50.33815143880121,50.780366360963804,49.6501902799178,45.88235294117647,0.41442948369654886,0.5855705163034511,74.43876283069666,88.48373064148738,0.5897156889052578,0.4102843110947422,117.44734023900968,97.96350160635994,0.5259619869337079,0.4740380130662922,98.32346398744912,93.34403632588045,0.7931090201905713,1.5680074170475309,1.2253351824782701,1.0211745639143979,0.008125864332651389,0.2908297546281102,-0.6302038602268191,0.0020643077947766516,0.18069518683687574,0.7642304627640768,1.0726368022648491,6.070937427152173,0.8098941902994505,1.0828657020747485,1.099649488916329,1.2315996466166548,1.2090726835840477,1.9193940879962037,1.9411200717100499,1.1108523268704704,Relax
88.02773872242975,684.3604651162791,159.88752758557553,,,,,,,167.895590805014,168.80310493380776,0.23363057297357054,0.2453321010828511,672.0,65.2344,0.097075,84.5,0.9523033143333784,617.0,725.0,40.69767441860465,70.93023255813954,336.0,1514.0,9.555555555555555,343.75,,,0.05400023573724766,0.11412971089520245,0.006601899764704702,0.17473184639715483,0.47314792365357344,0.3090463292793714,0.6531706340227904,-2.170419662538189,119.36182018403983,185.51110901675796,0.6434214145809316,69564.10905759565,1.5541913547458044,5.549355337236304,1153.2790473726066,0.5,0.5176470588235293,0.7272727272727273,0.09523809523809523,52.9660474055093,52.45154769856789,53.12897972839522,44.70588235294118,0.45295211845785105,0.547047881542149,80.37486577045742,88.32970567573462,0.6245866508576572,0.37541334914234264,146.61090368529892,113.66448209184541,0.5742977184476056,0.42570228155239453,118.22621563561748,101.7883868473446,0.6434865742469013,1.6773508750589907,1.1887429179031435,0.9004699936481535,0.4535295117006104,0.7691230734545675,-0.671862028715281,0.003218004598661459,0.2688218706967142,0.7230719664691692,1.0451236037171237,6.0819666096505065,0.8350811726003524,0.8379416941304985,1.0642593436786651,1.0511907322508522,1.2161456271314306,1.9031065745607065,2.0654869661212865,1.0461361228584811,Relax
87.47375808265956,694.297619047619,166.7775937510651,,,,,,,191.89373314227097,193.04316798998852,0.24021052236912036,0.27638541149758683,681.5,76.3539,0.11203800440205429,103.0,0.8691143322925264,625.2,746.0,45.23809523809524,75.0,336.0,1514.0,14.0,343.75,,,0.021760899628177562,0.0961708164639315,0.008457583716382201,0.12638929980849126,0.2262734208598396,0.1721735911279698,0.760909480546631,-2.3416293304951834,136.50213314745474,192.45919344154606,0.7092523391921692,82533.06475514513,1.4099354274093607,5.6235980823161995,1085.4201406554682,0.5238095238095238,0.5421686746987951,0.7333333333333333,0.09090909090909091,48.864610111396736,48.6646952674501,48.80249427032178,45.78313253012048,0.44217207195829256,0.5578279280417076,90.77652807185615,101.95958070510575,0.5667832225367881,0.43321677746321186,144.89291656921077,126.67511147908321,0.5250732945218626,0.47492670547813765,120.9014791487531,114.98334654592189,0.8932636839958881,1.2874417544413483,1.4262938634792361,1.0011097198654964,0.28071336549404435,0.5396008400442458,-0.8302550520417425,0.002522133254818019,0.14725726979116258,0.7177996817941739,1.078077686226402,5.993391529870105,0.9165680668778128,0.9483232559453786,1.1987940106738986,1.3191621692672335,1.2467345864872195,1.8982913994351418,2.205625705524872,0.9892872201919511,Relax
86.63041125455221,699.1190476190476,159.8521458988888,,,,,,,182.62556334079346,183.73544588841713,0.22864796266571297,0.26122241120843664,695.0,91.9212,0.13226071942446044,116.0,0.8752999469225035,621.6,766.6,50.0,76.19047619047619,336.0,1183.0,14.0,359.375,,,0.05023001065232574,0.1042106154714286,0.026966493764722942,0.18140711988847727,0.4820047403529374,0.276891065153371,0.5744571411281632,-2.261341278926452,129.9205797320337,186.6585304609167,0.6960334435893193,76186.08639572532,1.4367125735268982,5.588845774827689,1072.6986306770102,0.5238095238095238,0.5421686746987951,0.7333333333333333,0.09523809523809523,49.85626283367558,49.66933412367754,50.05156031760835,44.57831325301205,0.5175925069647545,0.4824074930352456,93.47009434351378,90.23722124246166,0.46835839543923385,0.5316416045607663,127.74296643837201,136.0997484176732,0.48442625662985267,0.5155737433701473,111.92614531703575,115.46838878436581,0.8037461445596613,0.5107458236193346,1.024886873774669,1.0042179613726292,1.021024513036826,0.13082670303022503,-0.5404680987023492,0.0027469264203821998,0.07664185732605122,0.6884952602298022,1.1435636765303758,6.192854476324433,1.0269719230835037,0.7778110031836469,1.04755144138126,1.209185884635724,1.3309702275255115,1.9025400112725495,3.132348936319522,0.9131882032541088,Relax
86.93492296007317,697.2823529411764,162.8546395207867,,,,,,,186.8485508436738,187.96901027527622,0.23355623275686901,0.26796684306656554,697.0,72.64739999999999,0.1042286944045911,95.0,0.8715863130083277,627.4,765.8,52.94117647058824,78.82352941176471,336.0,1183.0,10.625,335.9375,,,0.05887499859822842,0.05677821199009163,0.018049005382029283,0.13370221597034934,1.0369294230065347,0.440344224446399,0.42466171243327133,-2.8686026185688953,132.91416181857164,189.24791815678748,0.7023282639677725,79022.76840749898,1.4238356211816738,5.604722350227998,1077.8317084244325,0.5176470588235295,0.5301204819277108,0.7272727272727273,0.15789473684210525,50.32473734479465,50.22667389933259,50.4286581530128,42.168674698795186,0.5121852665175404,0.48781473348245946,95.12373045873223,92.833086384709,0.48267289418397047,0.5173271058160293,131.47935531990595,136.11742596501028,0.49242173524100913,0.5075782647589907,114.7504792402272,116.50308060101007,0.8771351454476521,1.8518380954233211,1.4586551658917912,1.6553939448432924,0.28206254185179347,-0.4226169615161657,-0.3937602701673941,0.008043402804476093,0.5001575241836682,0.7052915068769341,1.3105825393841941,6.18874520081813,1.1022183929776526,1.1004829445775104,1.081015258565841,1.2687705312038695,1.334893320660916,1.8833085869748734,2.8076521720343948,1.1310689887301828,Relax
85.64844451605825,703.9761904761905,154.23022817106323,,,,,,,172.5998226974197,173.5547940263615,0.21908443816365056,0.2451784947168001,705.5,71.1648,0.10087143869596031,95.75,0.8935711854202786,638.6,764.4,50.0,72.61904761904762,305.0,1183.0,12.0,367.1875,,,0.0628240496972221,0.053895329820317174,0.021612191675722682,0.13833157119326195,1.1656677843270018,0.45415554204507025,0.3896097568719178,-2.9207114500842355,122.7217717634747,176.24703414181158,0.696305457626768,67950.60171474551,1.4361513169928617,5.539163416802734,1012.4696407953942,0.5,0.5125000000000001,0.7073170731707317,0.15789473684210525,47.37661182747888,46.42802387077335,48.14431332778564,48.75,0.4893295716136838,0.510670428386316,85.89308442022275,87.74609990638038,0.4304206287491251,0.5695793712508748,115.62942240982908,133.01448686874,0.44967008266081576,0.5503299173391842,101.85230797102783,112.6770423949233,0.877235032641299,1.5312710793879862,1.3910353968883076,1.5120758754778931,0.4069419120576736,-0.33146869422752867,-0.4209542449936671,0.005426382976031086,0.3369153807789152,0.6627280119563306,1.1323504282999597,6.032023821511015,0.9755527523214356,1.5006099705253275,1.2536694961139652,1.3716969092587035,1.3076844560109786,1.8225978316929672,3.0033900769243114,1.141485254067636,Relax
85.46996247057882,707.3132530120482,155.19287195339393,,,,,,,177.68031034114847,178.773731218552,0.21941179709628658,0.2512045541130585,698.0,96.369,0.13806446991404012,131.0,0.8734387713271191,620.4,768.0,50.602409638554214,71.08433734939759,341.0,1183.0,11.857142857142858,359.375,,,0.04189792227966009,0.04339561081818809,0.016212379074949573,0.10150591217279775,0.965487557144828,0.4127633689783065,0.4275180616505759,-3.1373969762115594,126.41211764265928,180.77511103814084,0.6992783293934098,71792.19243672349,1.4300457456867735,5.563047326265108,1034.0667138645895,0.5060240963855421,0.5189873417721519,0.7073170731707317,0.15789473684210525,50.02199736031676,49.8898700281794,50.08844369586149,45.56962025316456,0.4933504946762239,0.5066495053237761,88.7905011046776,89.97928430999144,0.4737541321132805,0.5262458678867196,124.4271467613432,131.13933780404457,0.48018965431924043,0.5198103456807596,108.08762171865146,112.45843126378206,0.8997898501210615,1.8550851085459268,0.8806783158598774,1.6900892125298816,0.2375581283896917,-0.4879554878820216,-0.0636799126135806,0.00801842375225589,0.4938587113039003,0.6766134072312289,1.2276044088592128,6.052691389152187,0.9983648977913557,0.9744102936915009,1.1401329530165838,1.3177435507771924,1.4888645085232821,1.8579354041416385,3.2569361626680102,0.998500151897711,Relax
85.9757855686935,703.7380952380952,150.6561647495749,,,,,,,207.19803111126694,208.45582865617993,0.21407987683060348,0.2944249181809119,695.0,100.07549999999999,0.1439935251798561,133.25,0.7271119515062929,610.6,766.6,52.38095238095239,75.0,407.0,1263.0,14.0,289.0625,,,0.057673946996429096,0.06639686955072374,0.016748340691152143,0.140819157238305,0.8686244906827906,0.409560376070344,0.47150452291346884,-2.71210536893155,147.40053002064585,155.36200983291934,0.9487552985389704,71943.86221866352,1.054012558917925,5.563963858640692,655.0140381705085,0.5595238095238095,0.5750000000000001,0.782608695652174,0.2222222222222222,49.67150920699546,49.664446459753286,49.739729971819905,45.0,0.4910628565013928,0.5089371434986074,103.29309470934709,105.15618465279019,0.4472080621161325,0.5527919378838676,103.89619507647828,115.51162170082497,0.46798323164817923,0.5320167683518209,103.59508377814987,110.45532562689363,0.8028803459578084,1.8874386284066147,0.8436006875925828,1.6004878046374225,0.16591669909569262,-0.541859589856921,-0.0989871640574572,0.0073255949049156055,0.4830513805820179,0.6365272026901478,1.3378419777339439,6.169044952514907,1.0180684680452312,0.998197614259133,1.2295240101685878,1.4658162007996363,1.5898765000052741,1.9077497599936966,2.9927246574710407,0.9892872201919511,Relax
86.5527325683161,700.5833333333334,171.25287497953144,,,,,,,227.38166523875003,228.75680765752537,0.2444432615385247,0.3245604832716784,672.5,116.38409999999999,0.17306185873605948,154.25,0.7531516439538626,592.8,780.8000000000002,57.14285714285714,72.61904761904762,407.0,1292.0,16.8,203.125,,,0.04372433410556062,0.045760372910483835,0.028158430150941067,0.11764313716698552,0.955506507586682,0.37166922914931483,0.3889761359009872,-3.0843367826762336,161.7554899372229,181.77775057033145,0.8898530729405095,92373.97385204928,1.1237810267885138,5.672519736976388,817.1135487329337,0.5357142857142857,0.55,0.7727272727272727,0.2,49.373053942607086,50.0331321553123,48.72587232893115,45.0,0.406266770846417,0.5937332291535831,103.10464137550129,124.64310024636096,0.5800907512991915,0.4199092487008083,138.4486405070275,117.79271855325138,0.50327283089703,0.4967271691029699,122.0626747441962,121.26629165433789,0.6528719964933998,2.484412036353927,1.2700517673972689,1.5285202551992594,-0.2877970030711392,-0.396326947416366,-0.3959639206299638,0.007939929117145035,0.6593637262269502,0.5926769009019655,1.1239300966523995,6.216664000133955,1.1115315171975593,0.9857164328764321,0.9655415623134808,1.0925488618887917,1.5435199681901832,1.9529919454687146,3.2876444613481426,0.8370891863162664,Relax
88.4912456418008,685.7674418604652,160.18340036041812,,,,,,,221.37421073031652,222.66193112930125,0.2335826850073921,0.32281236643392597,667.0,111.93629999999999,0.16782053973013492,144.25,0.7235865452979862,589.0,763.0,60.46511627906976,77.90697674418605,387.0,1292.0,14.333333333333334,289.0625,,,0.03894541628337784,0.03179724254988802,0.013007872023029568,0.08375053085629543,1.2248048308677946,0.4650169483725769,0.3796661612145215,-3.448375705223404,157.44576141362094,162.64719340895346,0.9680201552432924,80450.25404355534,1.033036341840083,5.612497529801936,672.0818467589669,0.5581395348837209,0.573170731707317,0.8297872340425532,0.17391304347826086,51.20927107826672,52.07639862079548,50.25836043155129,46.34146341463415,0.42085090201644154,0.5791490979835586,102.15178948622533,119.83316775933989,0.640765076917566,0.359234923082434,130.19550500616188,97.48456288048892,0.5343677304161896,0.46563226958381043,117.01678857977521,109.23192778496151,0.7387178245483997,2.4542207211038005,1.4013017250084978,1.4514809938096522,-0.16815098468341638,-0.032674405225382674,-0.4795538891960027,0.0049665747919439155,0.5582187549910511,0.6715347632563349,1.499234772300486,6.208184667467639,1.0747530761363868,1.1415223102720884,1.2469507461495586,1.7841114219269074,1.6942540459393909,1.9198743722821179,2.483726856682901,1.0461361228584811,Relax
87.70483673321053,690.7674418604652,156.69916283560335,,,,,,,221.9476355836585,223.26469198929692,0.22684792788374722,0.32130587247407044,665.0,111.195,0.16721052631578948,142.0,0.7060186175154765,591.0,764.0,58.139534883720934,77.90697674418605,387.0,1292.0,14.333333333333334,226.5625,,,0.03348278683179828,0.105622841046293,0.0491060803691859,0.18821170824727718,0.31700327789065286,0.1778995958519635,0.5611916603377465,-2.247880633312104,157.8719777051577,156.97087635102557,1.0057405639509653,77852.75848246686,0.9942922020283104,5.598244115080314,624.2996732054993,0.5813953488372093,0.5952380952380952,0.86,0.125,49.908302767589205,50.45578860251402,49.275906141912294,48.80952380952381,0.4199971627574176,0.5800028372425822,102.31245909328095,120.23209202363965,0.6351966955891489,0.36480330441085107,125.10457675571492,94.80875960153894,0.526980945569349,0.47301905443065095,114.27815716693381,108.26924043689269,0.577181461666163,2.097892540331063,1.1464446239127137,1.2273126526763896,-0.05959309257495704,-0.18216370214048583,-0.4614527306766083,0.0037302168905094563,0.41343964173583214,0.7313525277650124,1.8111775550851565,6.309985684934656,1.134620035213957,1.0559764556921325,1.4852313523334193,1.8473140637010759,1.7079189962602654,1.929030608835431,2.8716035431650564,1.0461361228584811,Relax
85.74273228482677,707.202380952381,181.79001389209824,,,,,,,243.95444469067857,245.4362760852027,0.2570551496832969,0.3449570466125242,666.0,114.16019999999999,0.17141171171171168,141.0,0.7451801672340852,600.0,777.8000000000001,53.57142857142857,80.95238095238095,387.0,1333.0,14.0,234.375,,,0.03742071714413233,0.09066568731475494,0.024852713297759222,0.1529391177566465,0.41273295612068317,0.2446772133449559,0.5928220892382828,-2.400576303088085,173.54965516902047,191.62038750158914,0.9056951477440321,104475.71256097654,1.1041242767954194,5.725985451828135,846.2908870778006,0.5833333333333334,0.6024096385542169,0.88,0.125,50.247855850184884,50.90859125348873,49.573207045277165,44.57831325301205,0.4270604171192128,0.5729395828807872,113.41500524460662,131.36518174771334,0.6122466168540951,0.38775338314590496,149.93565149171243,119.3217219034947,0.5287947741293474,0.47120522587065256,132.9354411037147,125.48801594898352,0.8300134850677238,1.7117985361182004,1.452682989535903,1.285027284961905,0.6411566915976081,0.5189810745258674,-0.5979412594628024,0.005674610433227065,0.37876929912249235,0.6788858776313478,1.452252328911688,6.169044952514907,1.0158290551772056,1.1324285070752185,1.4773081083615789,1.7125254103886294,1.6246574402119849,1.9329402909041113,2.9156480964701323,1.0653862371297935,Relax
86.67841013295691,699.4761904761905,164.5191955102406,,,,,,,229.65036284888927,231.04412923981798,0.23520342472020236,0.32831762678376164,677.5,97.1103,0.14333623616236163,129.25,0.7163898783756539,604.4,764.2,48.80952380952381,77.38095238095238,387.0,1292.0,12.0,312.5,,,0.039961533086066196,0.17445862965511022,0.0462388152787996,0.260658978019976,0.2290602257112,0.15330963617529292,0.6692983720734925,-1.7460676447877472,163.37287053881636,165.31170168170303,0.9882716642369349,84846.39783321817,1.0118675220462996,5.635603518968294,669.0941677836878,0.6071428571428571,0.6219512195121951,0.8823529411764706,0.16666666666666666,50.3623497314349,51.0880588204338,49.56764370927939,45.1219512195122,0.423763313101204,0.5762366868987957,106.35206718781704,124.01799633373435,0.6555316153258607,0.34446838467413926,133.84446540154738,97.0238001434409,0.5410134099616625,0.4589865900383373,120.88238728977015,111.34199838539928,0.6356903204664355,1.926191202086451,1.2470388098833642,1.1846486554346352,0.19061351030141793,0.07447237246721494,-0.532390426444243,0.004253293657161309,0.3806431297339424,0.566392367096066,1.1265861407105158,6.055833345320539,0.9600372100388633,1.315039506444226,1.1589532508913236,1.7264797626872073,1.582652322272073,1.9501366791571608,2.5361461988127383,1.2175842710054783,Relax
86.08548243316746,701.3571428571429,139.2744229502457,,,,,,,186.01331083346943,187.13584757639035,0.19857846229793663,0.26521910089302086,692.0,72.64739999999999,0.10498179190751444,96.75,0.7487336380724535,631.8,748.0,38.095238095238095,71.42857142857143,387.0,1292.0,12.0,296.875,,,0.048620481077488245,0.18090644098208283,0.03199808633724337,0.2615250083968145,0.268760364824731,0.18591140241439513,0.6917366797579515,-1.7097752820069831,132.32502682435776,146.41175799713605,0.9037868859340257,60865.026960507224,1.1064555323421652,5.491337928688013,647.9923985434937,0.6071428571428571,0.6219512195121951,0.8823529411764706,0.16666666666666666,49.164842760050675,50.004462736139786,48.20658927673295,45.1219512195122,0.3685127402651714,0.6314872597348287,80.33178151859461,105.15827211932474,0.7128489161820265,0.2871510838179736,123.61600446428933,78.45690740844125,0.5580309565608597,0.4419690434391404,104.24517178667418,92.77324106448657,0.780177252520954,2.078396932481375,1.3647368472798527,1.2698174066958343,-0.2700416776461232,-0.04932771456220397,-0.545669544205252,0.002909816793352981,0.3365681911926678,0.6049468186486151,0.9637930658591585,6.055833345320539,0.7967365252001808,0.802315912546886,0.9691692631703708,0.9867938119608333,1.4931914211397863,1.9638570794113026,2.920073661831249,1.141485254067636,Relax
86.29269946780674,697.6470588235294,103.19961077380837,,,,,,,130.37861532219665,131.1531335305504,0.14792524309905078,0.18688334405373888,690.0,59.303999999999995,0.08594782608695652,84.0,0.7915378646933589,643.0,745.6,28.235294117647058,64.70588235294117,387.0,1287.0,10.625,296.875,,,0.053182782049831234,0.1420877795998404,0.01903224625613623,0.21430280790580786,0.3742952574782228,0.24816651993289127,0.6630234152708442,-1.951310246170837,92.73927009331696,113.40655486675797,0.8177593455887702,33040.88744535013,1.222853649297056,5.226021813484306,554.7184778920871,0.5411764705882353,0.5542168674698795,0.8260869565217391,0.13636363636363635,51.075916681012224,51.4089747644912,50.57060180455204,46.98795180722892,0.42350658073046715,0.576493419269533,60.356221667495916,70.41888437847076,0.5714172775853116,0.4285827224146886,85.7264503209981,74.24299564341699,0.512138620524685,0.4878613794753152,74.13466725700756,72.35620802397285,0.9227274936788084,1.4169169877489116,1.340442579797653,1.0182651323648133,0.37057937333633006,0.6706085466077205,-0.7273791973831087,0.002274652921736159,0.17350737158970955,0.7381277678628444,1.2992829841302609,6.020925641918242,0.8523321541990038,0.8313604063740329,1.1719919485982386,1.3746806867420724,1.4540779277664415,1.887858632722179,1.977491066711525,1.0556643894815037,Relax
85.56886200912288,702.75,94.94511731102774,,,,,,,119.272998590507,119.9889565395446,0.13510511179086124,0.16972322816151833,694.5,50.4084,0.07258228941684665,70.5,0.7960319471550913,649.2,750.0,20.238095238095237,60.71428571428571,533.0,1287.0,10.5,148.4375,,,0.04490896043595764,0.09982206974587424,0.016649779332889966,0.16138080951472183,0.4498900949488055,0.27827943465521443,0.6185498142315865,-2.3043659803742877,84.84500483660992,104.68281788184072,0.8104959968920357,27903.04220826623,1.2338123862852437,5.152621666003691,516.6358293354299,0.5357142857142857,0.5487804878048781,0.8,0.19047619047619047,51.242362525458255,51.791016928172176,50.57224998889307,45.1219512195122,0.38223282930853136,0.6177671706914687,52.45939196062083,66.69168229850615,0.6119295168228042,0.3880704831771958,81.88910144071056,65.21247905819597,0.5208545532367893,0.47914544676321075,68.76704421321682,65.9562275782982,0.7578389401563653,2.1926476130785755,1.4262047936228905,1.1278272374256515,0.1816625530683993,0.6620437318362644,-0.6360809436124136,0.003748362571411704,0.41958180587508376,0.7081172428654097,1.2738163776932003,5.951608494104309,0.8600659436369655,1.1617608563140547,1.0289712317745243,1.3347676290005808,1.4832185239793187,1.8164715623543017,1.8496134280504481,0.8370891863162664,Relax
85.72928794537583,700.6904761904761,65.56611235178686,,,,,,,77.64779921473348,78.11708437713159,0.09357357432379788,0.11081611903288614,703.0,46.701899999999995,0.06643229018492176,60.75,0.844404001335119,663.6,737.8,16.666666666666664,58.333333333333336,533.0,975.0,10.5,203.125,,,0.052804003129126684,0.07426130528503443,0.024051804540783275,0.1511171129549444,0.7110567599970271,0.3494243775347284,0.49141559041811134,-2.600165253158561,55.23712008959146,75.04454255718272,0.7360577892456559,13022.669383589657,1.358588978488827,4.821670124895852,407.81875365569675,0.5119047619047619,0.524390243902439,0.7441860465116279,0.18181818181818182,50.76660988074958,51.151718189230145,50.347860934628244,47.5609756097561,0.3411840406696748,0.6588159593303251,32.26566550889207,44.83615157219538,0.5974403019739434,0.40255969802605657,58.005125737046896,47.61395547364437,0.5073878838973522,0.4926121161026479,46.934357258315195,46.245914650112965,0.9781390450990385,2.2662989950053056,1.5398173415182934,1.3978314313340414,-0.12310318629454642,0.40867974911592864,-0.5626510052279838,0.0018681602475222395,0.3678669260546931,0.6764964382807368,1.5902065505062126,5.8415476310348255,1.0409730064206364,1.0316904033310208,1.0951305303043657,1.3090709495477886,1.708536576690967,1.7603181215992323,2.222054219553959,0.9131882032541088,Relax
85.70284235714466,700.8452380952381,61.78791827308103,,,,,,,77.08382231474125,77.54032441303906,0.0881620005595082,0.10998693880583421,703.0,37.065,0.05272403982930298,51.25,0.801567909032774,668.0,732.2,15.476190476190476,58.333333333333336,533.0,975.0,8.4,164.0625,,,0.053708797574999176,0.05359365198126437,0.015786809244127818,0.12308925880039136,1.0021484931419689,0.4363402468943002,0.43540478270467875,-2.9263246511045105,54.82928920786471,68.13565534029294,0.80470773978805,11736.454675690664,1.242687190088898,4.776507035892327,338.68522431877705,0.5,0.5121951219512195,0.7142857142857143,0.19047619047619047,51.63342006360221,52.01953871736753,51.202726406567756,46.34146341463415,0.3370013727267382,0.662998627273262,31.834365538962647,44.651564307669574,0.5989711036293236,0.40102889637067646,52.732379988006436,43.14815905055149,0.495987068459862,0.504012931540138,43.55531384611867,43.906296954842595,0.8257965271423443,2.2968840022220944,1.3949619564084883,1.1937701484357757,-0.24466779217305934,0.41762085767469714,-0.587593369006912,0.0019622655930555356,0.36168095456337734,0.794308313861197,1.6247053845648889,5.77476619681534,1.05099628414424,1.1302586934231402,1.2332778627079701,1.488580983484403,1.614064038499243,1.8017642125427245,2.1546393370918784,0.9131882032541088,Relax
86.81182707933321,691.5232558139535,54.17764391207134,,,,,,,54.67379197944628,54.992721698202125,0.07834536793459224,0.07906283920284475,696.0,44.477999999999994,0.0639051724137931,57.5,0.9909253035245579,655.0,728.0,13.953488372093023,56.97674418604651,533.0,890.0,10.75,148.4375,,,0.05915470658589951,0.03629193137581679,0.006101049046595749,0.10154768700831204,1.6299685451658654,0.5825313045392898,0.3573880651052757,-3.316159838566634,38.885726428703315,66.34631574884455,0.586102272444277,8105.0724333214785,1.7061868670626488,4.61572701036178,452.79685043468135,0.5,0.5176470588235293,0.7272727272727273,0.13636363636363635,48.814655172413794,49.032797998149206,48.59481141195522,49.411764705882355,0.3279978274901214,0.6720021725098786,22.27252738668147,31.880076626543506,0.5487001179746236,0.4512998820253766,49.14556564942702,44.57069654429057,0.49226154145676587,0.5077384585432342,38.153322916835286,38.748459815568935,1.080138755246278,1.586658175977452,1.3645337954397356,1.180488174857261,0.26960969166513493,0.8602600187191185,-0.6159957597477442,0.000514136297376657,0.14258437812870517,0.6683371920149188,2.10684051586795,5.8795258011130995,1.0989562902376184,1.1923072423558467,1.2939756003629703,1.9252997916132635,1.8368893045794412,1.7390809677148589,2.534668654346654,0.9714121140828752,Relax
87.83817668241913,684.3678160919541,65.43985609783475,,,,,,,84.92910860460088,85.42697139580956,0.09562088479193186,0.12409863030904059,687.0,50.4084,0.07337467248908297,66.5,0.7705232890468564,648.0,727.8,21.839080459770116,63.2183908045977,417.0,890.0,7.909090909090909,289.0625,,,0.04827664940730718,0.06328344626610478,0.02397909469126399,0.13553919036467596,0.7628637859623744,0.3561822176849079,0.46690146293361384,-2.760131496416143,60.40599077020616,70.74478706873617,0.8538578356524734,13425.310177915211,1.1711551481352307,4.8348944383744135,331.41248631712426,0.5287356321839081,0.5465116279069767,0.7659574468085106,0.25,49.77941176470588,50.23683480678195,49.33450207957053,47.674418604651166,0.3458587102660911,0.654141289733909,35.52472212914467,48.855910594318054,0.6103843641837785,0.38961563581622166,55.27085002830283,44.15832916392644,0.49884527899849007,0.5011547210015102,46.458975156605014,46.56639364686552,0.8865187711093603,2.2862828951820546,1.3650712050175453,1.4811465884987616,-0.8115377403094666,-0.6967652363286998,-0.4492296496965336,0.0012872855268285697,0.3330070065898648,0.7262421530269387,1.8935421635379972,5.915652656987495,1.0450840819506455,0.9070358047315259,1.3049792684569492,1.5750225988719049,1.679031985904278,1.8325168991024998,2.6424749568587402,1.0367955050791056,Relax
87.24850979141266,689.1627906976744,69.15079183164798,,,,,,,104.24992594157335,104.83205456283659,0.10034028645342725,0.15127039263979397,689.0,48.925799999999995,0.0710098693759071,64.25,0.6633174192411743,654.0,727.0,23.25581395348837,63.95348837209303,417.0,928.0,7.818181818181818,289.0625,,,0.02353173711704075,0.060066878444417056,0.03462502985263164,0.11822364541408945,0.3917589481333854,0.1990442523965373,0.5080783817317354,-2.8122966967705088,74.12745666709988,60.69230612201981,1.2213649703484517,14133.919451966694,0.8187560837893549,4.857232721939358,198.76877950643853,0.5581395348837209,0.5764705882352942,0.7551020408163265,0.23809523809523808,47.57462686567165,48.337956821768444,46.81807763138441,49.411764705882355,0.3615942687901068,0.6384057312098932,44.59039774916312,59.24871909405058,0.6488510389713243,0.35114896102867577,48.88843577216533,35.96493945719676,0.47683008414643335,0.5231699158535665,46.78879525953679,49.00962958667175,0.505906571126833,3.013969470038405,1.1981911079105663,1.2198935001316378,-1.1327120262763906,-0.4454762769101579,-0.49279939878727613,0.0026327447084225444,0.5976050088529876,0.7326206647116527,1.7635885922613588,5.879525801113099,0.9842144496517354,1.1322823720857311,1.1660189510654981,1.449600662097066,1.6458133721467632,1.9107245708941314,2.0952068452729113,1.1208601316340867,Relax
87.68823403063875,686.6470588235294,72.4366235116623,,,,,,,113.50246483583307,114.18091149914038,0.1054932407862811,0.1652995718503523,685.0,45.9606,0.06709576642335767,63.0,0.6381942772470421,654.0,726.0,23.52941176470588,61.1764705882353,417.0,957.0,7.7272727272727275,234.375,,,0.019632795725778234,0.0654768842044374,0.0422002056909428,0.12730988562115844,0.2998431578460435,0.15421265701392897,0.5143110755694166,-2.7260581115386997,80.73809680310319,63.796936081259275,1.2655481871459415,16181.851160274753,0.7901714135873367,4.915998312201326,201.64206066347842,0.5882352941176471,0.6071428571428572,0.7843137254901961,0.3684210526315789,49.282868525896426,49.89910173781515,48.69366118716561,48.80952380952381,0.3710241406969051,0.6289758593030949,49.180390842016436,64.0335943456189,0.7232190110977301,0.27678098890227,54.254371726963925,33.563554666761675,0.5063950092871448,0.4936049907128551,51.7795697880017,51.12148964324091,0.43546908493524766,3.4247838521211755,1.2166917029131803,1.5115873753563014,-1.0381367003338777,-0.7607432771762304,-0.4138936396641574,0.006825514257266889,0.9937698643444607,0.7722647673013419,1.6436292771823795,5.762102112506481,0.9270862258509162,1.1699422057746618,1.298555505136639,1.4570133873476816,1.6103042472560072,1.909550610858145,2.6968289607679425,1.0556643894815037,Relax
88.27350571482226,682.3139534883721,75.98951346041605,,,,,,,120.59109322294861,121.30676441335402,0.11137030551979038,0.17673842460119601,682.5,46.701899999999995,0.0684276923076923,62.75,0.6301420065902111,643.0,722.0,30.23255813953488,65.11627906976744,417.0,957.0,7.818181818181818,242.1875,,,0.02974491258052596,0.0760677951552689,0.04708251106319576,0.15289521879899062,0.39103161225865574,0.19454442600740324,0.49751585270481385,-2.5761302948116915,85.77683572048157,65.78569314804844,1.3038828294693765,17727.65735167893,0.7669400788159443,4.955621458847604,201.81473875170317,0.6395348837209303,0.6506024096385542,0.8333333333333334,0.47058823529411764,50.03477051460362,50.58491909745491,49.48889238171362,45.78313253012048,0.380147691750102,0.6198523082498981,52.8866712887094,67.53270812477955,0.7442932488840215,0.2557067511159784,56.754917255896665,33.266150817993804,0.5150108876289161,0.4849891123710841,54.85490239132541,53.23205545962026,0.49205641557489593,4.972195374182011,1.4520175383187703,2.2789704668236537,-2.3108656078925183,-1.8043019655458579,-0.33368454650860785,0.02460759713315759,2.3627362217808248,0.70959728647939,1.5830046553659447,5.838714463853483,1.0014230311999506,1.2365313427936568,1.2176885531890946,1.5518948121384657,1.633611044363036,1.891857952272361,3.201986560138396,1.1208601316340867,Relax
89.40489946092721,673.0454545454545,100.36564291604937,,,,,,,146.91040353448992,147.69536149635198,0.1491216413961698,0.21827709041391088,665.5,48.1845,0.07240345604808415,65.75,0.6831758711525606,628.0,720.4000000000001,39.77272727272727,69.31818181818183,313.0,1049.0,6.285714285714286,335.9375,,,0.03289471462729,0.0780974297056949,0.055815247678906055,0.16680739201189096,0.4212009889602206,0.1972017800322967,0.46818926166130387,-2.5497981329764534,104.43639166386897,89.12011153271962,1.171861096981753,29240.00565846312,0.853343457322375,5.172947562291358,304.20025636914653,0.6704545454545454,0.6746987951807228,0.8571428571428571,0.4444444444444444,47.528957528957534,47.180581054714175,47.73193363122563,46.98795180722892,0.39957298641097694,0.6004270135890231,66.04592306485218,80.96141056083447,0.5298454507186834,0.47015454928131656,64.87096019685909,61.10771475633748,0.45443612077586076,0.5455638792241392,65.46107786444875,71.72483113518604,0.7416679410580511,3.8963353135652667,0.8378094832623515,2.588546050741212,-1.8687999609872428,-2.6662208667882985,-0.05067096987684999,0.03214645596341046,2.0247025342514893,0.7135704972611925,1.4092838793445892,5.888242271972634,0.9950969824116361,1.0967669406839735,1.4589520639113163,1.7090146644868474,1.4551972726271176,1.9435277438455252,3.061934091564527,1.1744421124795086,Relax
88.84085739001273,679.264367816092,97.91114383805906,,,,,,,151.4162981611861,152.30414033371088,0.14414291176917454,0.2229121757821712,677.0,44.477999999999994,0.06569867060561299,57.5,0.6466354350694166,629.8,725.2,41.37931034482759,70.11494252873564,403.0,1049.0,6.6923076923076925,250.0,,,0.04941534182696751,0.10274571928009785,0.04165972173258488,0.1938207828396502,0.4809479380085415,0.2549537830927517,0.5301068222652902,-2.275498087981221,107.69529043275452,88.29542075866327,1.2197154677717281,29873.407629557725,0.8198633422488922,5.182254874926277,289.5607150738796,0.6666666666666666,0.6746987951807228,0.8392857142857143,0.5333333333333333,50.141121610013506,50.5888835716363,49.74535754385334,46.98795180722892,0.4292014101443771,0.5707985898556229,70.5550265020564,81.36522598751876,0.5992268997892098,0.4007731002107901,68.34926220561879,55.896866485492325,0.4975475831161849,0.502452416883815,69.46090054396902,69.80243435187971,0.6003008156099914,2.9167051429081026,0.5675048655940715,1.8729640747801262,-1.1084743746564225,-1.7370957500885895,-0.05241988983348324,0.009866034735196628,0.9203261023674045,0.6423737149101183,1.2947271675944,5.971454415289488,1.0011163181999527,1.1680640869374823,1.2873607306158859,1.5418540999858266,1.4847093248387087,1.9606396625934077,3.2443562251101703,1.3330227922445645,Relax
88.22251048704767,684.3488372093024,111.29587143570066,,,,,,,165.1828576777513,166.16190511511533,0.16263032153244056,0.2413723070698102,684.5,55.5975,0.0812235208181154,75.0,0.6737737377859353,637.0,732.0,43.02325581395349,72.09302325581395,307.0,1049.0,7.818181818181818,343.75,,,0.0481859143133292,0.0906732576070928,0.038172762361550455,0.17703193428197245,0.5314236588049961,0.27218769601522724,0.5121858831563716,-2.400492809800468,117.49420988177373,97.33558859288152,1.207104324125559,35928.40992847673,0.8284288110096963,5.262408107167301,322.5424237077192,0.6627906976744186,0.6707317073170731,0.8545454545454545,0.4375,50.31189747079505,50.70602979870984,49.99713677211574,47.5609756097561,0.4352212799185256,0.5647787200814742,77.5130557359456,88.29964541804446,0.5980623961241025,0.4019376038758977,75.27398491396488,61.709351008537396,0.5014943571695859,0.49850564283041415,76.40172319506813,76.17372047775812,0.6217055942103995,4.364075584393639,1.5248277538044062,2.5712342221181332,-1.9172390177390035,-2.463831498270082,-0.26022265240873027,0.035606278562926724,2.4299975722282965,0.6526525451306373,1.3113313226464354,5.998882341886242,0.9779199577784526,1.2489486761185729,1.2697131879023746,1.2818445326332484,1.4602419300719383,1.949199616080453,2.4825585860284773,1.2703081491852986,Relax
88.36370209288988,687.1511627906976,131.14002551757284,,,,,,,196.96903309911434,198.1364594985816,0.1908459631865854,0.2866458557665426,685.5,67.4583,0.09840743982494529,88.75,0.6657900658505213,624.0,747.0,52.32558139534884,77.90697674418605,307.0,1049.0,8.6,343.75,,,0.03956112902012727,0.09815531491237764,0.05094126613127172,0.18865771006377663,0.4030462237877096,0.20969791802706308,0.5202825523494151,-2.3212042088100575,140.10363411174075,122.96281804614247,1.139398367229727,54121.90578001148,0.8776561637799668,5.440343190850611,431.6763006958059,0.686046511627907,0.6951219512195121,0.8771929824561403,0.5,49.70307719992801,50.121136554245496,49.3636014181692,47.5609756097561,0.4533685009800687,0.5466314990199312,94.33621483063347,103.58577076395147,0.5730598003979576,0.42694019960204255,93.08373043471546,80.3447182471005,0.5054478488207359,0.49455215117926415,93.71206512561284,92.69650925188033,0.5396424923458818,4.266657080435745,1.414338002836554,2.3449103293103852,-1.5085343180709287,-1.7278255742350257,-0.2818966209539404,0.042116661508724305,2.447033293815382,0.6154483500985259,1.3198492617117379,6.068649783746708,1.0705644468178086,1.1004518605880214,1.2404772823231163,1.3956049139670808,1.4477499910832643,1.983668543498779,4.184924370351716,1.1955841404096927,Relax
88.33375849867578,686.8488372093024,129.36628503792775,,,,,,,192.44103757041134,193.58243056375025,0.18834753446413155,0.28017960742615206,685.0,71.1648,0.10389021897810219,98.75,0.6722385550981793,620.0,762.0,54.65116279069767,82.55813953488372,307.0,1049.0,9.555555555555555,390.625,,,0.03502920180986998,0.1380181344685289,0.03898890462468102,0.2120362409030799,0.25380144388096615,0.16520384279912578,0.6509176633234877,-1.9803701932661255,136.88344937020176,122.55100235931043,1.1169508754311912,52700.857418648375,0.895294521895564,5.4287877910027715,438.87696426040384,0.6395348837209303,0.6506024096385542,0.8518518518518519,0.4375,49.800036357026,50.165279803039176,49.51424994750432,44.57831325301205,0.46438301419507655,0.5356169858049235,93.28045908773738,100.1796897484477,0.5620290789138536,0.43797092108614644,91.87476914602394,81.10348311655002,0.5078278325210049,0.4921721674789948,92.58028206171723,91.1420463116002,0.6342911574604492,1.2040481389886457,1.0408657086641764,0.9636651953650079,0.5350781478452129,0.09185295751598055,-0.5641174640774861,0.0019162279128857056,0.15708248786106757,0.5712631175943494,1.2878542883066382,5.998882341886243,1.0558458609695043,0.9704013200628708,1.2518344604113125,1.391283695578745,1.5686716788855715,1.9394637867642286,3.4623057511801787,1.1955841404096927,Relax
90.60517066437087,674.5172413793103,149.2268338975676,,,,,,,212.9755144786411,214.22099287728477,0.22123501779200758,0.31574510096010383,683.0,71.1648,0.10419443631039531,103.5,0.7006760108685324,609.6,758.0,57.47126436781609,85.0574712643678,307.0,1049.0,10.875,390.625,,,0.02413893562272075,0.08862217317727399,0.043996635873268714,0.15675774467326345,0.272380316993974,0.153988791258987,0.5653447832002992,-2.4233731910867964,151.47711673604314,145.07697023091455,1.0441155236075146,69039.1411301971,0.9577484266730454,5.546065489935222,555.7889599406027,0.6206896551724138,0.6352941176470588,0.8518518518518519,0.3684210526315789,49.582846003898624,50.04311522182464,49.191530055498056,43.529411764705884,0.43278429731875495,0.5672157026812452,99.65295662801923,114.08500442781303,0.5571760632369321,0.4428239367630677,108.2915830610638,96.54149537639441,0.4922957828025354,0.5077042171974646,104.06194964197327,105.67792712956785,0.5453748987812914,2.1949172844540086,1.1208120215728186,1.2880872305747346,-0.10097611471374535,-0.2856149589557462,-0.42378974361053146,0.005335186505288747,0.49472824951555494,0.5405379247473872,1.313387590311803,6.121104415388959,1.0902024487474258,1.1821206816943128,1.2793863173988955,1.567433060067132,1.5434754751744364,1.9668648161400935,3.5338028296493462,1.3330227922445645,Relax
90.86196825591503,669.3068181818181,143.98741627285378,,,,,,,214.11569007345582,215.34539186474453,0.21512916402674295,0.31990663214085324,682.0,70.42349999999999,0.10326026392961875,92.75,0.6724748486365318,610.2,750.4000000000001,56.81818181818182,82.95454545454545,307.0,982.0,12.571428571428571,398.4375,,,0.024610127956579707,0.09369710357948498,0.037242534206449726,0.1555497657425144,0.2626562296635187,0.15821385419067424,0.6023609430218253,-2.3676880018539026,152.27218688483524,135.74387755637093,1.121760993026006,64936.77384497298,0.8914554938324698,5.51946081839514,484.03850160699585,0.625,0.6395348837209301,0.8545454545454545,0.4,49.25545868374354,49.933210986623585,48.651770003115864,43.02325581395349,0.4101414018740092,0.5898585981259907,97.52381939217317,116.95474676428347,0.6113548647616899,0.38864513523831057,106.13703151966793,84.62464673032342,0.49923371704236014,0.5007662829576399,101.92145213016785,102.07777335181669,0.5800310498290476,1.0045106398637311,1.0308673475263883,0.8337885618765213,0.9555767354741165,0.45328516876250846,-0.6961938259574851,0.004096359757873661,0.1771230383040573,0.5742195099051308,1.3573068242466384,6.186704345910025,1.1131389192051182,1.272110644203525,1.304659259877772,1.5904991783036646,1.5504823654016517,1.9935946142064929,4.6530183890727645,1.1744421124795086,Relax
90.91183818530459,671.2528735632184,159.4442541929153,,,,,,,238.4835082787282,239.87910686367147,0.23753232272442393,0.35528117296956035,665.0,88.95599999999999,0.13376842105263156,120.0,0.6685755981355509,604.2,753.8,58.620689655172406,81.60919540229885,307.0,1283.0,17.4,304.6875,,,0.016077458835293157,0.10056985492144731,0.02059539275550039,0.13724270651224085,0.15986359777341702,0.11714618025154719,0.732788338828609,-2.2969027190897067,169.6201431282746,150.35284651170514,1.1281472021553611,80119.63326308277,0.8864091477508149,5.61070906266291,533.0965541533985,0.632183908045977,0.6470588235294118,0.8727272727272727,0.38095238095238093,49.62459778333928,50.33240268855476,49.048691421914924,44.70588235294118,0.43580538669777574,0.5641946133022243,111.97715103065079,127.40825995940118,0.5847044277812184,0.41529557221878166,114.96875965444441,96.89253200165099,0.5013203249510817,0.4986796750489184,113.48281378566223,113.18354002144771,0.5569387871864094,1.9571709623882902,1.1062446436482232,1.2111779229760642,0.03836201816972107,-0.2620896742489798,-0.44638522574451367,0.0040436431792918335,0.3923576146760813,0.5684384041634978,1.2964380319980298,6.259035449871717,1.1545790140312193,1.4128676064421883,0.996852519340664,1.63475692482736,1.5357296447861182,2.0037894638669402,3.581641221824111,1.0367955050791056,Relax
87.78023080608926,701.4880952380952,282.0042080369459,,,,,,,417.9154379213719,420.4429583456604,0.4020085443377761,0.5957555669986465,659.0,91.9212,0.13948588770864948,130.0,0.6747877260518985,586.8,758.4000000000001,61.904761904761905,80.95238095238095,317.0,2578.0,14.0,296.875,,,0.024338036060241947,0.05497841278846801,0.011353290829716048,0.09066973967842601,0.442683497500804,0.26842512338251423,0.6063590011778714,-2.9008146655510205,297.2980669483496,268.5823299650197,1.106915957528069,250853.05540582453,0.9034109529265163,6.10638950509159,970.56087461169,0.6904761904761905,0.7073170731707318,0.9137931034482759,0.47058823529411764,49.30211155989571,50.07186891911402,47.7312709315623,43.90243902439025,0.42430970821713926,0.5756902917828608,193.66316307369172,225.5796868557788,0.5982925577444015,0.4017074422555983,207.74674950064227,170.22854061923968,0.502492341145006,0.49750765885499393,200.82845000122606,199.82986659069178,0.4227081145093595,1.8546941386189812,0.9567584188545181,1.088209349865573,0.0854788910902009,-0.3498659493243881,-0.42912527824726165,0.004204148038122433,0.3746206194121074,0.6382591921249103,0.9595875376274794,6.273269803731139,0.9543105401237716,0.8454810483962875,1.16956769739412,1.1864936844825864,1.1201334403229763,2.0541879358123705,2.2230594851446925,0.9892872201919511,Relax
90.00383671797958,682.8604651162791,206.62117440553448,,,,,,,319.3000985611756,321.1949350075586,0.3025818376677445,0.46759201165175734,653.0,94.1451,0.14417320061255742,131.0,0.647106516210321,578.0,751.0,61.627906976744185,80.23255813953489,323.0,1407.0,14.333333333333334,289.0625,,,0.027055833510481752,0.1543023521289184,0.03739140977002922,0.21874959540942937,0.17534297525080378,0.12368403909429809,0.7053834858076592,-1.8688412758606512,227.1191166266171,186.52112661108634,1.2176589362993786,133085.76122468093,0.8212480278255322,5.831101702984624,612.7204295086043,0.6744186046511628,0.6904761904761905,0.9137931034482759,0.3888888888888889,50.06891228843928,49.20778153657178,51.02650494260389,46.42857142857143,0.5482577997354479,0.45174220026455225,168.16913255070662,152.65084265049035,0.42372229570977826,0.5762777042902217,121.41397792880748,141.59370266989967,0.49809637155367925,0.5019036284463209,146.66664784359477,147.22611248972908,0.46229996011782915,2.6000369305767403,1.1076028052966331,1.2766024830221,-0.5182401164506931,-0.37604112612457086,-0.43500104720128746,0.00561127397599729,0.6063003807297757,0.6171083954502907,1.2237754316221154,6.24021824307419,1.1737353199186857,1.14030411521072,1.4088187646464168,1.5321083040402133,1.5573040118084993,2.0050812119427373,3.717608134803456,1.0461361228584811,Relax
89.28828671550175,687.2790697674419,207.69999015337655,,,,,,,315.6402457005164,317.5081992368592,0.30220619147278416,0.45926066947931526,655.5,91.17989999999999,0.13909977116704803,121.25,0.6580275898988022,578.0,752.0,58.139534883720934,79.06976744186046,319.0,1407.0,12.285714285714286,320.3125,,,0.03010949454531921,0.12456209374501005,0.043823389950905976,0.19849497824123524,0.24172277167206332,0.15168894856738638,0.6275327207201536,-2.0829509424694543,224.5122007627125,186.3288567483385,1.2049244796577354,131422.56495927816,0.8299275322915298,5.825640048975094,618.5577931034021,0.6976744186046512,0.7108433734939759,0.9322033898305084,0.3333333333333333,49.55933359868083,48.27711844701501,50.77516365502757,49.39759036144578,0.5481691148729194,0.45183088512708053,166.22811348952294,150.91595343104055,0.4190338180352339,0.580966181964766,120.61592625630608,142.021974322554,0.4955014911604901,0.50449850883951,145.2239432410379,146.53645653979112,0.42710725029110563,2.9387023323465153,1.0755728610574165,1.4224046730519906,-0.7939671250115392,-0.6854597631130511,-0.38197790290735795,0.0073450503134016775,0.7949407907092141,0.6641541560816426,1.3978551835209667,6.24021824307419,1.1869255146090947,1.243126147650287,1.4821988740798069,1.5625533204249702,1.5123670572625563,1.9924407797424704,2.949691103969565,1.1208601316340867,Relax
88.81962877611164,696.4235294117647,229.11487950633952,,,,,,,339.1397555721296,341.04841121084775,0.3289878498215903,0.48697343103640484,654.0,108.2298,0.16548899082568808,151.0,0.6755765897154173,576.6,752.8,58.82352941176471,77.64705882352942,323.0,1415.0,14.166666666666666,289.0625,,,0.02916285729098317,0.1159179335431416,0.026664610733901285,0.17174540156802606,0.25158192869379886,0.1698028420250434,0.6749405368925004,-2.154872807706059,241.15764428008856,204.3342243927227,1.1802117095009628,154807.50783811923,0.8473056079259179,5.896762129187208,692.5341368765872,0.6588235294117647,0.6785714285714286,0.8947368421052632,0.35294117647058826,52.07326785240245,50.91430610604098,53.49156195755976,47.61904761904761,0.5663757300370291,0.43362426996297093,181.55851391742448,158.86239025063352,0.5139593951610751,0.48604060483892497,146.48917000983266,142.45489927694973,0.5444803719489855,0.45551962805101465,164.95843553161092,150.88183681966242,0.3465048879306713,2.8691059244256434,1.040815135731271,1.4290055356472735,-0.3955361628864207,-0.5965863020823766,-0.36469987161811984,0.01436982526111918,0.9918065388549567,0.6429625294224639,1.3483494295557672,6.2446850537847585,1.1941603889489998,1.0333700798418592,1.4697240756105614,1.610797232305032,1.5197457377508814,1.993050197941544,3.5505620613202997,0.980259790232825,Relax
84.89662572338086,724.1604938271605,267.75018472403167,,,,,,,379.7057413313631,382.1008250531908,0.3697387347229924,0.5243392101171286,680.0,96.369,0.14171911764705883,139.0,0.7051517940845946,568.0,767.0,79.01234567901234,85.18518518518519,316.0,1798.0,16.2,343.75,,,0.049648173842409105,0.07784701456929845,0.021786527692850294,0.14928171610455784,0.6377659325421261,0.3325804066161405,0.5214772217300471,-2.553009729937151,270.18608449208585,268.6585469949127,1.005685795275302,228041.30197821325,0.9943463502199059,6.064983621860362,1068.558582639098,0.6172839506172839,0.6375,0.9411764705882353,0.13043478260869565,50.13078470824951,50.617484231860075,49.39915830517365,41.25,0.4538421496714615,0.5461578503285384,182.0187081774351,199.6745453247181,0.668974584200883,0.3310254157991172,219.73815350011301,154.57217980535333,0.5607983485298924,0.4392016514701075,201.76182273936453,178.55318930281166,0.5665186907156994,2.691140085044122,1.1799623143776146,1.4820926822252032,-0.7562831256236304,-0.8325291890705551,-0.38773146016193544,0.00508341294486419,0.63936697110696,0.7019481470560653,1.241268589069633,6.117627780662401,1.169156761464133,0.881366274359924,1.142617954847242,1.1585938735487677,1.4337258946478073,1.9699472334922112,2.945657450783937,1.017506790586421,Stress
89.53229728325744,683.3837209302326,208.2394079563035,,,,,,,320.59257633326445,322.48894407036505,0.3047181277201698,0.46912527547022753,662.5,89.6973,0.1353921509433962,119.5,0.6495453211612522,564.0,737.0,70.93023255813954,82.55813953488372,316.0,1589.0,14.333333333333334,335.9375,,,0.03971055633135959,0.08790675700053346,0.037332001286483375,0.16494931461837642,0.4517349710798523,0.24074399110559005,0.5329319324782456,-2.4314786057945716,228.03411920984436,187.65251015061412,1.215193545915368,134432.44060916235,0.822914179688743,5.835474193244278,617.6876458285045,0.6046511627906976,0.6235294117647059,0.9245283018867925,0.13043478260869565,49.50552646887726,49.89306174170886,48.9789786860599,40.0,0.4535603654925342,0.5464396345074656,153.57687697976263,168.5696478921285,0.6002154391405945,0.3997845608594056,145.38110296059529,118.64990294048754,0.5127730055552404,0.48722699444475964,149.5351501167808,145.76269354375847,0.48693467766079934,2.6638146051705247,1.12489617801436,1.2209440898579573,-0.38990601345840403,0.0014774114514631842,-0.4639434697680664,0.004423336337264108,0.5906683510215536,0.7115406395520409,1.301136552779584,6.106383650000621,1.1249602613400556,1.1352184365959597,1.1000419916556534,1.2305992157684058,1.445490186103006,1.9832835245585256,2.881558206670128,1.2703081491852986,Stress
93.05450975150099,661.5888888888888,201.8088368152621,,,,,,,296.13229658153074,297.6616864344332,0.30503661745920746,0.44760772370115326,652.5,111.93629999999999,0.17154988505747124,159.5,0.6814820238956961,496.4,745.8,73.33333333333333,85.55555555555556,307.0,1585.0,18.0,343.75,,,0.030827468799492826,0.0790344207700335,0.05545531439362548,0.1653172039631518,0.3900511764259212,0.18647465636041172,0.4780774104288008,-2.537871815457599,210.47859697721145,179.66817743734362,1.1714851231827765,118803.42882793718,0.8536173274510962,5.7817990851150745,613.4714778082985,0.6222222222222222,0.6404494382022472,0.9298245614035088,0.21739130434782608,52.30547550432277,52.22483439353391,52.40527823402292,39.325842696629216,0.483208273476975,0.5167917265230252,146.38333083194462,151.38478217022765,0.6775389788525787,0.32246102114742126,147.88982837497733,102.02574501995338,0.5650749405915216,0.4349250594084784,147.1385076759901,129.08641469884392,0.4371863699967612,2.384796510268245,0.8900016991831496,1.0450372054290336,-0.368080441363106,0.1671065997701502,-0.4349900481746153,0.0035089806513534834,0.43301478270232746,0.6364842823901911,1.3424917384614976,6.177801290702004,1.213577857469446,1.2186300616251076,1.0159433824663382,1.1198167946675328,1.4985404704713001,1.972917136144195,2.7167575993071855,1.2262389181956053,Stress
94.17185544577055,652.9120879120879,210.33083191072785,,,,,,,310.34554218734246,312.0825661421792,0.32214265259406266,0.4753251592871861,643.0,127.50359999999999,0.19829486780715394,191.5,0.6777311200550773,485.0,745.0,80.21978021978022,90.10989010989012,307.0,1585.0,18.2,320.3125,,,0.019004941446811186,0.051958405537593025,0.04182801994775242,0.11279136693215663,0.3657722220336554,0.16849641921834807,0.4606594188085841,-2.957311773994049,220.67569880923412,200.96072932686505,1.0981035924203004,139320.67869174964,0.9106608947484882,5.850985691390854,732.0283103124467,0.6593406593406593,0.6777777777777777,0.9508196721311475,0.20833333333333334,50.221959159514654,50.76437971287084,49.64461918318965,41.11111111111111,0.4645660298476332,0.5354339701523667,150.41130874290275,161.47664804908646,0.5600083679501103,0.43999163204989,150.38636304914735,133.30099977282828,0.5078339750223372,0.4921660249776629,150.3988364132229,148.06056937213924,0.5457735139021335,2.0702149943431514,0.875026755692822,1.3474219487289212,-0.8058532070472282,-1.179821209950322,-0.27181346172889487,0.0040640330863736555,0.3910446764533883,0.5706151528338852,1.2256119794294174,6.3070840632042975,1.361063207584621,1.079695044883508,1.0825160361481407,1.1949414733778976,1.6070517731647138,1.9871487565158001,2.8375991902351543,1.215741855861295,Stress
93.12587051749588,663.9887640449438,234.6958134955089,,,,,,,361.38007252501046,363.45007788832896,0.35346353162027744,0.5442563068741169,632.0,160.1208,0.2533556962025317,221.0,0.6494431523455573,480.6,827.6,83.14606741573034,93.25842696629213,307.0,1585.0,22.25,171.875,,,0.03473842652793907,0.0957283749010196,0.07101338851464983,0.2014801899436085,0.3628853677277778,0.17241608982829465,0.4751254946097313,-2.3462405260269494,256.99801469761627,211.76827287768262,1.2135812943332562,170978.1193352044,0.8240074271657276,5.939910645734068,697.9945187570759,0.6629213483146067,0.6818181818181819,0.95,0.30434782608695654,50.15902060732801,50.64388036450788,49.740053919895274,40.909090909090914,0.47148435110515113,0.5285156488948486,176.46742723109898,186.83568907637448,0.5719694789848372,0.4280305210151627,160.15751515317928,138.5473627953842,0.5121207322156668,0.48787926778433327,168.50991444660468,164.47332070916468,0.6672554861408059,0.7281686155613949,1.0658709960729222,0.8188711666086732,0.8056119107034561,0.3988501307788379,-0.8392069146976624,0.0009319184827309688,0.051583479801593196,0.6122709265807269,1.3668762752627892,6.234050565749238,1.4167417731367313,1.0998099479149759,1.2354471430264145,1.3917472141397744,1.6804839453423284,2.0114894910891756,3.101221109458091,1.1641767965782288,Stress
92.5448955794353,660.6741573033707,213.60061368234636,,,,,,,282.66557898947394,284.200237876372,0.32330705132191884,0.4278441586745439,645.0,154.19039999999998,0.2390548837209302,199.0,0.7556654561406663,494.2,827.6,75.28089887640449,91.01123595505618,307.0,1585.0,14.833333333333334,320.3125,,,0.06394492263975864,0.11527201780053747,0.022635829555824903,0.20185276999612103,0.5547306610907654,0.31678991891460023,0.5710697841934625,-2.1604605715294753,200.9599154172125,202.0557136755717,0.9945767519342776,127564.68112448821,1.005452820061574,5.812700557732716,812.6299484986301,0.6404494382022472,0.6590909090909092,0.9137931034482759,0.2608695652173913,48.34123222748815,50.20678605618739,45.71961463729132,39.77272727272727,0.36663805603180694,0.6333619439681931,121.71900936739219,159.97997360302003,0.5662468572871928,0.43375314271280724,152.04566350488113,133.07376765653353,0.4669552683967548,0.5330447316032453,137.7196446263547,147.14316088817728,0.7235499992830163,0.44145031025880654,0.9625852157140089,0.9442751544124196,0.5952039801008984,-0.4441414021255543,-0.5414770606704405,0.0009707918453909929,0.0408772056717721,0.5856478920076365,1.1848726329525168,6.24253244779602,1.3400388978412794,1.2442029319292458,1.3626663510045063,1.7379158757025557,1.590060757608782,1.9824270960925778,2.4700882628406546,1.236937846364368,Stress
93.96715745741213,650.989010989011,193.9200003727479,,,,,,,255.20584284499097,256.6347604080318,0.29788521326671263,0.3920278814803203,637.0,167.53379999999999,0.2630043956043956,238.5,0.7598572125581491,490.0,823.0,73.62637362637363,91.20879120879121,307.0,1363.0,15.166666666666666,320.3125,,,0.05144906001040448,0.09122512418480713,0.01743514282966592,0.1601093270248775,0.5639790624584641,0.321337057412092,0.5697677073530684,-2.3944249353581997,181.46817937270416,207.5469833847504,0.8743474678034641,118322.34826467498,1.1437100658759842,5.780036890188882,949.4942961573389,0.6263736263736264,0.6444444444444445,0.896551724137931,0.20833333333333334,49.83795261510952,50.328622924956626,49.447001953115496,41.11111111111111,0.4442192728323617,0.5557807271676384,120.94852187530124,135.28623421671298,0.5679911258666402,0.4320088741333596,156.41817003572686,136.4151985476116,0.5143653022355338,0.48563469776446627,139.81271197774862,135.85188913541765,0.8640687588732263,1.3810908605736025,1.0556268712871586,1.4241449064239073,-0.36132726679030647,-0.9810761532658021,-0.23316886987167976,0.00178071505838153,0.172179445020116,0.5966024756608639,1.4415570397949402,6.309992442396498,1.4611905493935557,0.9048622701520823,1.470551575701028,2.0176151355809386,1.5600342318314337,1.9388816467563916,3.500875126065063,1.2872560826766652,Stress
92.56583630113337,660.629213483146,194.2397991952726,,,,,,,248.24264156447637,249.63209292513216,0.2940224186743871,0.3757669756316484,656.0,195.70319999999998,0.2983280487804878,261.0,0.7824594435957227,494.2,815.2,71.91011235955057,87.64044943820225,307.0,1363.0,14.833333333333334,421.875,,,0.05533640085405215,0.11326238760285914,0.021927842560270052,0.19052663101718134,0.48856820013438657,0.29043919245631344,0.5944701115963434,-2.1780481377941534,176.5165457091513,209.9821010434477,0.8406266288031283,116444.12173719927,1.189588773108205,5.7730876795904695,999.1693998198324,0.5955056179775281,0.6136363636363636,0.8703703703703703,0.16,51.06129263057477,51.70976108295532,50.51702090195308,42.04545454545455,0.46357036799910306,0.536429632000897,120.19902078511765,129.3002831334518,0.5678490299647084,0.43215097003529157,158.2336044056963,138.03843376176906,0.5246649112946582,0.475335088705342,140.50921350737028,133.74074250914174,0.9349806606530315,2.549347071204481,1.3705497184241915,2.1248006817376233,-0.9671912449683724,-1.671450979292592,-0.20413955328684466,0.015276463410575425,0.8902168760731106,0.5890044332447135,1.3609765531356013,6.2874762680207406,1.3353854778065242,1.231226106191607,1.258598763020061,1.6284780125472609,1.7223534539071572,1.9400712037216274,2.699426032948605,1.0914157467920895,Stress
90.28473852722604,673.4022988505748,164.9951697510126,,,,,,,210.51048142716712,211.7438754954899,0.24501723565934005,0.31260731034997336,675.0,121.5732,0.18010844444444443,153.5,0.7837860073874658,550.2,793.8,62.06896551724138,82.75862068965517,317.0,1197.0,14.5,359.375,,,0.05030893838327488,0.07362105350020227,0.01493955838248285,0.13886955026596,0.6833498841895363,0.3622747988088409,0.5301454016319977,-2.6088242411607845,149.72553023758093,180.18393190294597,0.8309593905311651,84754.30992075347,1.2034282437806991,5.635131902113703,867.3537309098534,0.6091954022988506,0.627906976744186,0.8703703703703703,0.16,49.75545376911729,50.03017995831714,49.59078725730727,44.18604651162791,0.46355621177409645,0.5364437882259037,101.94118835070022,109.66312051004202,0.5511608874121341,0.4488391125878658,133.76893056294188,120.71504683365822,0.5153779087294994,0.4846220912705007,118.92462458697548,115.32155594695273,0.859652193223569,2.760883089505044,0.8541923984840185,2.1526168166767525,-1.1116874005983917,-1.9367335579997143,-0.029706845201653138,0.013337079634218747,0.9559239925381661,0.47886888143963047,1.200394982978052,6.204381570536505,1.203282574966749,1.1640153832857658,1.0275602680962739,1.54781289828691,1.7254690589733959,1.918658788462222,3.294291677804041,1.4070796140359292,Stress
90.3476502529014,672.9659090909091,167.61329665410202,,,,,,,215.63381582844477,216.88109657318813,0.24906654912211845,0.3204230896625038,676.0,94.8864,0.14036449704142012,133.25,0.7773052478348423,561.6,759.2000000000002,53.40909090909091,75.0,302.0,1197.0,11.0,375.0,,,0.04579662430223658,0.08161552533600032,0.015415157765814628,0.1428273074040515,0.5611263802284913,0.3206433358901051,0.5714280190490042,-2.505735773638902,153.3580940980758,182.15690360255954,0.8419010812386302,87761.13082194931,1.1877879982393773,5.650272320546775,865.4551355822697,0.6136363636363636,0.627906976744186,0.8703703703703703,0.16,50.384708836154545,50.439935027865864,50.417314159379735,46.51162790697674,0.5029333889696269,0.49706661103037314,108.759575894894,108.1233683839792,0.5469649422975902,0.45303505770240987,134.71792373141864,122.60594828786996,0.5287006824958751,0.47129931750412496,122.42868194042917,115.5916981151015,0.9532916031351812,2.3674231297160437,1.5256429507701763,2.0122010131907477,-0.4962358715156121,-1.2466315619107018,-0.2944777778364736,0.009884396086710809,0.7155211937338166,0.5230560987343802,1.0130901152299476,6.178126078839984,1.0406618084700223,1.2505159725633737,1.1281220781353984,1.517456148076572,1.3625340786434208,1.910674883130209,2.986809672788972,1.3212473765394472,Stress
90.83197728923462,667.6516853932584,161.23571826279087,,,,,,,187.46208707605143,188.53387444424186,0.24149675914892696,0.28077827282894224,675.0,84.5082,0.12519733333333333,118.0,0.8600977444435429,559.2,740.0,48.31460674157304,70.78651685393258,302.0,1197.0,11.125,375.0,,,0.056760090207598424,0.08948932382209145,0.008878505699296952,0.15512791972898685,0.6342666117406349,0.36589216374950434,0.5768743884300904,-2.413635947720582,133.31358110289653,183.7389251633066,0.7255598180102982,76952.97935978736,1.378246114486189,5.593195548872197,1012.9498387447838,0.5955056179775281,0.6091954022988505,0.8490566037735849,0.16666666666666666,50.42259122998905,50.41935638994819,50.52499506153442,48.275862068965516,0.5285631458571207,0.4714368541428793,96.92339076900332,91.53599882264774,0.5002529407570531,0.4997470592429469,129.95589862786161,129.89017296159142,0.5100167237220017,0.48998327627799837,114.63568219872894,112.36168411084782,0.9132925968137987,2.681015464667035,1.61586173472603,1.9997411603891968,-0.8808965520882541,-1.3849005710921882,-0.3568156615572368,0.007935127159679036,0.7456065924209383,0.5808890522050492,1.102931949812626,6.175116717458942,1.0003403474850285,1.4260117674872763,1.247931410105761,1.4102370111807314,1.3636522244147833,1.842254914785586,2.329655701381137,1.1641767965782288,Stress
89.5402562724947,676.3103448275862,157.95924631496356,,,,,,,181.0308659278982,182.09005190867504,0.23356029894120958,0.2676742523789858,680.0,77.09519999999999,0.11337529411764705,98.0,0.8725542216534296,594.4,748.4,49.42528735632184,71.26436781609196,302.0,1197.0,12.428571428571429,398.4375,,,0.03752500398351533,0.06781170635855444,0.018585596780923357,0.12392230712299313,0.5533705903977973,0.30281072758169114,0.5472114579923951,-2.6910204387841663,128.75711049123456,184.00423644233783,0.6997507936812297,74430.15385573595,1.429080194020542,5.578719026691511,1051.8272396624714,0.5747126436781609,0.5882352941176471,0.84,0.16666666666666666,50.43351091611825,49.8253215191679,50.94274808879956,50.588235294117645,0.5656542862688038,0.43434571373119646,96.83958840449985,84.85846347612836,0.4085204313287972,0.5914795686712027,117.60741736028419,141.51344250837687,0.4601716137257056,0.5398283862742944,107.72513750399443,116.67693266901796,0.7482273511965851,2.90032338851713,1.5470041140123567,1.765776983481162,-0.6081653606056978,-0.7084088031975173,-0.4245694909971198,0.00888310814977431,0.8576531532166628,0.5999820422928908,0.9883311636635208,6.1584045590422525,0.9749408888591836,1.1324046565564174,1.187900821763258,1.3879445897766567,1.3475070795011734,1.8104562090109184,2.684542950688601,1.1108523268704704,Stress
90.99381799635819,667.5340909090909,176.65349867626836,,,,,,,209.91147559437263,211.12233595186143,0.264635920594992,0.3144580605741074,686.0,71.9061,0.10481938775510204,113.25,0.8415618925838475,558.8,740.0,46.590909090909086,71.5909090909091,302.0,1197.0,12.571428571428571,375.0,,,0.05425574943730926,0.09518547858426468,0.012882354839651961,0.16232358286122592,0.5700002799195716,0.3342444054090016,0.5863934057298432,-2.3519278846991707,149.28603541150565,201.77311946881431,0.7398707806298204,94630.76820906253,1.351587366578719,5.683002475653705,1090.855996756912,0.6022727272727273,0.6162790697674418,0.8113207547169812,0.35,50.63676633444075,50.60167337663658,50.555391475392,50.0,0.5143749807615354,0.48562501923846463,107.07091216832954,104.03563231267292,0.4558538067588464,0.5441461932411538,136.2310491665422,148.84049510519503,0.4765569246137597,0.5234430753862405,122.52158787245409,128.4073708434552,0.9368239583987639,2.472402340398099,1.5688662537721507,1.8185355531795673,-0.35248446128053956,-0.5772870788129909,-0.3990175282849734,0.006434984796160749,0.6263021659896981,0.5809556556369504,0.9128951428730169,6.109944260658166,0.967892849137906,1.1366537872558948,1.265830618659139,1.4108058387579299,1.3455851898971756,1.7811806352858042,2.9569026333971498,0.8808315843596315,Stress
92.4699946009164,656.0777777777778,168.4645948718701,,,,,,,206.23440356420446,207.3817494134561,0.2567753406348893,0.31434444291460023,673.5,78.5778,0.11667082405345211,109.25,0.8168598059315747,556.2,727.6,48.888888888888886,75.55555555555556,302.0,1151.0,12.857142857142858,398.4375,,,0.04773704542570463,0.1403435119202828,0.022933473819411396,0.21101403116539885,0.3401442986037002,0.22622687772021646,0.6650909000941152,-1.963662205099695,146.64104130458412,186.76866498047895,0.785147986788421,86041.78727892469,1.2736452450071385,5.641679533031386,951.508088274873,0.6222222222222222,0.6363636363636364,0.8392857142857143,0.4,48.81981981981981,49.112894069891865,48.462368514828,51.13636363636363,0.4836511505773229,0.5163488494226772,101.99195043995117,105.38320225814842,0.47792666796421157,0.5220733320357885,129.11736269471467,134.9490306350953,0.48011005021567205,0.5198899497843281,116.34786483598216,121.07200375713147,0.8422717708875754,1.7143637888842838,1.4118819024267923,1.247479433922845,0.36767560165581514,0.3793333430468251,-0.5958970724707976,0.00397738081188484,0.3086750952629772,0.6527585933921158,1.0565410747474229,6.194576568527858,0.9928196137070623,0.976748765795952,1.1479842940157203,1.7252425094379003,1.3565144057515337,1.777857331576652,2.718888896802019,0.9377121139142864,Stress
91.19726013933257,664.6136363636364,159.51445232820566,,,,,,,200.99359514013457,202.15850715590446,0.24001080266870872,0.30242171412529223,673.5,70.42349999999999,0.10456347438752782,89.75,0.7936295294235158,586.2,730.6,45.45454545454545,77.27272727272727,302.0,1151.0,11.0,367.1875,,,0.0450068290274577,0.12978116913281718,0.013811675526206586,0.18859967368648145,0.3467901339476917,0.23863683402907035,0.6881304012676015,-2.0419055612550485,142.94765128448924,175.8530193540377,0.8128814154546791,78972.65268547482,1.2301917364424646,5.604446836138905,865.3317249511758,0.5909090909090909,0.6046511627906977,0.7884615384615384,0.35,50.14175383712972,50.247652210077916,49.914580704911224,50.0,0.4860929767661934,0.5139070232338064,99.6637661292697,102.47546501593715,0.4565331877235607,0.5434668122764391,118.81903106184326,129.6392003734067,0.4682942169009142,0.5317057830990857,109.6604496195986,116.8493543064934,0.7873018347757953,2.0483855487976896,1.3055960579647525,1.4255371273954438,-0.5866437207377118,-0.7283211442897115,-0.44144604783943564,0.002398631322663575,0.3219032342465303,0.5851184548821693,0.933990308973556,6.155398806112712,0.923172299374875,0.8638508234177285,1.2484148491310172,1.363063557867272,1.258755457993861,1.787109767875186,3.4440267292742925,1.1010394804495394,Stress
90.99766395162007,665.6516853932584,153.11686721434796,,,,,,,177.32863046281665,178.30942683440668,0.23002550819636022,0.2663985299730041,686.0,63.751799999999996,0.09293265306122449,84.0,0.8634638795479472,609.0,735.8,44.9438202247191,77.52808988764045,302.0,1151.0,14.833333333333334,351.5625,,,0.054401729244486274,0.10921381636290672,0.012368426140927143,0.17598397174832014,0.49812130970421087,0.30912888659137544,0.6205895643672403,-2.21444770020491,126.0838048640955,175.05609919601838,0.7202479973172123,69340.41325551669,1.3884106637225109,5.547956535601403,972.1990194936704,0.550561797752809,0.5681818181818182,0.76,0.2608695652173913,48.30480758748501,48.32016345977539,48.15726018733681,51.13636363636363,0.4445531383901193,0.5554468616098805,84.08284775955391,93.9867929093195,0.4601134682560278,0.5398865317439723,118.7434655543171,128.62591983685456,0.4547971843265172,0.5452028156734828,102.88327341994327,112.64578220079136,0.8988770867890326,1.6676984089367877,1.30265307868218,1.2402805848811227,-0.32977318867876093,-0.21822922293434566,-0.5374003437712828,0.001140840924395152,0.17346697271202427,0.5729615601065983,1.0029511700989973,6.158152953365381,0.928896660553672,0.7471809271974225,0.9905040421881234,1.0985531323844355,1.3791866671573731,1.7623494128559059,3.070643259689202,1.0186546970059502,Stress
87.68700459676514,689.1511627906976,138.7507725419392,,,,,,,173.7930479893018,174.82389137986513,0.20133575916794796,0.2521842193308242,692.0,62.2692,0.08998439306358381,84.5,0.7983677951863776,648.0,745.0,39.53488372093023,74.4186046511628,302.0,1151.0,12.285714285714286,351.5625,,,0.016068412628788994,0.1399637498662167,0.018590255869089512,0.17462241836409523,0.11480410209177637,0.09201803971862114,0.8015222282306633,-1.966371819427894,123.61915910812303,152.46129278711803,0.8108232381364671,59210.02654626511,1.233314430279924,5.479365365755729,752.1308498139406,0.4883720930232558,0.5058823529411764,0.6744186046511628,0.17391304347826086,50.23233064318904,50.710205068259704,49.64891896815575,48.23529411764706,0.45543601125210437,0.5445639887478957,83.42590096835006,91.2245398271028,0.5190473069393277,0.48095269306067256,109.84064362937251,105.73305445982591,0.49381528687325116,0.5061847131267487,97.53165625912379,98.74562135120519,0.8395213561679973,1.6591607800338712,1.2432809288158755,1.4647824064363584,-0.5395151611559967,-1.0750025642838104,-0.3664978823716162,0.001713378796360884,0.21805752231304062,0.6780159357630193,1.0372433422918175,6.07435007439407,0.8572125062281782,0.9546432346067094,1.035291195796442,1.1042857356803806,1.4099573212562884,1.8863398737509556,2.3969717851795656,1.1208601316340867,Stress
87.74128122012291,688.2674418604652,114.45167738791923,,,,,,,153.48048352650383,154.36859468560982,0.16628954157491938,0.2229954145609861,687.5,57.080099999999995,0.08302559999999999,75.25,0.7457083451796339,648.0,739.0,38.372093023255815,69.76744186046511,302.0,1151.0,12.285714285714286,367.1875,,,0.031414088412254,0.06746266145533161,0.009080549094215058,0.10795729896180067,0.46565148386643335,0.29098623913673016,0.6249013462184009,-2.6961809977798117,109.15508010443234,111.71911494573209,0.9770492735952551,38310.80802201821,1.023489835185377,5.290291421845758,457.37351417145413,0.47674418604651164,0.4880952380952381,0.6829268292682927,0.125,51.61522930487452,53.834999308267264,49.79113966839259,45.23809523809524,0.37044282473697504,0.6295571752630248,66.44595906592421,86.62147402292783,0.7912169354304197,0.2087830645695803,99.37457258053662,51.04757554177632,0.5856828093428891,0.41431719065711076,84.52919954594039,71.09548062499515,0.3149495916055373,2.5050612974903936,1.048270422774788,0.8708528761385135,-0.5120395293335207,-0.10792565742533133,-0.5708236348603581,0.004530267104451891,0.5040578481603393,0.722450669447555,1.2405825499384973,6.051094260440581,0.8636489066678988,1.021882753733121,1.2653236586802314,1.2890002875146924,1.4444917896918794,1.992123572757545,1.8965278628090476,1.1955841404096927,Stress
88.99315353902156,676.5632183908046,68.2454021194963,,,,,,,85.13716702652447,85.6228016283439,0.10087069510195508,0.12583771141006148,679.0,53.373599999999996,0.07860618556701031,68.5,0.8015935284554919,638.2,728.0,33.33333333333333,66.66666666666666,396.0,826.0,12.428571428571429,257.8125,,,0.042465528496878006,0.0403375326391359,0.0016517512262148603,0.08445481236222876,1.0527547353175861,0.5028195233534154,0.4776226660255573,-3.2104729124532,60.54446365559252,74.0297075910688,0.8178401026522063,14080.897688781393,1.2227328994470437,4.855600452896911,362.0742360321775,0.47126436781609193,0.4823529411764706,0.6829268292682927,0.041666666666666664,48.56642591376669,48.80732616358809,48.37399871710428,44.70588235294118,0.3483220690551322,0.6516779309448679,35.7383465169376,48.883294391726864,0.6446065250789472,0.3553934749210525,59.4365212379307,44.13272650938489,0.525836062873868,0.47416393712613186,49.040439785098236,46.568626884096545,0.6793324932317516,2.6832911957903227,1.1974140286818047,1.0387180001768475,-0.7735141509951582,0.5803407430362353,-0.5591423058197811,0.0009812704004702796,0.3886567094636221,0.5946861731703517,1.7227665977411035,6.066450536053744,1.1572086534228854,1.3130370126556221,1.0997955816407983,1.6256307955765152,1.8119196411752057,1.909580346781374,2.8050411843211234,1.184909148661835,Stress
88.06231274994998,683.1162790697674,71.99810759026954,,,,,,,100.07314971618334,100.66571409570271,0.1053965624832025,0.1464950445222266,684.5,52.632299999999994,0.07689159970781591,72.25,0.7194547967607975,639.0,739.0,36.04651162790697,67.44186046511628,396.0,855.0,14.333333333333334,257.8125,,,0.02569404604208124,0.030527337969930842,0.013595029682615549,0.06981641369462763,0.8416733246570548,0.3680230003572698,0.4372515910578764,-3.4891326699468577,71.1814090700576,73.55557551318341,0.9677228214644273,16448.717860318982,1.0333537432616589,4.923102161312246,304.03571717725475,0.5232558139534884,0.5357142857142857,0.7555555555555555,0.1,49.58079268292683,49.97846317047798,49.2354664237674,44.047619047619044,0.3796984178449422,0.6203015821550577,43.862338764648214,56.06267750940735,0.699049968099963,0.3009500319000369,61.49923420828616,40.35178906653327,0.5446090742056314,0.4553909257943688,53.413764939902876,48.84306854812565,0.6363083652293067,4.277141653215589,1.3755360361239086,1.9390586458018835,-2.0882110017973936,-1.119331205795372,-0.36824784976333097,0.011081555420452166,1.419718760370697,0.6396775623841124,1.853891250335061,6.147194987260237,1.1120013547028458,1.4084093127398063,0.9426394235355445,1.4220126112996698,1.815198957717472,1.909642591852742,2.8103257912397623,0.8966881053072696,Stress
86.93680702314354,694.0941176470589,140.9271699385564,,,,,,,185.69989871012956,186.81344835561893,0.20303755118440106,0.26754282162719095,679.0,66.717,0.09825773195876289,93.0,0.7588973979923291,631.8,741.0,40.0,65.88235294117646,396.0,1529.0,14.166666666666666,242.1875,,,0.010378627564071433,0.03976853487337769,0.011720881165467358,0.061868043602916485,0.26097585936008955,0.16775425501869565,0.6427960633218243,-3.224679260436679,132.097056149101,150.682042813307,0.8766609058570268,62532.31562741284,1.1406919064360426,5.503074621252199,687.5271467295541,0.5529411764705883,0.5609756097560976,0.7608695652173914,0.16666666666666666,49.57700920627021,50.861109393799545,48.007303724529564,40.243902439024396,0.30808535523600356,0.6919146447639964,73.32174515962514,109.88123380345105,0.7716418789152523,0.22835812108474762,132.363851066679,72.00617304918588,0.5701965758084585,0.42980342419154155,106.99595175158495,92.89449526037045,0.42572245802712205,4.601380925020925,1.4086527920216743,2.245382822001901,-1.9357357083281244,-1.9364781590419575,-0.31815675693565365,0.027829609887220264,2.3208900050708188,0.7072645504241208,1.0016505808253118,6.197626230255347,0.7775249869626062,0.8761523623021787,1.2453073335050036,1.3504538389512304,1.3325435801466081,1.9594590427930685,2.054456219192915,0.980259790232825,Stress
87.3985268604532,694.1882352941177,160.4275904098353,,,,,,,212.95737892380072,214.17930830128682,0.23110099286235294,0.30677180640143475,666.0,78.5778,0.11798468468468468,101.0,0.7533319165580012,610.8,742.0,44.70588235294118,65.88235294117646,396.0,1529.0,14.166666666666666,242.1875,,,0.03407658351450488,0.12401629377040152,0.011791106205338391,0.16988398349024478,0.27477505155566745,0.20058738213223998,0.7300058029162172,-2.087342320635299,151.4476412896841,162.91431559403648,0.929615305674389,77512.48044741518,1.0757137860101718,5.596341744765684,700.9967008916677,0.5764705882352941,0.5903614457831325,0.7755102040816326,0.17647058823529413,52.08102388390608,52.70373073381096,51.17602349255511,38.55421686746988,0.3829665588739225,0.6170334411260775,93.74728911743246,118.99607667927644,0.7467142331678147,0.25328576683218507,140.77854200027917,81.99070885014322,0.578042606116819,0.4219573938831808,119.59755872214082,102.18253912192922,0.6898558172079473,4.421877370425764,1.539340443759106,2.479063211902821,-2.010324183245636,-1.9911485342327238,-0.28748330416652124,0.03160611604853911,2.248444943702281,0.7179272980325391,1.114360645636249,6.212274612582836,0.8488761157373114,0.9755306512381432,1.0691022045224654,1.4046589976577974,1.3720592454359157,1.9128045602460053,2.3363933007527704,0.980259790232825,Stress
87.55902064253387,691.2117647058824,170.43369707319974,,,,,,,215.15816441465967,216.44834945199605,0.24657233249743804,0.31127676842452423,663.0,88.95599999999999,0.13417194570135746,106.0,0.7921321393351102,597.4,742.2,48.23529411764706,67.05882352941175,396.0,1529.0,12.142857142857142,242.1875,,,0.024632453228375192,0.10600434724619773,0.00891231466952106,0.139549115144094,0.23237210424177895,0.17651457841879187,0.7596203468344532,-2.244275173954447,153.05209567414195,187.95357511865862,0.8143079777946085,90373.21745246771,1.2280365995041598,5.6630098541986325,923.2554770134689,0.5529411764705883,0.5714285714285714,0.7708333333333334,0.17647058823529413,50.374088455346154,51.48909802435867,49.006907720355734,33.33333333333333,0.3480377975191681,0.6519622024808317,90.29353070263112,123.58183474733684,0.7155146559834316,0.28448534401656833,158.98635694422535,100.24911324041038,0.5689954159538353,0.43100458404616476,129.28569793512278,112.52189694678697,0.7673591364932327,4.387008123257692,1.6094104848790356,2.5360479764485957,-1.8494658080955517,-1.7517166353222984,-0.2887768917825801,0.036522647179044916,2.3346702708354563,0.6767291172192564,1.0608719606852628,6.150567406725935,0.8835522769030347,0.8893059316944477,0.9992034186779047,1.3522449039062983,1.339499285410895,1.8758876024156714,2.301318681213573,0.9048551909841461,Stress
86.00764341027188,703.2380952380952,168.2641797707359,,,,,,,213.41429814003186,214.71073625804675,0.23927056982566725,0.3034737446465784,677.5,86.73209999999999,0.12801785977859778,115.75,0.7884391122675825,601.6,747.4,45.23809523809524,66.66666666666666,439.0,1529.0,14.0,195.3125,,,0.056996680087055274,0.13561015032188573,0.014657398142252361,0.20726422855119336,0.4202980378074011,0.27499525839779604,0.6542863246099923,-1.9979710513961655,151.82341760162117,185.06231408375578,0.8203907875749825,88268.67845768847,1.2189312887775468,5.652776734421227,902.3129800410703,0.5952380952380952,0.6097560975609756,0.8,0.25,50.25717111770525,51.18120856119904,49.04231873376359,37.80487804878049,0.3720145808919421,0.6279854191080576,92.60205313005991,120.31379196328808,0.703674567259044,0.296325432740956,155.24010070252976,100.74011727163658,0.5702516998551882,0.4297483001448116,127.81750488496093,110.95940646130109,0.7573214880415292,2.606684877770628,1.4117138887516039,1.575118018957728,-0.6105774869609579,-0.4408643756940105,-0.43731343147781027,0.005926363173301879,0.6030286622381308,0.6179955278162712,0.9444616088408512,6.169044952514907,0.8208677418169696,0.9425143836086459,1.0592925404144433,1.3417031894140437,1.356553483017957,1.8434773471315071,2.281402048300379,0.9892872201919511,Stress
86.38772964375525,702.4761904761905,175.55286000288405,,,,,,,229.983551009501,231.38151318323185,0.24990577955942006,0.3273898163774079,678.0,91.17989999999999,0.13448362831858404,118.75,0.7633278955486328,602.6,750.0,47.61904761904761,65.47619047619048,316.0,1529.0,16.8,320.3125,,,0.05812936580697818,0.14846816767489424,0.012997601810286318,0.21959513529215874,0.3915274682601729,0.26471153711870893,0.6760995296064544,-1.907384702809198,163.61143701306776,188.64060613735094,0.8673182320774605,96961.36371751747,1.152979336782453,5.693568824981483,869.9948838179312,0.5595238095238095,0.573170731707317,0.7872340425531915,0.21052631578947367,50.09181050312156,51.119646275262696,48.84021467035515,37.80487804878049,0.3775045147323325,0.6224954852676677,100.52520615831003,129.08684919133452,0.7030601040118702,0.2969398959881298,158.17265709201132,102.79440078292285,0.5632982791272547,0.43670172087274517,132.5215199971645,116.68355382500678,0.7082801080914681,2.668255542446343,1.469517645292059,1.5904357042360782,-0.2573750808344464,-0.18862835882864992,-0.4546827292137254,0.009817223376617822,0.7714747833153454,0.5914675065881942,0.8928604800657691,6.216664000133955,0.8606008732893567,0.9126597351824604,1.2928703950209686,1.5731348311193993,1.414376301693378,1.8309004404818692,2.331851472349114,1.0653862371297935,Stress
86.01629407910907,705.202380952381,174.2492177135405,,,,,,,225.1518630741996,226.50695016254252,0.2470910796957544,0.3192726927128782,679.0,91.9212,0.13537731958762886,120.25,0.7739186135720141,608.4,755.4000000000001,46.42857142857143,65.47619047619048,316.0,1529.0,16.8,320.3125,,,0.04387124558565096,0.07571019770569612,0.01578561901336786,0.13536706230471493,0.5794628321562324,0.3240909925850027,0.559295565824354,-2.5808424155152117,160.16460044581717,188.5405595872205,0.8494967915469861,94868.31765156689,1.1771674830918881,5.684091309044429,887.7752639600983,0.5119047619047619,0.524390243902439,0.7209302325581395,0.14285714285714285,49.008799922638055,49.99347240473237,47.86911445889698,40.243902439024396,0.37409047405033186,0.6259095259496681,97.96726680812147,126.72095809104425,0.6964539292919757,0.30354607070802436,157.34429041765037,103.87645008580303,0.5613225872652476,0.4386774127347523,131.06260163160115,115.8631047873751,0.6697518552528221,2.787382623806703,1.4230774227950067,1.6049725801876225,-0.7796169311014864,-0.7258987507499108,-0.43474338404814944,0.007454731091621483,0.7230436796754963,0.612648287038605,0.8975108372225586,6.192854476324431,0.8264427633432285,0.993828008632862,0.8471292093930597,1.0631813353896915,1.4003239057173007,1.865148153883918,2.549576435091003,1.141485254067636,Stress
87.95015127048613,688.5,134.32907354701737,,,,,,,183.19452855944593,184.280090679184,0.19510395576908843,0.2660777466368133,681.0,87.4734,0.12844845814977973,120.25,0.7332592004975088,612.0,753.0,50.0,70.93023255813954,316.0,1124.0,17.2,382.8125,,,0.057304696103878505,0.0643693103256508,0.007011268468896426,0.12868527489842574,0.8902487196766332,0.4453088836241009,0.5002072721720413,-2.7431183071951315,130.3057017569229,139.6469879105632,0.933107857939457,57166.92929675367,1.0716874705227089,5.46411497481396,598.6317089599472,0.5465116279069767,0.5542168674698795,0.782608695652174,0.13636363636363635,49.64454976303317,50.17083801099172,49.194510992127974,42.168674698795186,0.442248529422075,0.5577514705779247,86.65637530471939,97.31676922005052,0.6255109514678934,0.3744890485321067,110.44575581967678,85.45768692115023,0.5402128435399278,0.45978715646007207,99.26628924144401,91.57939130978625,0.868494133664409,2.320978764754038,1.0680663520798128,1.939119432815776,-0.950196479498219,-1.7704683130469143,-0.1247044161008206,0.007548633323650781,0.5905059606259893,0.5770859049230737,1.0986122886681096,6.263474057027677,0.9233063953725515,0.9672563813902958,0.8387831760058296,1.3223487430708665,1.6535780421019608,1.854321500697832,3.258538932559873,1.0461361228584811,Stress
86.93782132228674,697.3214285714286,121.00703561286886,,,,,,,171.17640446563635,172.19423577451724,0.17353121624380682,0.24547704609668722,689.0,74.87129999999999,0.10866661828737299,93.75,0.7069142268212615,631.6,747.4,41.66666666666667,69.04761904761905,316.0,1124.0,12.0,359.375,,,0.048930164634602216,0.1586742684093832,0.0423642979228005,0.2499687309667859,0.3083686165696462,0.1957451415837436,0.6347764690235065,-1.8409018044233096,121.7597117973963,119.5654408756052,1.0183520497705856,45736.10262779098,0.9819786784199828,5.3672292636877135,469.6428544629175,0.5476190476190477,0.5555555555555556,0.7555555555555555,0.19047619047619047,51.425046267735965,51.623248093732435,51.23404378341294,41.9753086419753,0.4770541933780781,0.5229458066219218,84.10946700000179,88.06216623471863,0.6068944194404362,0.393105580559564,93.14557791474778,74.96529841670407,0.5407852408245335,0.45921475917546667,88.74260849247317,81.77634465007809,0.6243628292855059,2.569157104001864,1.2729837089756146,1.6172213053968656,-1.3311811814060484,-1.7477410296269036,-0.36601146505013377,0.004171352083323453,0.5372277135193353,0.6518309511430584,1.1169614273363062,6.130412660873997,0.8827673375737694,0.969141673091934,0.9679643889586953,1.3132672367437357,1.5672540299866484,1.9019348080527723,2.875536320371548,1.2175842710054783,Stress
89.73035717778014,674.7840909090909,104.95291214149395,,,,,,,171.00245343403634,171.9932767563853,0.1555355461924095,0.2534180276889106,677.0,67.4583,0.09964298375184637,93.75,0.6137509142930467,626.4,738.2,40.909090909090914,73.86363636363636,316.0,1043.0,12.571428571428571,382.8125,,,0.032768927647992815,0.1284939113622629,0.045893919939292746,0.2071567589495485,0.2550231937107695,0.15818420704280978,0.6202738062413723,-2.0518737581642847,121.61761231293467,86.10220330859732,1.412479676937502,32897.326899951346,0.7079747881174272,5.224130720380917,243.8327565753913,0.6022727272727273,0.6162790697674418,0.8301886792452831,0.25,49.79209979209979,50.28542732187575,49.33751139257353,44.18604651162791,0.4537456172072767,0.5462543827927232,81.9226450222517,89.88665343150939,0.6313401697159325,0.36865983028406724,68.41415642405208,52.27898827808702,0.5130404416614827,0.48695955833851745,75.47124143227184,73.52789634042524,0.5016621394146215,1.9486205201310227,1.1588749125070286,1.057393117913831,0.21589628298459473,0.05294923902281656,-0.5520787878115817,0.004822678346132459,0.4094293637371087,0.6810163569269592,1.3476795249921116,6.246307897021802,0.9106550013601643,1.4047773840517326,1.1574623431869873,1.555201808363213,1.601736745943013,1.8923903906936292,3.0371921987815305,1.1744421124795086,Stress
89.85843973857186,673.2298850574713,100.9792404580021,,,,,,,164.6517113379379,165.61147154567504,0.14999221320869,0.24456981930307828,679.0,66.717,0.09825773195876289,89.0,0.6132899539121592,627.4,728.0,35.63218390804598,68.96551724137932,316.0,1043.0,12.428571428571429,382.8125,,,0.023747103297784802,0.13011336611021548,0.036551394041892664,0.19041186344989297,0.1825108673129652,0.12471441047597263,0.6833259427895622,-2.039349161536974,117.10499457222977,82.25234602619298,1.4237283218029804,30260.324774798002,0.7023811949836192,5.187843694823636,231.09000436833426,0.5862068965517241,0.6,0.7647058823529411,0.25,49.23935091277892,49.894256939581794,48.62786590846685,42.35294117647059,0.43442523105534864,0.5655747689446514,77.1877771488237,88.07162860255215,0.662478236851697,0.33752176314830307,66.94745958814187,47.785835574013944,0.5097611617160416,0.4902388382839583,72.2492743440457,70.85230358362591,0.3933152798288808,1.567300538911193,1.3456718445725766,0.6517978835327878,0.8580795940085482,0.9494223304582041,-0.9427191491440592,0.003974745610565916,0.29927666943269127,0.6853657289658615,1.2562412328716928,6.141050823360333,0.8270995857534689,1.3012929536358866,1.336048755721277,1.5784301518670756,1.5346143620541866,1.9233042581595154,2.722527286637845,1.184909148661835,Stress
87.8928688101061,685.9186046511628,83.24806517677845,,,,,,,130.9814984689688,131.75839658263914,0.1213672651715226,0.19095778650818485,690.5,51.149699999999996,0.07407632150615495,67.75,0.6355711772262324,638.0,728.0,26.744186046511626,61.627906976744185,372.0,1043.0,12.285714285714286,320.3125,,,0.016095678737641908,0.12819141437800677,0.04828275740905216,0.19256985052470085,0.1255597250076318,0.08358358639104475,0.6656878739258496,-2.054230707268562,93.16725570185056,72.8798731500278,1.2783674240219918,21331.469966869165,0.782247717838277,5.035990893986143,228.04045779180947,0.5697674418604651,0.5783132530120482,0.7291666666666666,0.2,50.24841528182286,50.72461896415356,49.76192711862147,42.168674698795186,0.43329404027915197,0.5667059597208479,61.327623310808164,70.13643167155746,0.625990031756227,0.37400996824377314,57.66221443719696,44.570673503581475,0.5064447038996869,0.4935552961003131,59.52313984810305,58.76080319473989,0.46336267237254214,2.3461623899977937,1.1477829680352638,1.1094880785895045,-0.13126421075709338,-0.032377552047182734,-0.5163223524548083,0.0039932010320646505,0.49077502609738954,0.7459531137345983,1.2286654169163076,6.004582632533604,0.8406817523915304,1.0747172469752349,1.2209626273416767,1.3477065087657116,1.4242641199240593,1.8995727658764736,2.7927819620283736,1.1208601316340867,Stress
88.2291619668437,683.4302325581396,82.8402489128641,,,,,,,129.61826305597162,130.38730283081938,0.12121244417705337,0.1896583687420427,688.5,45.2193,0.06567799564270152,59.75,0.6391093890611087,636.0,727.0,22.093023255813954,56.97674418604651,372.0,1043.0,10.75,312.5,,,0.014807087940896635,0.09106236161185079,0.030049372434180377,0.13591882198692778,0.16260382092890563,0.10894067300201242,0.6699760951475054,-2.396210714733007,92.19774601229629,73.04484060832631,1.2622075049307009,21157.274574961284,0.7922627587726973,5.032429832243256,231.4828277378582,0.5697674418604651,0.5783132530120482,0.75,0.19047619047619047,50.17979144192737,50.68082711174178,49.66695543204728,42.168674698795186,0.4313432898529211,0.5686567101470791,60.55256472882132,69.52581740414337,0.6310879028305756,0.3689120971694244,58.027581928413355,44.36607346877875,0.5083703953522793,0.49162960464772076,59.303513216742985,58.318898140960094,0.4012947236490812,1.8296052053823137,0.996728701303899,0.7623871467077357,0.22223080565839481,0.3475881650363368,-0.6280831262978372,0.0033790551570622804,0.3132811021744511,0.6872181187233206,1.072636802264849,5.958071004626627,0.7749988658323379,1.0298481360776996,0.9732610970279832,1.2154701757476987,1.3707178521532484,1.9447351837907303,2.6630400914689316,1.1208601316340867,Stress
88.07104617780888,683.4597701149426,64.45871305198881,,,,,,,93.71145719335671,94.25689784147193,0.09431237341321246,0.13711334783844928,691.0,40.0302,0.05793082489146165,54.0,0.6878423939026993,654.8,722.6,12.643678160919542,55.172413793103445,372.0,900.0,10.875,398.4375,,,0.039888242592099894,0.0961341805135995,0.015583790586884763,0.15160621369258415,0.414922584027823,0.26310427271129083,0.6341044880161262,-2.342010349723503,66.64969163731246,62.63345915082734,1.0641227954025922,13114.580852730758,0.9397411692714163,4.824724524883967,235.43696055164787,0.5632183908045977,0.5764705882352942,0.7346938775510204,0.14285714285714285,50.962025316455694,51.00828193460284,50.9783728428587,41.17647058823529,0.5056432541794771,0.49435674582052275,47.395767991767066,46.863820235431334,0.5292321227639841,0.4707678772360158,45.5648029140315,42.97439866483094,0.5167050749637958,0.483294925036204,46.489300318051384,44.96118652606182,0.6664694481009344,1.8503700491639847,1.3194207314399575,0.8049571880987365,0.6966263752391075,1.2768054972300642,-0.7780327878597368,0.0050614131749750395,0.37780467283679126,0.8103046336880517,1.3397743454849977,5.942831139477154,0.8887076199769955,1.2338815107633099,1.242063775036284,1.465063818563527,1.3780970457590398,1.8436411065356229,2.499145347931412,1.1108523268704704,Stress
88.9847869248723,675.4827586206897,66.32072566525973,,,,,,,73.20002859320829,73.60024850520112,0.09818270684019256,0.1083669829599796,688.0,40.0302,0.05818343023255814,54.5,0.9060204885140326,635.6,717.8,11.494252873563218,51.724137931034484,371.0,805.0,9.666666666666666,328.125,,,0.014471906615868415,0.026569617973463425,0.00014194386647213136,0.04118346845580397,0.5446787616714069,0.3514008692929528,0.6451525082686176,-3.6279868974295724,52.043234815042766,77.23596344480725,0.6738212678894439,12627.975303925243,1.484073073460889,4.808303833848784,458.4952546049918,0.5632183908045977,0.5764705882352942,0.7346938775510204,0.13043478260869565,47.23177979355647,48.36815959952751,46.21906106229501,42.35294117647059,0.27149643344639535,0.7285035665536047,27.128018942869858,44.43772906783021,0.7212702614040801,0.2787297385959197,65.59467451919527,40.776619820289675,0.5807480728188007,0.4192519271811992,50.19258280385594,42.64647985868425,0.8793730660165306,1.9488591129201636,1.3595655714981172,1.1512710313552241,-0.3072734770387662,0.10526153736140342,-0.6068802453507197,0.0021688770576088834,0.25475175450394383,0.775318588026658,1.2373384981697364,5.960184875159073,0.8789650038490738,1.1671244483905308,1.2107064759815744,1.494743417656804,1.4945208434342667,1.8825870463734047,1.8126085990625203,0.9627386832877409,Stress
87.76045562663538,685.3023255813954,77.69549457260044,,,,,,,84.80156768806188,85.30179082649605,0.1133740418970347,0.12374329478032647,690.5,37.8063,0.05475206372194062,49.5,0.9162035171142029,649.0,718.0,13.953488372093023,51.162790697674424,375.0,1097.0,8.6,367.1875,,,0.04533731315413145,0.06716084830859051,0.012805453477750745,0.1253036149404727,0.6750556953333238,0.36181967436190565,0.5359849222266752,-2.700664815694283,60.31747474077178,92.35137351699858,0.6531302399056306,17499.932867843185,1.5310881948208184,4.950006492637732,565.592391069458,0.5697674418604651,0.5833333333333334,0.7755102040816326,0.125,49.12882033704657,49.54951711220545,48.78442963282462,42.857142857142854,0.35558623893884944,0.6444137610611506,35.96923288430981,48.4218196585756,0.7524592234803967,0.24754077651960346,80.1096517875581,45.948012807436854,0.6337793529597493,0.36622064704025065,62.09404973026612,47.20112551624167,0.7643734121112309,1.7760496643011565,1.2968525778024782,0.8100877654485236,0.276557966720107,0.9897273154746826,-0.7740716220598977,0.0043053354601759524,0.2953748151858096,0.748485299244189,1.1071229783360184,5.865047748812674,0.8016226547546421,1.116935363536758,1.2526721349663743,1.581743657940936,1.1957918528556353,1.869361058371536,1.9231208747354307,0.9714121140828752,Stress
88.4815182682488,681.3837209302326,90.1412184368833,,,,,,,100.96889445298895,101.47922335684898,0.13229141769606928,0.14818213489918,689.0,41.5128,0.06025079825834542,63.0,0.8927622603499239,630.0,720.0,20.930232558139537,56.97674418604651,351.0,1097.0,8.6,351.5625,,,0.05408782176287553,0.06586491721116645,0.011177612000579653,0.13113035097462164,0.8211931943900738,0.41247370544553363,0.5022858302568994,-2.720149343248431,71.7566469851722,99.8535362993449,0.7186189858119524,22509.998166742585,1.3915580018667628,5.059345569592537,555.8079498081867,0.5348837209302325,0.5476190476190477,0.7608695652173914,0.13043478260869565,46.04015001103022,45.22378066139782,46.683957632181325,45.23809523809524,0.38693048649185097,0.613069513508149,44.67441741565939,56.233780730430134,0.6381833657118328,0.3618166342881675,79.7693751241342,60.06309602234762,0.5525205664562992,0.44747943354370084,64.64888544717307,58.17995186929878,0.841558249938235,1.9476473727043597,1.2697816747618056,1.2327127401769173,-0.8978051105721772,-0.6858148173185885,-0.5190326724972895,0.002115995879349277,0.22113908103611354,0.6835557592712131,0.9391054096403265,5.934815190673139,0.8297870307870236,1.1548579242620172,1.0441354055401992,1.1602345352458117,1.280377592353361,1.846879560965104,2.2415707119581723,1.0461361228584811,Stress
88.40482402570305,681.7093023255813,94.55703119146041,,,,,,,127.78672489278192,128.54498716593423,0.13870579566523267,0.18745046379277885,684.0,44.477999999999994,0.06502631578947368,58.75,0.7399597358082185,630.0,717.0,25.581395348837212,62.7906976744186,363.0,1097.0,8.6,335.9375,,,0.028348136229394947,0.07676027459218805,0.008522567387976602,0.1136309782095596,0.3693073843208992,0.24947542189696703,0.6755224306053745,-2.567068030566753,90.89503211256981,99.13796020728698,0.9168539671637173,28309.356597906673,1.090686233374214,5.158900108992945,432.51363361155416,0.5697674418604651,0.5833333333333334,0.7959183673469388,0.13043478260869565,49.8695425291355,50.55094931975845,49.26289245673066,45.23809523809524,0.4016785266314265,0.5983214733685734,57.607611517592915,70.30850385469537,0.7415319924576289,0.258468007542371,85.36993000660522,50.40149010425139,0.586319000377161,0.41368099962283905,72.82397220041824,61.170237530251036,0.7718728039676523,1.7806674886747458,1.278920882966496,1.096312923692045,-0.2593387565658549,-0.06836424448305545,-0.6025502854608505,0.0032335202669848697,0.2449018918399621,0.6910620148375028,1.030558825423094,6.027838446487093,0.8781843161580816,1.0800514985334702,1.1341091274084312,1.507728659224493,1.3440354168922932,1.8713457235944304,2.513829468020732,1.1955841404096927,Stress
