PPG_Rate_Mean,HRV_MeanNN,HRV_SDNN,HRV_SDANN1,HRV_SDNNI1,HRV_SDANN2,HRV_SDNNI2,HRV_SDANN5,HRV_SDNNI5,HRV_RMSSD,HRV_SDSD,HRV_CVNN,HRV_CVSD,HRV_MedianNN,HRV_MadNN,HRV_MCVNN,HRV_IQRNN,HRV_SDRMSSD,HRV_Prc20NN,HRV_Prc80NN,HRV_pNN50,HRV_pNN20,HRV_MinNN,HRV_MaxNN,HRV_HTI,HRV_TINN,HRV_ULF,HRV_VLF,HRV_LF,HRV_HF,HRV_VHF,HRV_TP,HRV_LFHF,HRV_LFn,HRV_HFn,HRV_LnHF,HRV_SD1,HRV_SD2,HRV_SD1SD2,HRV_S,HRV_CSI,HRV_CVI,HRV_CSI_Modified,HRV_PIP,HRV_IALS,HRV_PSS,HRV_PAS,HRV_GI,HRV_SI,HRV_AI,HRV_PI,HRV_C1d,HRV_C1a,HRV_SD1d,HRV_SD1a,HRV_C2d,HRV_C2a,HRV_SD2d,HRV_SD2a,HRV_Cd,HRV_Ca,HRV_SDNNd,HRV_SDNNa,HRV_DFA_alpha1,HRV_MFDFA_alpha1_Width,HRV_MFDFA_alpha1_Peak,HRV_MFDFA_alpha1_Mean,HRV_MFDFA_alpha1_Max,HRV_MFDFA_alpha1_Delta,HRV_MFDFA_alpha1_Asymmetry,HRV_MFDFA_alpha1_Fluctuation,HRV_MFDFA_alpha1_Increment,HRV_ApEn,HRV_SampEn,HRV_ShanEn,HRV_FuzzyEn,HRV_MSEn,HRV_CMSEn,HRV_RCMSEn,HRV_CD,HRV_HFD,HRV_KFD,HRV_LZC,Labels,HRV_DFA_alpha2,HRV_MFDFA_alpha2_Width,HRV_MFDFA_alpha2_Peak,HRV_MFDFA_alpha2_Mean,HRV_MFDFA_alpha2_Max,HRV_MFDFA_alpha2_Delta,HRV_MFDFA_alpha2_Asymmetry,HRV_MFDFA_alpha2_Fluctuation,HRV_MFDFA_alpha2_Increment
127.91358307890685,469.7936507936508,57.86858456334559,,,,,,,77.16538083881916,77.47589177577508,0.12317872850257704,0.16425377547878525,461.0,17.7912,0.038592624728850326,24.75,0.7499293586617533,449.0,478.0,5.555555555555555,26.190476190476193,390.0,901.0,5.7272727272727275,117.1875,,,0.03837131879240646,0.10827020376866796,0.03235866108049843,0.17900018364157286,0.35440331186954543,0.2143646895314956,0.604860853022735,-2.22312528961928,54.78372845312562,61.213250726588015,0.8949651881390817,10535.299879445787,1.1173618965887593,4.729617011950047,273.5894157128945,0.6031746031746031,0.6129032258064516,0.8552631578947368,0.23333333333333334,49.91418764302059,49.96569435443741,49.85318289146336,48.38709677419355,0.48402954674921267,0.5159704532507874,38.114270039516185,39.351753250280574,0.517462388133003,0.48253761186699684,44.03366535262647,42.52174008820702,0.5025934158696528,0.4974065841303473,41.180464209575504,40.967419152297104,0.6584578557086657,2.1119652883457034,1.223572532961864,1.0745646284696115,-0.529593162294125,-0.24903421855778873,-0.570554144670138,0.0035903379516631097,0.31913241866392755,0.7458788134683547,0.750088556960084,5.657818816945374,0.5605210168576229,0.5636685729695287,0.8420341742226841,0.7814480063281953,0.9495768858424943,1.932224729328001,1.7492312985727214,1.052129512273797,Relax,,,,,,,,,
129.5649914270963,463.4296875,41.96055207704298,,,,,,,54.14750923085486,54.35827694303761,0.09054351330706016,0.11684082977712743,458.5,16.3086,0.03556946564885496,22.0,0.774930420126003,447.0,473.0,2.34375,20.3125,414.0,894.0,4.413793103448276,78.125,,,0.05353004306481661,0.1333608846929611,0.03771920898808264,0.22461013674586036,0.40139238119227905,0.2383242530384292,0.5937438382126757,-2.0146964066911686,38.43710624003824,45.23585582442847,0.8497044112356831,5462.398347183825,1.1768798499536437,4.444353477987333,212.94866886071216,0.6015625,0.6141732283464567,0.8461538461538461,0.15625,48.3633387888707,48.257172746172394,48.48361581103925,48.031496062992126,0.46031507312854825,0.5396849268714516,26.080005112473934,28.239058844877327,0.5304578009106818,0.4695421990893182,32.94642007428074,30.997033026686758,0.5010461100661586,0.4989538899338414,29.71223033009837,29.65013069871661,0.8773308122910389,2.226301863862307,1.2475755038638907,1.2625804137028018,-1.0140671078761834,-0.4776919612211379,-0.4932601638248284,0.001145551160645083,0.2554032427343911,0.8139440245403624,0.8848298593761512,5.456927934728811,0.6548592269783168,0.6718358445003653,0.8789977440784117,0.8600767155520066,0.8542757373038167,1.9653256689877472,1.6071979105122611,1.0390625,Relax,,,,,,,,,
130.67326603653166,459.51937984496124,41.11931966378339,,,,,,,53.461361631555924,53.671421572400725,0.08948331989318226,0.11634190847313867,456.0,14.825999999999999,0.03251315789473684,19.0,0.7691408974423211,445.6,468.4,2.3255813953488373,14.728682170542637,414.0,894.0,4.03125,70.3125,,,0.007670992962008239,0.02130143054605475,0.0049244970641989134,0.0338969205722619,0.36011632859225917,0.22630353532130199,0.6284178676539092,-3.8489810467354015,37.9514261497665,44.354362992677736,0.8556413301670397,5288.278512859663,1.168713998194522,4.430284429626379,207.35025964217414,0.6046511627906976,0.611111111111111,0.8311688311688312,0.23333333333333334,50.065818341377785,50.18806079699337,49.90421639113391,44.44444444444444,0.4633103633018896,0.5366896366981102,25.832363879870677,27.802877548915685,0.5381789731836428,0.46182102681635734,32.53866339475183,30.142078577451446,0.5065339930965931,0.49346600690340703,29.37750533264363,28.9960764670779,0.2410908676544166,2.2774275594593583,1.000732899188681,0.9510795478942137,-0.5150973742279632,-0.6576471752481994,-0.5218023844878098,0.005989373576822314,0.4569734707076326,0.8203283003468482,0.81661786663027,5.412373771501763,0.6094407636304987,0.4762768115483337,0.8605555355748229,0.8203041107527979,0.780638572326116,2.0422915247573807,1.5237240657932525,0.8696095820680005,Relax,0.5314674248087367,1.000987136384027,-0.2282407626082481,0.2722528055837654,1.0,-3.0190674552676615,0.0,0.0020802575370920955,0.10703765784662751
132.0180926940625,454.5230769230769,13.08126975358776,,,,,,,14.977502508607664,15.035088965277142,0.02878021032978623,0.03295212777753514,453.0,11.8608,0.02618278145695364,15.75,0.873394596066325,445.0,466.0,0.7692307692307693,11.538461538461538,414.0,492.0,3.5135135135135136,62.5,,,0.039895925544580095,0.08894925550634585,0.005657264190244146,0.13450244524117008,0.4485245583841208,0.2966185891493985,0.6613207317298586,-2.419689234704692,10.631413363090498,15.154235710870411,0.7015473142907755,506.14495822145534,1.4254206090304018,3.4112450251016626,86.40463958551668,0.5846153846153846,0.59375,0.8157894736842105,0.1935483870967742,49.29078014184397,49.31403390858172,49.26771452894771,44.53125,0.3972976708825764,0.6027023291174235,6.701504028947531,8.254023640019454,0.6081514689384783,0.39184853106152184,11.81788931409492,9.486219064538897,0.5385996260238347,0.46140037397616535,9.606577540680107,8.89149195552752,0.7641365913696326,2.122347330517635,1.066058368253908,1.143718452029645,-1.0334396333972524,-0.29849802283263926,-0.46340840037865244,0.00024214336961983786,0.20243080267757094,0.7114382530377057,2.5552874465497997,5.314451537488648,1.2848830148044452,1.5845397749813155,1.2442988738569754,1.8746359111202626,1.9296001038356858,1.9062409546209163,2.942632400861405,1.1343824928738273,Relax,0.446206298797112,0.5379631350339431,0.5120013653581147,0.32604134809266205,0.9073185836588702,1.053622470503111,-0.8456742760890472,2.858555963914638e-05,0.013536127576716482
132.36885489029257,453.3358778625954,12.063046360379289,,,,,,,13.959832487423446,14.013759317496003,0.02660951173168685,0.03079357529177213,452.0,11.8608,0.02624070796460177,16.0,0.8641254378408201,444.0,464.0,0.0,9.923664122137405,414.0,479.0,3.275,62.5,,,0.034136518854784845,0.05196081230664641,0.003216767954883371,0.08931409911631463,0.6569666127105248,0.3822075035468758,0.5817761453203187,-2.9572654539946543,9.909224243317587,13.923768090192295,0.7116769095211736,433.4572889702832,1.4051320010829271,3.3439164203590948,78.25892847674604,0.5877862595419847,0.59375,0.8421052631578947,0.15625,50.21961932650074,50.22659548343433,50.21264868608489,45.3125,0.4499092129154496,0.5500907870845505,6.646675452708926,7.349524057785578,0.5716138731836831,0.4283861268163168,10.527085773552002,9.113275094373943,0.530696138696903,0.4693038613030968,8.803346791344879,8.27850490190425,0.8552215917294188,1.2789872784132545,1.0819935770164644,1.1213305860775733,0.03383215054124378,-0.026587876388937115,-0.46924362757547405,0.00028358821621720086,0.09200766220958435,0.7454328607477394,2.3025850929940455,5.2296733874673755,1.36364886180174,1.605758956461628,1.400589823365442,1.8886977691393874,1.9287334045744868,1.89050331622643,3.866773541366308,1.1274952903227973,Relax,1.0807441596768872,1.6904292539578012,-0.5869806350332856,0.258233991945615,1.0454089184952569,-2.834148561156865,0.0,0.0012281546547141893,0.2041280036745554
132.10446690927472,454.2671755725191,12.143896490058076,,,,,,,13.418987695397547,13.46992276593354,0.02673293855043116,0.02953985763661091,454.0,10.3782,0.022859471365638765,14.5,0.9049785845040454,446.0,464.0,0.0,8.396946564885496,414.0,489.0,3.358974358974359,62.5,,,0.04578141506640269,0.0476361526114647,0.0056077204573906966,0.09902528813525807,0.9610644973747181,0.46232044287384566,0.48105038125613686,-3.044163297381278,9.524673729850662,14.30888590567615,0.6656474719721084,428.15971355200776,1.502296699238274,3.3385759111613154,85.98476826349736,0.6030534351145038,0.6,0.84,0.15151515151515152,50.80707148347424,50.80960002568325,50.804177253660434,46.400000000000006,0.47131445170660863,0.5286855482933915,6.5393857426728434,6.92596507701721,0.5449391332094797,0.4550608667905202,10.56281854058406,9.652516787882389,0.5223310763916635,0.47766892360833657,8.78455182160078,8.400597377223043,0.9827112438207944,1.2460853666830989,1.1851821439335666,1.3189027292892401,-0.2323431265035616,-0.5145186897322054,-0.39268746032094204,0.0002459094073862449,0.08537645370480854,0.7244495043743973,2.3513752571634776,5.279691804255808,1.3094070486515783,1.2920562442588583,1.3504998742971592,1.7810695907031466,1.8852321215706567,1.8600405676273508,3.1468545857477905,1.1274952903227973,Relax,0.9704100307429077,0.8162181129370495,0.1748111174733573,0.5829201739418821,1.0,-2.1769676760414187,0.0,0.0003190855590314994,0.04861667644070774
130.7044589629253,459.1171875,19.39421989294505,,,,,,,14.82522855050819,14.88389007373523,0.04224241745021809,0.03229072871620209,456.5,12.6021,0.027605914567360352,16.25,1.3081902802962346,447.0,468.0,0.0,12.5,414.0,561.0,4.129032258064516,70.3125,,,0.04956589146963285,0.03891004868794302,0.0017596243269810937,0.09023556448455697,1.2738583769747822,0.5492944134916519,0.43120524496305596,-3.2465027406900555,10.524499601573323,25.44355548435672,0.41364107339652373,841.2578470877454,2.4175548907382853,3.6318992382262314,246.04476799591004,0.5625,0.5609756097560976,0.8115942028985508,0.15625,49.81870920957215,49.81936606656114,49.81899717362034,47.96747967479675,0.4899150933256905,0.5100849066743094,7.366537383049991,7.516648189186453,0.4357780634477116,0.5642219365522883,16.79617851687831,19.111852419760222,0.4436875950678275,0.5563124049321726,12.968760268173622,14.521757863886428,1.1903892005838892,0.8656779211730914,1.3763471586361722,1.60993605237425,-0.8723850347315203,-1.8723850347315203,-0.23016651109509811,0.0007739938566234946,0.06589088234123877,0.9170424154960526,1.9974679587201634,5.407205059911622,1.0455413562490359,1.096947865477489,1.3960321736467867,1.7370546239215707,1.5962534367613759,1.7203967409546534,2.191748393730344,0.875,Relax,,,,,,,,,
129.9264625163892,461.8671875,18.618579787067585,,,,,,,13.646550716451864,13.699937553283938,0.04031154472749287,0.02954648237801449,459.0,13.343399999999999,0.029070588235294115,16.5,1.364343281604603,449.0,471.0,0.0,10.15625,425.0,561.0,3.764705882352941,46.875,,,0.05046819364803588,0.029223785905219367,0.0012731806652275625,0.08096516021848281,1.7269560423046442,0.6233322272425388,0.36094272927219045,-3.532772315507663,9.687318745759312,24.54387295818503,0.39469397361465436,746.9586428870036,2.5336084836611033,3.580266666712687,248.7382589950317,0.578125,0.5702479338842975,0.8115942028985508,0.15151515151515152,50.65535851966073,50.67275112441192,50.63707949956525,47.93388429752066,0.5213733034543995,0.47862669654560064,6.995179746263828,6.70228579819116,0.4331352031454031,0.5668647968545969,16.153061091093736,18.479186052824947,0.44502944782440773,0.5549705521755921,12.446965941448262,13.899657407568629,1.272593792741031,0.3992542530293681,1.4058730237613257,1.4339611930941234,0.19733127259162586,-0.8026687274083741,-0.42964841546539123,0.00039338912352687006,0.019400981276410368,0.9301995072815123,1.9273049612242785,5.201357282211646,1.0519153206236318,1.2024502874802816,1.5391170665072078,2.014986826204532,1.6133410260230365,1.693272881368777,1.986501583881636,1.0390625,Relax,,,,,,,,,
129.83853763558807,462.140625,18.330618237272574,,,,,,,12.827750430311708,12.878078054904055,0.039664589619820965,0.027757244735434606,459.0,11.8608,0.025840522875816993,15.5,1.428981514479554,450.0,470.6,0.0,9.375,434.0,561.0,4.129032258064516,46.875,,,0.05925249108356329,0.03170801219580542,0.002449605484023747,0.09341010876339247,1.868691443590452,0.6343263257903883,0.3394494730342486,-3.4511858793786456,9.106176321272322,24.344652487495225,0.3740524259259714,696.4493019334984,2.673422041106906,3.549859617380923,260.33412217263117,0.5859375,0.5785123966942148,0.8285714285714286,0.14705882352941177,49.42434210526315,49.42658426078347,49.42369567261341,51.2396694214876,0.522585893386927,0.477414106613073,6.583107289669643,6.292159394140444,0.4262139741758297,0.5737860258241704,15.893422255868284,18.44074927256424,0.4380436010015979,0.5619563989984022,12.164254448806776,13.777744800489817,1.3791321538060777,1.0792154378039704,1.47654917971778,1.9046719654845337,-0.6489834138387724,-1.3735848429333073,-0.10330183319290312,0.0018765689642969874,0.12799741039294,0.8858164472723797,1.7480844057253933,5.267465208486841,1.0159463096647439,1.1865355606167147,1.4145101666507183,1.8907423770822052,1.613529087761936,1.6659153659419237,2.230615477670143,0.984375,Relax,,,,,,,,,
130.2283791683163,460.84375,18.873986388803093,,,,,,,13.08843331396746,13.139317706459346,0.04095528340962223,0.028401021634702567,458.5,11.119499999999999,0.02425190839694656,15.0,1.4420355695789442,449.0,468.6,0.0,9.375,414.0,561.0,3.657142857142857,70.3125,,,0.054522279454206735,0.03356541374431872,0.001779500652311907,0.08986719385083736,1.6243589270051877,0.6066983636398335,0.3735001873990969,-3.394259095008115,9.290900650401879,25.05881844685131,0.37076371617869713,731.422436787668,2.6971355511984068,3.571138388391517,270.34812041611644,0.578125,0.5737704918032787,0.8285714285714286,0.18181818181818182,49.14821124361159,49.11677283141617,49.18121227341497,49.18032786885246,0.5081356867071153,0.4918643132928849,6.6233713182221345,6.516462668832356,0.4517172750150637,0.5482827249849365,16.842010719521923,18.555081699517373,0.4585364567401993,0.5414635432598007,12.796920971380947,13.906030033587053,1.298007822835212,1.4006215199586478,1.4701630690591894,1.782119670671026,-0.9166861901577654,-1.3392507178057844,-0.27727273416372544,0.0002975413270375837,0.1045466798015604,0.8385673001772096,1.4307461236907244,5.354050320556694,0.9030700869758117,1.3681168110287536,1.2440077333678172,1.7898275464393758,1.5055093034198852,1.659153466398078,2.017580799870042,0.9296875,Relax,,,,,,,,,
130.83369364170943,458.61240310077517,19.47968095121787,,,,,,,11.816302298096474,11.862566014187019,0.04247525976077323,0.025765335211616527,456.0,11.8608,0.026010526315789474,16.0,1.6485428740559485,445.6,466.0,0.0,6.2015503875969,414.0,561.0,3.909090909090909,62.5,,,0.04429320363171867,0.026428386060520493,0.0021306319354610836,0.07285222162770023,1.6759708114709724,0.6079869994640944,0.3627670573394259,-3.633316616909975,8.388100870904715,26.34856588531144,0.3183513253592613,694.3373047548339,3.1411837185584015,3.548540609243898,331.06274466521455,0.5193798449612403,0.5121951219512195,0.7619047619047619,0.14705882352941177,49.62335216572505,49.61992232381636,49.62841360543215,48.78048780487805,0.5131490599820949,0.4868509400179051,6.0088517382773246,5.852854475536789,0.44554292271474527,0.554457077285255,17.58740468913487,19.619636095330492,0.45176429346615776,0.5482357065338422,13.14197669515514,14.477327550777563,1.4451824092620609,1.4312380164324825,1.4853644218006292,2.10273987015647,-1.3202192770488015,-2.006628426025255,-0.06864236327741152,0.001517933580152069,0.16497172257520618,0.7906812068881197,1.2830413278016288,5.345730356448196,0.8739752512911607,1.2876164186648709,1.2344572211937148,1.7666394624666557,1.4750346461037969,1.6366668803362159,1.973306913104144,0.9783107798265005,Relax,1.982498762180892,3.344101346479097,3.208261627226218,1.5362109539866693,3.499482198919173,1.814018125985079,-1.0,0.008138055324530206,1.02662596057039
130.54484739243492,459.6356589147287,19.89893919302614,,,,,,,11.883220838644714,11.928549484952503,0.043292853387421316,0.02585356598898973,457.0,13.343399999999999,0.02919781181619256,17.0,1.6745408894795581,445.6,467.20000000000005,0.0,6.976744186046512,414.0,561.0,4.3,70.3125,,,0.03499381410204256,0.02619467621784233,0.007329928928703443,0.06851841924858834,1.335913214235752,0.5107212700731347,0.38230123381578174,-3.642199086654832,8.434758230529214,26.83024737058037,0.3143749706824548,710.9633085837276,3.180914809563781,3.55881729818692,341.3789248213552,0.5503875968992248,0.5483870967741935,0.8235294117647058,0.21875,48.92623716153127,48.955636818949934,48.90002640419203,49.193548387096776,0.5012448132780084,0.4987551867219918,5.972377360698391,5.9575268345389745,0.4282811660872966,0.5717188339127033,17.558570878306814,20.286911117220658,0.4348450620371897,0.5651549379628099,13.114356686988248,14.950767349241026,1.3638997459725224,1.7219259011933805,1.7028475641649736,2.224862696569213,-1.0359009353296447,-2.0353700177144702,-0.1968422787284537,0.004396623188975823,0.33284940112010897,0.7711620523842422,1.2311014717141886,5.381815798557138,0.8315627008963079,1.1620348589690623,1.1575543079784745,1.5019181438001696,1.4733291364958192,1.6859794999979114,2.212336291630052,0.8696095820680005,Relax,0.5569835115679727,1.3004578884782507,0.7477576037216249,1.207212455807098,-0.19414462253624798,-1.1808219139913647,-0.14669763153721901,0.004044375192942856,0.207906448826263
130.4187421213101,460.1007751937984,16.899447550715372,,,,,,,11.638768727833714,11.683339873950265,0.03672988280360358,0.02529612935977203,458.0,16.3086,0.035608296943231435,22.0,1.4519961643623802,445.6,472.8,0.0,6.976744186046512,414.0,525.0,4.3,70.3125,,,0.010496457386810222,0.0169517894696779,0.001677103003418136,0.029125349859906256,0.6191946523159402,0.36038905754947065,0.5820286984093402,-4.077381877295836,8.261368851777416,22.48642895078409,0.3673935452293925,583.6095320471812,2.721876889196902,3.473092486537703,244.8211651268294,0.5426356589147286,0.544,0.8088235294117647,0.21875,50.94850948509485,50.9560269391121,50.939642297848096,48.0,0.5147932406713189,0.4852067593286812,5.92804624505111,5.755175691852899,0.47152402341073263,0.5284759765892676,15.440892632425324,16.34681380797416,0.4766707449575381,0.523329255042462,11.695360139165258,12.254394495785363,1.1353355537460446,2.044036207300446,1.3992081098516902,1.744218463967443,-1.2750770273948628,-1.2425914817660604,-0.33121123154104637,0.0008724266289982297,0.2337087497404101,0.7121246068395983,1.17760069998674,5.44685734526693,1.00550378416526,1.235875751577114,1.1868243632204063,1.56598332119973,1.652578207374746,1.753143024523036,2.219159757864579,0.8696095820680005,Relax,0.9182449597770205,1.1454306987377527,-0.013833990686569209,0.5588813586823071,1.6081457606537732,-0.3180959465671025,0.0,0.0008791298102830905,0.09960639634725604
130.52668852153425,459.6875,18.00032808099958,,,,,,,11.913401439482667,11.96026730473654,0.03915774973432947,0.025916304966923546,457.0,16.3086,0.03568621444201313,23.25,1.5109310445414852,444.0,472.0,0.0,7.8125,414.0,525.0,4.7407407407407405,70.3125,,,0.011930015878757649,0.023324992166840555,0.002237956094796219,0.03749296414039442,0.5114692340912201,0.3181934571533225,0.6221165144345181,-3.7582298680755573,8.45718611598296,24.1070149329791,0.35081847086813234,640.5000938967595,2.8504770502117767,3.513489307709696,274.8659712622781,0.5078125,0.5080645161290323,0.746031746031746,0.2,50.48372911169745,50.48521591364915,50.481528684559166,47.58064516129033,0.5120665742024968,0.4879334257975036,6.052023143295482,5.907689366477697,0.48096573689517375,0.5190342631048263,16.718623069445844,17.36766569348543,0.48437412629679893,0.5156258737032012,12.57257613747459,12.971827267032667,1.326434101529947,1.4643963496716461,1.4540719889686216,1.9629677088680704,-1.4189861516316817,-2.2056584976945848,-0.1524877161749578,0.0007042422103641512,0.13926580881544603,0.6990761096998503,1.2479896897427103,5.487015554999303,1.0087037050002567,1.2249267316134678,1.252759068826691,1.5073430563057826,1.7093618075354908,1.7100586932767274,2.3555105219214663,0.9296875,Relax,,,,,,,,,
129.4759021956502,464.0787401574803,43.246727796064135,,,,,,,61.15735623963991,61.4006711095116,0.09318834080050468,0.13178228379711338,457.0,19.273799999999998,0.042174617067833695,26.0,0.7071386085854579,444.0,476.6,2.3622047244094486,11.811023622047244,414.0,895.0,6.0476190476190474,85.9375,,,0.014104722009440154,0.033842394767935005,0.0016501195977136535,0.04959723637508882,0.41677671175930187,0.2843852407979031,0.6823443651576726,-3.386040979374041,43.41683091094059,43.32866494999824,1.0020348183135597,5909.943113248702,0.9979693137639825,4.478553410517989,172.96271210583706,0.5039370078740157,0.5080645161290323,0.746031746031746,0.14285714285714285,50.918273645546385,51.18556318808768,50.62218022085291,47.58064516129033,0.4884163575714881,0.511583642428512,30.34303874037668,31.054339471320265,0.5182746405284359,0.4817253594715642,31.192866550837415,30.072882846359345,0.5033149507301,0.49668504926989987,30.77088659478592,30.567550463611358,0.6126696375172783,2.0875273042305276,1.376049188143126,0.6877516842511189,0.5856062496620531,1.447153756564525,-0.8297190424753351,0.009957315015742813,0.5148933954791255,0.7914865664647337,0.7839579152030403,5.654517832964563,0.5874626430235735,1.010849464670552,1.115969410801255,1.118721045971348,0.7696141816926477,1.8819252512807698,1.47289657851316,0.6603481593800471,Relax,,,,,,,,,
129.163239276977,465.1023622047244,43.51916830832959,,,,,,,61.73689694537979,61.98322148801033,0.09356901156561688,0.13273830012973578,461.0,19.273799999999998,0.04180867678958785,26.0,0.7049134385039162,444.2,479.6,3.149606299212598,14.960629921259844,408.0,895.0,5.7727272727272725,85.9375,,,0.057639267444292194,0.12653766891560805,0.0385063857071232,0.22268332206702343,0.45551074188614643,0.2588396244014353,0.5682404400160809,-2.0672152371526313,43.82875623395983,43.5294215408675,1.0068766062698833,5993.657402831602,0.9931703584857744,4.484662025029203,172.92852478568707,0.5511811023622047,0.5564516129032258,0.7971014492753623,0.18518518518518517,50.3361344537815,50.48720756457564,50.164394663366394,50.0,0.486004972493035,0.5139950275069651,30.55486867914834,31.422412383520136,0.511151359908128,0.4888486400918721,31.12129470518512,30.4347754313311,0.4984919759743803,0.5015080240256198,30.83938216085873,30.932535909261908,0.9826591800466614,1.4997329354596283,1.40213240990897,0.8197594966769886,0.5228775945603923,1.3389890636041808,-0.888317746088239,0.00594871794830332,0.26126696803762445,0.8500655121908753,0.8826175167675674,5.681164116313021,0.6335028879033664,1.269210617208654,1.1662643112996856,1.1503312156200347,0.8416142543849798,1.8094614971194396,1.5285414792322176,0.7153771726617177,Relax,,,,,,,,,
129.15161433551182,465.1484375,43.60562158437651,,,,,,,61.75969432016066,62.004283590749196,0.09374560477670422,0.1327741626997525,461.0,19.273799999999998,0.04180867678958785,26.25,0.7060530668809027,445.0,480.6,3.125,17.1875,408.0,895.0,5.818181818181818,85.9375,,,0.05052840558332551,0.09173624405442553,0.021720375812007985,0.16398502544975901,0.5508008977710912,0.3081281686833422,0.5594184213029333,-2.3888377318499874,43.84364938963253,43.68319153115081,1.0036732173831049,6016.874174640293,0.9963402257632399,4.486341039547053,174.0932836488226,0.546875,0.5519999999999999,0.7971014492753623,0.13793103448275862,49.939589206604914,50.02222298540485,49.845733179085435,50.4,0.48433664801170917,0.5156633519882908,30.512682765102934,31.483996942765437,0.5193468658759988,0.4806531341240013,31.480608495136956,30.285186331325708,0.5017775736862817,0.49822242631371844,31.000423551525056,30.890407690860773,0.6488412055489157,1.976482230913036,1.3780633146010157,0.7979834698636314,0.7542713231759777,1.3738426807002808,-0.7934910497370959,0.006909502737221892,0.44535714814443356,0.9336720190177807,1.057416532229842,5.79755153907629,0.6687065797986319,1.3170229188687306,1.2324196297529553,1.351828030019126,0.9018282630835444,1.8135416382933922,1.5546125868792977,0.8203125,Relax,,,,,,,,,
129.80398402246425,462.7109375,44.59902762679816,,,,,,,62.17089731088771,62.41525688454309,0.09638637000405499,0.13436228165859535,457.0,22.9803,0.05028512035010941,31.75,0.717361813257724,441.0,481.6,3.90625,17.1875,408.0,895.0,6.7368421052631575,101.5625,,,0.0605903388076113,0.13256365367549822,0.0422519295601432,0.23540592204325272,0.45706599907037887,0.257386637862401,0.563127947355298,-2.0206923438153455,44.13425139256076,45.22883531616741,0.9757989805407308,6271.061235226292,1.0248012346209445,4.504311151526654,185.40226508990298,0.53125,0.532258064516129,0.7878787878787878,0.14285714285714285,48.79589419660482,48.70277256128456,48.907660092846555,50.806451612903224,0.4786109928435086,0.5213890071564915,30.533744018864176,31.869089866026748,0.512128058247353,0.4878719417526468,32.367167077091786,31.591360202761425,0.4957795054496453,0.5042204945503546,31.463812772818063,31.730528898440276,0.9172077793333354,1.5390313699126246,1.417390977132845,0.7911970107969837,0.9284035296693993,1.705721652016861,-0.9068753753676978,0.005014387336714025,0.28448896414692587,0.904039447260232,0.9596868164379166,5.935328664259099,0.6503445543016177,1.0711937085200827,1.1957749590738185,1.379862806710922,0.920451604878392,1.7701582286631867,1.601055666027578,0.765625,Relax,,,,,,,,,
131.5315372758008,456.7596899224806,44.26143482088104,,,,,,,61.92895374943775,62.17228996322762,0.09690311075478861,0.13558322924675792,449.0,19.273799999999998,0.042926057906458794,26.0,0.7147131049550937,437.0,469.8,3.875968992248062,16.27906976744186,408.0,895.0,5.375,70.3125,,,0.06070011867061022,0.11986344945911674,0.03799640037012611,0.21855996849985307,0.5064105775740579,0.27772752296425696,0.5484236215892268,-2.1214021052979883,43.962447834894576,44.88807404738001,0.9793792397618035,6199.586313123189,1.021054928878431,4.499332820762955,183.33275701574934,0.5581395348837209,0.5599999999999999,0.8142857142857143,0.12903225806451613,49.98008761449622,50.07626881768745,49.87187479214204,48.0,0.47882787912121505,0.5211721208787851,30.420866750608337,31.73748125695284,0.5158448453549126,0.48415515464508746,32.2396649444951,31.23368687730868,0.49772195527881524,0.5022780447211846,31.343461276569105,31.486591689838367,0.6004425505204256,2.2799801159756132,1.3029031046254738,1.0141556962406897,-0.5090893467830089,-0.1007349256329862,-0.6266447046452542,0.0069356606775170014,0.43167331756518684,0.8817892238372926,0.8960219765397033,5.806396418194093,0.639523662319949,0.9611569436510484,1.1130202888606073,1.269139302840867,0.8244912780782243,1.7740397353010229,1.5520772786640231,0.8152589831887505,Relax,0.0946905350971489,1.3849386035949809,0.10775240574104616,0.09641668225621591,1.0,1.3066048174482003,-0.5081850007324551,0.014648694361324925,0.4990206551140125
131.830289203062,455.6307692307692,43.24441774461027,,,,,,,61.61244211403906,61.852576980023784,0.09491110053348419,0.13522449815682533,449.5,17.049899999999997,0.03793081201334816,23.75,0.7018780015985855,437.0,466.0,3.8461538461538463,14.615384615384617,408.0,895.0,5.2,70.3125,,,0.053960824239580096,0.07679369527494358,0.024296553531562442,0.1550510730460861,0.7026725832945632,0.34801967622333857,0.4952799988176674,-2.566632734972479,43.73637661643776,42.88873460713839,1.019763744886945,5892.992743232533,0.9806192905111213,4.477306016257007,168.23008200548728,0.5846153846153846,0.5873015873015873,0.8378378378378378,0.21428571428571427,49.75669099756691,49.84182498498713,49.671387595559764,46.82539682539682,0.4781354146245834,0.5218645853754166,30.242573985195108,31.595280007463135,0.5110012375253831,0.48899876247461693,30.658733398121385,29.991425818464627,0.4942467402619608,0.505753259738039,30.4513646231748,30.80379312174449,0.75270668015036,2.350035594316961,1.2872842992655786,1.0865633970787587,-0.967154128474629,-0.3011908042389033,-0.5854118561745273,0.004764794154802679,0.35317477666583885,0.8390638153449861,0.8778468597588676,5.6736037748480275,0.5972158954653334,1.1345797140577443,1.143537684331476,1.2139642648634026,0.7938011179748584,1.782442220911764,1.5968254697989537,0.9183096370883364,Relax,0.46169639894967035,7.0107383784486865,1.4906390730840684,3.609134441846624,-8.776081261227546,-9.060218968572766,-0.19782136282892804,0.01711027479754555,3.493100510088904
131.37943084259402,456.88461538461536,21.568220454452298,,,,,,,16.201253659980722,16.256788981360867,0.047207149744571075,0.03546027402639101,454.0,22.238999999999997,0.04898458149779735,32.0,1.331268610880941,438.0,477.2,1.5384615384615385,10.76923076923077,408.0,527.0,5.909090909090909,93.75,,,0.03570145451496458,0.014493203241693068,0.0027829110281580244,0.052977568784815667,2.463323940166729,0.6738975633249004,0.27357244913524764,-4.234075481401662,11.495285729039015,27.685799836683405,0.41520511586621667,999.8312762924924,2.4084481664291686,3.7068968280042784,266.7192554111405,0.5769230769230769,0.5725806451612904,0.8450704225352113,0.2,52.305475504322764,52.1481874663144,52.47514002962755,43.54838709677419,0.403603071470762,0.596396928529238,7.306354255030343,8.881599658845246,0.5834618498265459,0.41653815017345425,21.14770808759975,17.86835065803689,0.5569932799393211,0.443006720060679,15.82100454867408,14.10958482271125,1.2000435161998546,0.801100101010606,1.3158767093994688,1.2480501534371742,0.4803276444343698,0.4234886890762235,-0.5846667674573126,3.0301408364048397e-05,0.028322400017249158,0.8055424417821095,1.4000876832522264,5.746879062812108,0.8918716098647362,1.5867660228407698,1.1901278780954259,1.6905758156457238,1.8077493637991455,1.656676655572087,2.725521211405023,0.6482185673564728,Relax,1.0604205411731895,1.5102253354780228,-0.44980479430483333,0.3053078734341781,0.9381657272523416,-2.218239773764094,0.0,0.005131531480780319,0.30985965007062716
130.66930943134355,459.2170542635659,20.409082399261486,,,,,,,13.87922233051982,13.932960888274007,0.0444432152721135,0.030223664826162778,458.0,23.7216,0.05179388646288209,32.0,1.4704773735328658,440.0,479.4,0.7751937984496124,6.976744186046512,419.0,501.0,7.166666666666667,78.125,,,0.027398134571799966,0.010090319849940802,0.000961316858841098,0.03844977128058187,2.715289007608684,0.7125695071595064,0.2624286052655058,-4.596178745422235,9.852091126105494,27.186472738308428,0.36238945820370894,841.4555074816171,2.759462168013378,3.632001267271774,300.0801720123567,0.5348837209302325,0.5245901639344263,0.765625,0.1935483870967742,50.7910074937552,50.78884791062895,50.79223892696917,43.44262295081967,0.3682524232469482,0.6317475767530519,5.978965754715692,7.8311411463172655,0.5644580356590344,0.43554196434096576,20.425311779685693,17.941876675906016,0.5416798758950198,0.45832012410498046,15.04894336479193,13.842646248224426,1.2104465255283163,0.7190667744642121,1.4289363023891175,1.17524058374568,0.9306121714035376,0.9474539384161327,-0.8528124614469499,0.00021370576625398007,0.035647810301441665,0.7933805644103238,1.4014845266138658,5.808448065531226,0.9123543701790978,1.0960011057382872,1.2190289501570182,1.7169102058899497,1.9385219427916274,1.6512963174580797,3.2372981333499258,0.7065577854302504,Relax,1.2042113468999607,1.1025653283181658,1.7534837888479773,1.7554940110590436,0.03618636902751504,-0.9340581288469916,-0.49817677723084886,0.0027847808857615736,0.16592109869340882
129.38254698683602,463.828125,20.593213993896757,,,,,,,14.719423131455752,14.775552794394951,0.04439837276770734,0.03173464983706142,463.5,21.4977,0.046381229773462776,30.25,1.399050343888041,445.4,482.6,0.78125,8.59375,419.0,508.0,7.111111111111111,85.9375,,,0.007063640464142628,0.00434352018820666,0.0002787666311313768,0.011685927283480665,1.6262478722492235,0.6044569928248532,0.3716881068006217,-5.439070156362896,10.44789357669651,27.223059859730757,0.38378836290006385,893.5431935729467,2.6056027140676847,3.6580856609578825,283.729914622966,0.515625,0.5081967213114754,0.7419354838709677,0.2,51.230769230769226,51.2632317382944,51.1969028061467,43.44262295081967,0.3795609827009739,0.6204390172990262,6.437735971942655,8.230797758785704,0.5374224788872202,0.46257752111277967,19.95698137519375,18.515233795895043,0.5171504965188471,0.48284950348115263,14.827770399730948,14.327594254840651,1.236013067442035,1.0883860907216913,1.3707343317968026,1.402041628336005,-0.03475855074994172,-0.03415044028863967,-0.47123511885525554,6.177869827011854e-05,0.05030644112818764,0.7731104419354788,1.442806571383233,5.816733500731241,0.9728369315063955,1.5423311941317184,1.0534673947999023,1.6711314952064256,1.9181543303517743,1.6792309844777644,2.5992000661013765,0.7109375,Relax,,,,,,,,,
127.7532409318067,469.6825396825397,20.945892501834642,,,,,,,12.97443640394449,13.025657063483742,0.04459585088258136,0.027623842292953796,468.5,20.0151,0.042721664887940235,27.75,1.6143970997820507,453.0,486.0,0.0,7.936507936507936,425.0,529.0,7.0,70.3125,,,0.03825147537733516,0.031006602161275147,0.0012928844261994674,0.07055096196480978,1.2336558252457699,0.5421821944315185,0.43949226626762333,-3.4735551242281493,9.210530438999804,28.01253521251259,0.32880031632715845,810.5632889436147,3.041359604426273,3.6157570402701884,340.7847720516173,0.5079365079365079,0.5041322314049587,0.7377049180327869,0.16666666666666666,50.819672131147556,50.87395020344292,50.76750924395387,44.62809917355372,0.4758102841935175,0.5241897158064823,6.353815211503674,6.669018402404728,0.6711954381210443,0.3288045618789558,22.949694753750485,16.062802985218223,0.6521306103988068,0.3478693896011933,16.838341026245104,12.298159337753523,1.3207903055683625,1.0243606392332394,1.462617971742291,1.722194475087885,-0.023238659805262074,-0.7814655334531802,-0.24659656628363436,0.0007382819579260774,0.0868993209210177,0.8155774944774072,1.4575573811413811,5.8093551973406194,0.9808889347916794,1.1228507741679046,1.1214130405900136,1.6700990021349134,1.795550393613889,1.6702833461138127,2.0931919639824863,0.7752533248333241,Relax,,,,,,,,,
126.5705158455042,474.104,17.18580809854457,,,,,,,12.841465095792287,12.89351982184368,0.03624902573811773,0.02708575564811157,473.0,16.3086,0.034479069767441854,21.0,1.3383058685551212,459.8,486.2,0.0,8.799999999999999,437.0,529.0,5.0,70.3125,,,0.036629530062898215,0.08463791300909138,0.0020504155971416333,0.12331785866913121,0.43277922104439953,0.2970334585615642,0.6863394639066811,-2.4693729684411316,9.117095299388833,22.562333157815463,0.40408477419502703,646.234850078116,2.474728234915778,3.5173604848574485,223.34257164488957,0.544,0.5416666666666666,0.7538461538461538,0.20689655172413793,50.16528925619834,50.17234990879346,50.15833364857368,45.83333333333333,0.4645442097026605,0.5354557902973396,6.214002022707378,6.671441379589632,0.6495955638149132,0.3504044361850867,18.18467455195055,13.35576613167141,0.6236206776264263,0.3763793223735738,13.588528428394469,10.556623964251116,1.273022380464069,1.515683053967594,1.3994019680581968,1.8717615318780103,-0.959709062278705,-1.4912142910690669,-0.18835201885821656,0.0016987255197240363,0.17715437866049732,0.7896655828404331,1.7458497679239768,5.59148263682879,1.1185878835365504,1.5637749804536702,1.2852173524728108,1.6961745963317374,1.8326410221526306,1.6833268027947375,2.4288602466845397,0.7801678398821538,Relax,,,,,,,,,
126.97655612505115,472.568,18.466332049295517,,,,,,,13.08779288423549,13.13968010592824,0.03907656051466777,0.027695046817041127,471.0,17.7912,0.03777324840764331,24.0,1.4109584566805442,457.8,486.2,0.0,8.799999999999999,430.0,529.0,5.681818181818182,70.3125,,,0.057839095905532656,0.027484781172344524,0.003793979372885111,0.0891178564507623,2.104404453608347,0.6490180330749855,0.3084093611197874,-3.59412283941325,9.291156905523831,24.478692758412688,0.3795609919704843,714.5093040848944,2.6346226855623844,3.5609779983531893,257.9684770169029,0.528,0.5289256198347108,0.75,0.12903225806451613,49.11575562700964,49.116479995134625,49.116239815978204,44.62809917355372,0.4485404896421846,0.5514595103578156,6.223153724312358,6.900276888517691,0.6651385961883941,0.334861403811606,19.963849908394277,14.165136638799906,0.6378591041018998,0.3621408958981001,14.786530110903588,11.141474703424203,1.247925407222041,0.9362638270850661,1.4127836396430302,1.716057320764574,-0.7587813123670042,-1.7776358558315173,-0.17608095886204816,0.0008235638635239375,0.08058289271832426,0.6952608067994497,1.5599578551707305,5.676516160693516,1.1064396085184243,1.1498495360398369,1.5404066092300237,1.7258270688582424,1.7308385993470623,1.7017696746298974,2.9294823224641515,0.9473466627140439,Relax,,,,,,,,,
128.17666427655067,468.1653543307087,18.972312231804334,,,,,,,12.828848938208179,12.878758197062817,0.040524810424998746,0.02740238853545316,466.0,16.3086,0.0349969957081545,21.5,1.4788787617023902,455.0,481.6,0.0,7.874015748031496,430.0,529.0,4.096774193548387,54.6875,,,0.02290224846985748,0.01284876009043408,0.0019163112868538054,0.037667319847145365,1.782448135747218,0.6080137520480671,0.34111160928291606,-4.354507963313269,9.106657254404952,25.308191157855184,0.35983042792761655,724.0523546619445,2.7790868208654103,3.56674008019032,281.33464202695137,0.5590551181102362,0.5609756097560976,0.7681159420289855,0.16129032258064516,50.94494658997534,50.94420360391033,50.94472347369838,45.52845528455284,0.48030091141438,0.5196990885856199,6.3118935352238,6.565668282817827,0.645611188458251,0.35438881154174906,20.335114877407243,15.066109073187748,0.6266574131819184,0.37334258681808163,15.055844331643266,11.621007757617026,1.2405169532883658,1.8809499705230481,1.351846794907929,2.18099193854989,-1.271691506440554,-2.271411837072769,-0.05918809291275565,0.006302963340134204,0.4247999449775032,0.7406823235551601,1.5250205706215174,5.580402451099401,1.0673249168143004,1.1529379198128078,1.3727705224829712,1.8320275650346398,1.6027224637573965,1.7013248089739135,2.441785919036473,0.9354932257884001,Relax,,,,,,,,,
128.90129295530528,465.5590551181102,19.372969855055118,,,,,,,13.360983235371304,13.413636747491367,0.041612271616412407,0.02869879360843209,460.0,13.343399999999999,0.029007391304347825,20.0,1.4499658830323157,453.0,478.0,0.0,10.236220472440944,429.0,529.0,3.4324324324324325,54.6875,,,0.022431039536176554,0.004214371318628841,0.0015920917848512397,0.028237502639656634,5.322511435341337,0.794370515779058,0.1492473103025122,-5.469254852003001,9.484873504524211,25.659868611176805,0.36963842832744803,764.6027298668206,2.7053464233273377,3.5904059542123914,277.67533508118635,0.5433070866141733,0.5519999999999999,0.7536231884057971,0.20689655172413793,50.67513899920573,50.64826723608912,50.70241245514592,44.800000000000004,0.4909971991286178,0.509002800871382,6.646502839839911,6.767274192760332,0.6596858402627853,0.34031415973721485,20.8412138292747,14.969056859578899,0.6394062611104241,0.3605937388895757,15.468228629638737,11.616123778294249,1.2824701768299112,1.4648356209156939,1.4434834505603362,1.8562032689605803,-0.3157303452750977,-0.8126826277690009,-0.21824837373749428,0.0032293235471467802,0.21510657551261944,0.7444555577473149,1.5421047923655133,5.558584341389424,1.0450583929233461,1.0827891386844193,1.248156851599879,1.4581597266157484,1.59109732666408,1.6910291976058425,2.966981306372995,0.9354932257884001,Relax,,,,,,,,,
127.99658252869786,469.6746031746032,57.83408398030758,,,,,,,81.25264303393459,81.57959738609537,0.12313649405226103,0.17299773605967925,461.5,12.6021,0.0273068255687974,20.0,0.7117809565425901,453.0,477.0,2.380952380952381,10.317460317460316,390.0,1076.0,3.5,93.75,,,0.0034468974415876636,0.004783097609606995,0.0008291003504257407,0.0090590954016204,0.7206412502777418,0.3804902464070659,0.5279884356611857,-5.342666906880461,57.68548651817639,58.44284663310511,0.9870410125693687,10591.264009912842,1.013129127630571,4.731917903853191,236.84060090258015,0.5317460317460317,0.5365853658536586,0.7272727272727273,0.16129032258064516,50.145047658516376,51.08070901946973,49.13390150718433,43.08943089430895,0.42008169655461564,0.5799183034453844,37.38811265284643,43.92887396396515,0.608460218810736,0.39153978118926414,45.58767631718027,36.56952406828184,0.5154994409479648,0.48450055905203493,41.689970015232284,40.41705121803532,0.39432355112412637,2.8763728189399265,1.3257911806079825,0.9541696151570136,0.13425070414891938,0.8678529375140248,-0.6291979826133693,0.007763753820105224,0.7625278446125304,0.6004472468960065,0.6218178594119743,5.53649376553424,0.43035123342874454,0.5719663657261135,0.7200146323752912,0.6804296431403937,0.5092978489417036,1.9682928861779438,1.4002351039963954,0.8860037998095133,Relax,,,,,,,,,
129.7574450324493,463.125,56.721727148498054,,,,,,,80.75129505799462,81.07013987315317,0.12247606401834937,0.17436177070552145,458.0,13.343399999999999,0.029134061135371175,17.0,0.7024249841164922,449.4,471.6,2.34375,10.9375,389.0,1077.0,3.282051282051282,70.3125,,,0.008976093084915635,0.00784188421705074,0.0008035078070878258,0.0176214851090542,1.1446347378349153,0.5093834616869821,0.44501834939107693,-4.848276139687871,57.325245656048516,56.467150805667416,1.015196354661744,10169.314344082286,0.9850311177813407,4.7142617819976165,222.48760270413644,0.6015625,0.6016260162601627,0.7972972972972973,0.25,48.97792313982011,49.57116128355841,48.315517908695895,43.08943089430895,0.41760914243761305,0.582390857562387,37.04555325370396,43.74801582802229,0.5942117539095495,0.4057882460904506,43.52777760200682,35.97042809225684,0.5045777354845314,0.4954222645154686,40.41683089285194,40.04847429072117,0.5733025888139922,2.1434224333463385,1.3239273942778222,1.0789969720224124,0.376288395627153,0.4984944528186931,-0.6142707188489305,0.005439289213441379,0.4652802119834946,0.6286024299145587,0.6264382841808243,5.408542211697545,0.42024040608430424,0.5613842858192869,0.7375692904463347,0.6745711858606388,0.44723117002425167,1.8680543022631075,1.4106975462726834,0.9296875,Relax,,,,,,,,,
130.5801424751322,460.1875,57.044084347591365,,,,,,,80.65250629492888,80.97181188975526,0.12395835251411949,0.17526009788386013,455.5,14.0847,0.030921405049396267,19.0,0.7072822280189708,444.0,469.0,2.34375,9.375,389.0,1077.0,3.4594594594594597,85.9375,,,0.03766471680229152,0.12259893645840315,0.0299056039869504,0.19016925724764505,0.30721895222207624,0.1980589152390873,0.6446832586549494,-2.098836930408329,57.255717272207455,57.25823957519209,0.9999559486459355,10299.276644925214,1.0000440532946717,4.719776833681615,229.04304795716993,0.5625,0.5573770491803278,0.75,0.21428571428571427,50.35520267446719,51.379084497605696,49.24667429614522,42.62295081967213,0.4184137036942888,0.5815862963057111,37.03585778545924,43.66430382556704,0.58780846341969,0.4121915365803101,43.89912953273029,36.76101774323803,0.5031146980206164,0.49688530197938346,40.61273405987459,40.36052436533803,0.5068525223892845,3.1004328481438668,1.3758018173007742,1.4152120728991648,-0.9328625913245059,-0.6618636327087787,-0.48728878916955604,0.006635266918214065,0.7694871196965205,0.6231692547472889,0.6119927440337185,5.460556008531233,0.41527075398272306,0.5971371207943234,0.8284108248228309,0.7375648758833503,0.45718353455388044,1.861898966047568,1.3765482910001539,0.8203125,Relax,,,,,,,,,
129.6738291070805,463.40157480314963,57.6329738955053,,,,,,,80.96457191118783,81.2877846697026,0.12436939585280318,0.17471794726977594,458.0,17.7912,0.03884541484716157,21.0,0.7118295389584031,444.0,473.8,2.3622047244094486,10.236220472440944,389.0,1077.0,4.096774193548387,101.5625,,,0.05405020819528399,0.1696661382375719,0.041745669947920526,0.26546201638077643,0.3185680345927434,0.20360806767079942,0.6391352727246833,-1.7739226656179028,57.47914376757859,58.241058173275476,0.9869179161643994,10516.940570248873,1.0132554933103692,4.728859529750834,236.05228852112057,0.5196850393700787,0.5083333333333333,0.7049180327868853,0.13793103448275862,49.97900041999163,50.89566603240535,48.989556652489625,47.5,0.4185683862352187,0.581431613764781,37.18720209964713,43.82880331471531,0.5835437300549585,0.4164562699450414,44.49036416350579,37.584948499918106,0.5021422262841552,0.497857773715845,41.00171035091927,40.826415185156144,0.5442352190650783,3.3656632876504693,1.5276363879683388,1.6072375816028894,-1.1138738732688989,-0.8742153106940522,-0.47634903232102,0.008504389760578424,0.9431138614769486,0.634777904720943,0.637057713908902,5.688905800990225,0.4221316533219443,1.0316142457895245,0.9668932736046598,0.9135688310310983,0.5440404163790029,1.8173053193527682,1.3867496800633596,0.9354932257884001,Relax,,,,,,,,,
129.0579736900468,465.66141732283467,57.51510781131059,,,,,,,80.96339560919755,81.28594755455133,0.12351271905234186,0.17386751961257527,461.0,16.3086,0.035376572668112796,21.5,0.7103840862719053,448.2,475.0,2.3622047244094486,11.023622047244094,389.0,1077.0,5.08,109.375,,,0.05741681249592157,0.17268469081695484,0.04189324627228476,0.2719947495851612,0.3324950939442755,0.21109529718309672,0.6348824419601067,-1.7562879438679235,57.477844730997305,57.9410321477725,0.9920058825394431,10462.526594038856,1.0080585383627896,4.726606684870362,233.6318087124598,0.5275590551181102,0.5166666666666666,0.7258064516129032,0.1,50.85594989561587,51.98741002729022,49.62150408364854,44.166666666666664,0.41875247445634617,0.5812475255436539,37.194838351577765,43.82122773268681,0.5846171456198445,0.41538285438015554,44.3018641941379,37.34311228691803,0.5023497609588651,0.4976502390411348,40.90300215800692,40.711227169377786,0.5194185643624456,2.9940518567940546,1.3482110226396546,1.422014940233,-1.56080965752985,-1.3719505524769042,-0.47534981986839314,0.008269424665808113,0.6642402043063865,0.6035529780378657,0.6103194494390606,5.695339463240424,0.41925869624391954,0.993802965410279,0.9608902784484401,0.9193279117799074,0.5402263159122898,1.8445726123980903,1.3858772623104598,0.8804642125067295,Relax,,,,,,,,,
128.46520583356516,467.72222222222223,57.46089298142018,,,,,,,81.16506637710586,81.49168728633732,0.1228526040700277,0.1735326279591288,465.0,16.3086,0.035072258064516124,21.0,0.7079510378818357,452.0,478.0,2.380952380952381,8.73015873015873,389.0,1077.0,4.666666666666667,101.5625,,,0.02508317292254127,0.08495474397207994,0.02108280556576209,0.1311207224603833,0.2952533519586,0.19129831236340142,0.6479124152000313,-2.4656365881376154,57.623324690502685,57.7378251375379,0.9980168901969816,10452.22152761788,1.0019870503420307,4.72617871568628,231.4102124109022,0.5238095238095238,0.5126050420168068,0.7213114754098361,0.1,49.97815640017476,50.94883790434602,48.96311908358905,44.537815126050425,0.41762733599604607,0.582372664003954,37.23855095756755,43.974286841582845,0.5831765836892261,0.41682341631077363,44.092067094264934,37.27661560506454,0.5005662733731269,0.4994337266268731,40.80943553925069,40.7632430885568,0.4526239939999718,3.2128547986128613,1.3396687083389545,1.4704656283735504,-1.9279557534014984,-1.7507842235357947,-0.4592895016322968,0.009507685086665938,0.7510091648720918,0.533978756215838,0.4887549396466804,5.649627443220993,0.38844214668047333,0.6182022981949237,0.8824322383923014,0.8312953185130899,0.4990807224610781,1.8464284109615847,1.3863771792879154,0.8860037998095133,Relax,,,,,,,,,
129.91123253647376,461.84375,16.44242519997257,,,,,,,9.489322636231112,9.524686873724232,0.03560170555512025,0.020546608319872494,463.5,15.5673,0.03358640776699029,22.0,1.7327290714295946,446.0,475.0,0.0,4.6875,420.0,503.0,4.7407407407407405,70.3125,,,0.013763827329030875,0.01550644047571256,0.0005476712269363765,0.02981793903167981,0.8876200408848758,0.46159552859798986,0.5200372989976898,-4.166499826797105,6.734970677088902,22.28912625825271,0.302163960985022,471.6052447098286,3.3094615146694117,3.3805487361894913,295.0600221891791,0.5546875,0.5454545454545455,0.7575757575757576,0.13793103448275862,48.63731656184486,48.63361397447746,48.6420579142881,47.93388429752066,0.4015389996502274,0.5984610003497726,4.268749491621899,5.21140385680578,0.5107554354247482,0.4892445645752518,15.929404583371896,15.590356601937646,0.5016140246522852,0.4983859753477147,11.661221046763751,11.623638611345221,1.3060933661664318,1.3073334482362806,1.48639924542882,1.8094918770418125,-0.33699091851546736,-1.0306171264011397,-0.25286134379191794,0.001151550831767523,0.13567016676585297,0.7851634958461231,1.4381194289844765,5.556700590456678,1.0015266042720516,1.1155081412481243,1.1266474498886134,1.6639636329612273,1.75993653860507,1.7053008184440597,2.5037571717820977,0.8203125,Relax,,,,,,,,,
129.49129727425378,463.390625,13.990567336939872,,,,,,,8.746652903132375,8.779869830226444,0.030191735831815485,0.0188753341808164,463.5,14.0847,0.030387702265372168,19.0,1.5995338436180007,452.0,474.6,0.0,3.125,435.0,503.0,4.413793103448276,54.6875,,,0.027823013958701896,0.036084435984415984,0.0037257876147816647,0.06763323755789954,0.7710530371243158,0.41138077908636467,0.5335311052280289,-3.3218936427749823,6.208305494888299,18.725558581307457,0.33154180517133724,365.22267539016775,3.016210880203209,3.2695278434766015,225.92093412328848,0.5,0.49593495934959353,0.7049180327868853,0.09375,51.14155251141551,51.18160399751703,51.101882250066254,43.90243902439025,0.41313297653355285,0.5868670234664471,3.9910614413425693,4.756782959835789,0.5491719397324548,0.4508280602675451,13.876787914676017,12.573038668240818,0.5356955021518957,0.46430449784810435,10.210137468650208,9.505479616517595,1.3628265349393731,1.800091500796741,1.5581818783759922,1.9753849861395016,-1.135612532355994,-1.4594729159601574,-0.2682322773154306,0.0012684230261168882,0.20601854874609443,0.7522009843606661,1.6670077642555783,5.453424958043603,1.0591810145897471,1.3114106969248047,1.1762021089190973,1.4733275734905238,1.7883531680824862,1.7561146282064273,2.159490565873194,0.875,Relax,,,,,,,,,
130.2233026622223,460.9453125,16.650794402438684,,,,,,,9.226374382820616,9.262506450566264,0.03612314509096713,0.020016201776258687,462.0,16.3086,0.0353,23.0,1.8046952910822953,446.0,474.0,0.0,3.90625,415.0,503.0,5.12,70.3125,,,0.005178091905606954,0.03079339578831268,0.0027576265843910442,0.038729114278310675,0.1681559234714947,0.1337002408161661,0.7950968247564028,-3.4804550344517704,6.549581121979544,22.43807738166144,0.2918958255903196,461.6884816062292,3.425879756853788,3.371319149691067,307.4806203382111,0.5234375,0.5241935483870968,0.7538461538461538,0.16666666666666666,49.38547486033521,49.349449820324054,49.4198734350073,45.96774193548387,0.4306724632318934,0.5693275367681067,4.298393941484479,4.942125370182668,0.4785610373645849,0.5214389626354149,15.522236994205628,16.202699629417964,0.4748008291851414,0.5251991708148586,11.388942702913125,11.978148405654027,1.277170061078818,0.9889414504434297,1.4046593415565707,1.6620932594571376,-0.3535497703065964,-1.135596666784993,-0.2396874023379882,0.00025354014209374054,0.06026326750387783,0.8047118546298972,1.4505139538541845,5.609473149067329,0.93276334159723,1.2501703833952311,1.3037519095632626,1.7926410607620087,1.7061735570494923,1.7086348786769443,2.195669066377321,0.765625,Relax,,,,,,,,,
138.0770788646332,435.1102941176471,45.590556656057075,,,,,,,59.575411283763955,59.79682108649971,0.10477931060792162,0.13692025238009123,428.0,16.3086,0.038104205607476634,21.5,0.7652579423900987,414.0,444.0,10.294117647058822,24.264705882352942,375.0,804.0,5.037037037037037,70.3125,,,0.017794751826191266,0.14097835779140439,0.047815330331141284,0.20658843994873693,0.12622328777953912,0.08613624184686652,0.6824116481366862,-1.9591488912259971,42.28273768366268,48.9518874589454,0.8637611311540142,6502.530729917891,1.157727482671009,4.520052523240656,226.69178175935758,0.625,0.6356589147286822,0.8902439024390244,0.25,49.5266272189349,49.582479445886186,49.45264881835548,48.837209302325576,0.4642259353099057,0.5357740646900946,28.80920250985319,30.949766714815357,0.6175738868278186,0.38242611317218145,38.469266343971576,30.272146153681124,0.552049302586694,0.44795069741330606,33.98422135563176,30.61283139838035,0.9163928688173327,1.5844714933617543,1.104274106454039,1.0744844024428628,-0.6017708748200441,-0.08775840582932704,-0.518801035005036,0.0006180824470428053,0.1070527312360732,0.830330290198229,0.9007865453381899,5.657311485204856,0.6543887757412419,0.5322154522586644,1.0274183037269429,0.9958792935433948,0.9704504105268076,1.954089561251755,1.8577560296974016,0.8338191577941575,Stress,0.4408225056497589,2.006978072358479,0.8655541234870623,1.4443115418289982,-3.1078226202291734,-4.090474884874001,-0.21162743314787916,0.0021970040784990044,0.25199912929859825
139.4776954740222,430.7226277372263,43.99226702217229,,,,,,,57.47966392304223,57.69124490390281,0.102135955227806,0.13344937140871369,425.0,11.8608,0.02790776470588235,15.0,0.765353588028493,414.0,434.0,6.569343065693431,18.97810218978102,357.0,804.0,4.28125,85.9375,,,0.018029269783989763,0.14300449399366946,0.0519522564199321,0.2129860201975913,0.12607484758337653,0.08465001490362445,0.6714266685719625,-1.9448792226868756,40.79387048664353,47.18753089424604,0.8645052986151869,6047.446552674454,1.1567309091128257,4.4885421487185475,218.3331020403631,0.6204379562043796,0.6259541984732824,0.8658536585365854,0.22857142857142856,49.25675675675677,49.344402002709025,49.16972333987426,48.091603053435115,0.4479048899254893,0.5520951100745105,27.302014577682723,30.311591719878265,0.6370878894425853,0.36291211055741457,37.664042228279214,28.42680064519792,0.5561707407253179,0.443829259274682,32.89361698699004,29.384312034778162,0.8211159215560668,2.4230444484576177,1.2012117647937828,1.4067626047025352,-1.5006513111391762,-1.1243263994388881,-0.41516835770817356,0.0016464789412080408,0.30961112899941506,0.796127661970893,0.811945341671484,5.501796295140075,0.5719796746867168,0.42395267049307617,0.9370749271806595,0.8958709377474516,0.7886718500919894,1.9432451875719547,1.7834878554628575,1.0362090632059162,Stress,0.2909612501151078,4.2087370107977,1.0715164559453205,2.1333946393305334,-4.154931077672533,-4.495382842543872,-0.24769671265728455,0.009196663889404799,1.347787852622972
138.93985829508324,433.3602941176471,74.56537502423927,,,,,,,99.93979669262372,100.31197989882199,0.17206323707172982,0.23061595178235786,422.0,13.343399999999999,0.03161943127962085,18.0,0.746102928882011,409.0,432.0,10.294117647058822,21.323529411764707,357.0,1059.0,4.533333333333333,85.9375,,,0.0033925137319264706,0.00447276104958531,0.0021659327112617172,0.010031207492773498,0.758483114639224,0.33819594843097844,0.4458846108813417,-5.409749376574206,70.93128122070567,78.48313822136974,0.903777331388517,17488.962140023457,1.1064672295593554,4.949734147557407,347.35608205969174,0.6323529411764706,0.6328125,0.8765432098765432,0.23529411764705882,49.88113248325048,49.50815990661302,50.53651952455893,47.65625,0.5459831278390654,0.4540168721609345,52.411617146776706,47.794062267814205,0.4296817080185921,0.570318291981408,51.44578438845386,59.270011420037214,0.48196918952265316,0.5180308104773468,51.930946184734495,53.83867866966575,0.5848957359170086,2.2342846691057554,1.0258881742722694,1.3345060199651377,-1.37148833872482,-1.6030448489557108,-0.361871743578499,0.001454190056834427,0.308345393650114,0.49076656434965615,0.38578885513289113,5.501425275240066,0.3821978421729177,0.2233712260384037,0.5634798040861013,0.504135431892049,0.523106672572124,1.932040892540013,1.6687437655653212,0.7817054604320227,Stress,1.4381232524405736,0.40884014339694486,1.2303497601095197,1.434769831807992,1.390657649039655,-0.5305413851105838,0.0,0.0024750786334032655,0.04795216649921619
140.46412471906285,428.3188405797101,68.26023470836849,,,,,,,88.56957346101252,88.8945703228811,0.15936780790679522,0.20678421089564405,421.0,14.825999999999999,0.03521615201900237,22.0,0.7706962113622009,405.0,432.0,10.869565217391305,22.463768115942027,345.0,1059.0,5.111111111111111,93.75,,,0.005803580011880428,0.009780283772284785,0.005724514624865798,0.021308378409031013,0.5933958714292649,0.27236141110675643,0.4589877082406074,-4.627386779785313,62.85795348597364,73.7181850946829,0.8526790696927701,14557.431141414352,1.172774183797324,4.870054854476045,345.81913742174714,0.6086956521739131,0.6046511627906977,0.8589743589743589,0.2,49.879285369386764,49.431439612606766,50.689928006598116,46.51162790697674,0.5664172341086771,0.4335827658913227,47.30734926116287,41.39009188057394,0.42454073387968,0.5754592661203203,48.03240336900655,55.92190125747672,0.4842681897432031,0.5157318102567969,47.67125479531978,49.19552188021451,1.0222460826311799,1.1691203301993633,1.1168131048193226,1.129702362019081,-0.023763015685418054,0.12972998648662992,-0.48897525184806223,0.0006573087305842785,0.0661096118442506,0.5332923015719913,0.4409772556614299,5.569995246690176,0.41732163275419365,0.31670128975748196,0.6764556802253033,0.6125993257540823,0.6046340776300523,1.872494695856625,1.6150966857676736,1.1332430293414473,Stress,3.1183810771685354,3.7133862758743295,-0.5950051987057943,1.2616879392313707,1.6418070257482342,-1.643612507324057,0.0,0.0814953864820359,2.6092174310996086
141.03492941880788,426.49640287769785,68.52645465049937,,,,,,,88.20015938728245,88.52146503848078,0.16067299557072706,0.20680164895218295,418.0,19.273799999999998,0.04610956937799043,27.0,0.7769425262555725,402.0,432.4,10.79136690647482,21.58273381294964,345.0,1059.0,5.148148148148148,109.375,,,0.050721158137860704,0.04067311401026745,0.027820457486534132,0.11921472963466229,1.247043885674865,0.4254604971491146,0.34117524013107803,-3.202187994247239,62.59412820927764,74.44546377087397,0.8408051349096028,14639.347083246555,1.1893362189177312,4.872491817526621,354.1627455873128,0.5971223021582733,0.5909090909090909,0.8589743589743589,0.17647058823529413,50.06093102607849,49.6529068541105,50.82759338755286,45.45454545454545,0.5666827194913273,0.43331728050867263,47.11981931483581,41.20373982034254,0.4285467700490678,0.5714532299509323,48.734594054400574,56.276695162503046,0.48575728244509425,0.5142427175549057,47.93400687356519,49.31944136745557,1.1029732835333974,0.8530651822502642,1.2130755775376723,1.078201691563242,0.7561281971875085,0.8850950508693063,-0.6581050179760616,0.00040552791533566163,0.042291765233919046,0.5285128731280446,0.4810200491151298,5.768668838845432,0.4160753918721144,0.4661895872971832,0.7645939115339635,0.7085003315193725,0.6913545711037185,1.8539673490096307,1.6111348047946104,1.0243080680177707,Stress,2.103560291388807,1.9317812121925986,1.9335507155479845,1.137669685292508,0.7665639345367015,4.338330653369717,-0.9119933588918906,0.024988767064384795,0.6237052037992173
141.06029440395437,426.46043165467626,68.64794308402398,,,,,,,88.37231844116498,88.69399037652695,0.1609714242835341,0.20722278523772616,418.0,20.7564,0.04965645933014354,27.0,0.7768036902837084,402.0,433.0,11.510791366906476,22.302158273381295,345.0,1059.0,5.148148148148148,109.375,,,0.041513280694199954,0.044087460699178814,0.023713343702779437,0.1093140850961582,0.9416119693864154,0.379761497868118,0.40330997291334647,-3.12157987484812,62.7161220457366,74.5166582724784,0.8416389502654315,14681.906021476207,1.188157938370872,4.873752549797692,354.1502362692589,0.5827338129496403,0.5725190839694657,0.8266666666666667,0.15151515151515152,50.36638983878847,50.01462003243968,51.06087076438881,43.51145038167939,0.5653602837063691,0.4346397162936308,47.156673173767444,41.34711527550428,0.43032744084986835,0.5696725591501316,48.88244169683968,56.24268178040937,0.48631792113794425,0.513682078862056,48.027309580396285,49.360020236311854,0.6388973992745791,2.2849438588466366,1.2448160071274825,1.3665163371665345,-1.037840308596703,-1.1427607450128727,-0.44673815307633763,0.003254415563074709,0.3773348781949842,0.484083879363312,0.4387447415904626,5.818450742000425,0.39016365403205616,0.36652325191223145,0.7765352711114311,0.6872429209608737,0.6809849779874847,1.8515578815794769,1.6124817740733823,0.9730926646168824,Stress,0.9880145794288009,0.5286663128030771,1.175195181597791,1.1853168861578034,0.22773624866214792,-0.32493801584077797,-0.4808542660750495,0.00445181052966016,0.08678357788082988
140.3267698784961,428.6474820143885,68.43846948853141,,,,,,,87.6840094158928,88.0034419015688,0.15966142893669003,0.2045597212045433,422.0,23.7216,0.056212322274881515,30.5,0.7805125466368886,402.0,438.0,10.071942446043165,15.107913669064748,345.0,1059.0,5.148148148148148,101.5625,,,0.052813685351669006,0.04709721837063848,0.02794937628455234,0.12786028000685984,1.1213758939231602,0.4130577951873365,0.3683490945594024,-3.0555413376519818,62.22783053635566,74.59026712552507,0.8342620684228795,14581.986623150755,1.1986641102962259,4.870786805459356,357.6347047231013,0.5539568345323741,0.5454545454545455,0.7916666666666666,0.12121212121212122,49.98678297647371,49.52220638888567,50.8179992851814,43.93939393939394,0.5659856495361499,0.4340143504638501,46.81525267700345,40.99554898396106,0.4332891796582367,0.5667108203417636,49.09882334080554,56.15170074366009,0.4877444929093615,0.5122555070906387,47.9706281836256,49.16120692630475,0.92740363846971,1.3407486948847862,1.2352239074442588,1.1198644563023838,0.025046845852845223,0.12119868568533221,-0.5860410691295046,0.0007456273589384086,0.10647058172675877,0.4131837526685327,0.362170469768,5.863706094917355,0.35178305868122606,0.564592460434169,0.7651544355615234,0.7014808846476559,0.667683374113408,1.834171976724538,1.5726387011627727,0.9218772612159938,Stress,1.8741494863269068,0.8577235185110834,1.8741494863269068,1.504738814368643,-1.375302022435342,-2.2162856062627876,-0.9306873531922283,0.023055738251829227,0.4750869170424544
139.5276793371427,431.04379562043795,68.53153724565091,,,,,,,87.27888026995116,87.6015339943881,0.15898973130330676,0.20248262741915413,429.0,22.238999999999997,0.05183916083916083,33.0,0.7852018384480274,402.2,441.0,8.02919708029197,14.5985401459854,345.0,1059.0,5.074074074074074,101.5625,,,0.009075586943283608,0.01626471717937353,0.005672913625673005,0.031013217748330144,0.5579922997242779,0.2926360952588439,0.5244446839202707,-4.1187571075035105,61.94363872977569,75.0034501748177,0.8258771907878603,14595.797437573357,1.2108337791070753,4.871197937499389,363.266844084975,0.5766423357664233,0.5692307692307692,0.8243243243243243,0.15151515151515152,50.05540166204987,49.54994047011212,50.90988232517388,42.30769230769231,0.5712668220086216,0.4287331779913784,46.81836455130891,40.559284455665086,0.4329189128832651,0.5670810871167351,49.34970047539707,56.48118802853704,0.48901837517441904,0.5109816248255812,48.100687085896524,49.16899509177766,1.0023331806550215,1.7273522853664587,1.2792771596408068,1.418588790224111,-0.7040460725025994,-0.6533251998770839,-0.41934961283607,0.00038612437534115557,0.15521059619821573,0.3829559572222663,0.3198626565866789,5.7892913458547675,0.35654095178513745,0.23629894766463339,0.5416657896852379,0.4624026733024039,0.6446172618160758,1.9538295594935937,1.5535863087176662,0.828967250564733,Stress,-0.0640252619144874,1.9498665031445075,-0.07813205985047045,0.7435618461979079,-1.6086111192130588,-2.273918832293342,-0.07858965999813296,0.00661931967826996,0.3131921719126792
140.18899361760867,428.1798561151079,23.03219290740842,,,,,,,19.189935465978145,19.25404196032634,0.053790930559836185,0.0448174644180816,434.0,19.273799999999998,0.04440967741935484,32.0,1.200222530619877,405.0,446.0,3.597122302158273,10.79136690647482,346.0,485.0,5.148148148148148,117.1875,,,0.008702089506914323,0.007093156448526688,0.002100283243780135,0.017895529199221147,1.2268289258898024,0.486271705633218,0.3963647215772416,-4.948624840255584,13.614663635397081,29.455992255259044,0.4622035312005601,1259.8836668574552,2.163549026556611,3.807300555734634,254.9179334804991,0.539568345323741,0.5407407407407407,0.7945205479452054,0.16129032258064516,52.15374420145793,52.11610729587915,52.187429934670426,41.48148148148148,0.5032960113343435,0.4967039886656565,9.661610390016104,9.598129379792756,0.6341386974700836,0.3658613025299165,23.456639055420894,17.816889851081868,0.6110954039417564,0.3889045960582437,17.938236132696602,14.31023500081017,0.8008677791689042,2.784379838075721,1.1732453099242361,1.6174531447574982,-2.3170978889877407,-1.992714704072175,-0.3404643544825216,0.0010334223752846293,0.4037642683359434,0.7954221517113944,1.2093636529608123,5.8231631307202365,0.7809500696118418,1.1699136523885734,1.2019732380576031,1.2557176713493252,1.553328761261931,1.8714506637983233,2.389089029623222,0.6658002442115512,Stress,1.0689008200319277,1.7624473738433957,-0.5478673591710632,0.3333563277506346,1.2913583892808096,-1.470417833669102,0.0,0.0032907508750415738,0.26755374165323104
137.08607606678586,437.74264705882354,18.255388376943074,,,,,,,13.641983129431868,13.689876340082261,0.04170347234750908,0.031164391272113515,439.0,14.0847,0.03208359908883827,19.0,1.3381770233653218,428.0,453.0,1.4705882352941175,7.352941176470589,389.0,481.0,4.533333333333333,85.9375,,,0.013271500437621798,0.015378138613685624,0.005275480616698926,0.03392511966800635,0.8630108474774025,0.39119981204186316,0.4532965178657346,-4.174808348647287,9.68020439367744,23.846000298534353,0.40594666914737965,725.1868913937006,2.4633777685633587,3.5674200550724726,234.96682801825895,0.5294117647058824,0.5267175572519084,0.782608695652174,0.13333333333333333,51.61016949152541,51.690363209321475,51.531200698522206,41.221374045801525,0.39607546569017676,0.6039245343098233,6.093488082775363,7.524338618230246,0.631299343929927,0.368700656070073,18.94668409608392,14.47946449289133,0.5980081402354436,0.4019918597645563,14.073155922743924,11.53842631476866,0.9953302960023406,1.5189242129827094,1.2818513071290671,1.3031355002541802,-0.2889623064400393,-0.22036339780306635,-0.48598732382880555,0.0003073008475985888,0.1231055430594015,0.7931880229609019,1.4343035803062512,5.634543154531084,0.8698644370084758,1.2921057932544897,1.375245941652577,1.642356478938813,1.7245754346198827,1.7528044596468808,2.2411676583567237,0.8859328551562924,Stress,1.1201642601038955,1.4905847515722643,2.240943556401506,1.4956511806153738,3.7991923526607643,2.7991923526607643,-1.0,0.004474874729185156,0.3172716279968564
134.66258222386202,445.57142857142856,15.790429453870539,,,,,,,13.614553265019774,13.66411414132565,0.035438604096535355,0.03055526542325695,444.0,16.3086,0.03673108108108108,22.0,1.1598198741079004,433.0,461.0,1.5037593984962405,6.7669172932330826,389.0,483.0,4.925925925925926,85.9375,,,0.0173491896342133,0.019892040411854075,0.00528168991577715,0.04252291996184452,0.8721674235024459,0.4079961971045401,0.4677957306248735,-3.917435606568564,9.661987768238363,20.12311962212603,0.4801436332771531,610.8177725134069,2.0827101115027604,3.4928817748756624,167.64249884792596,0.5413533834586466,0.5354330708661417,0.7647058823529411,0.1724137931034483,51.43603133159269,51.44883215125836,51.42295091933157,44.09448818897638,0.40720153676380433,0.5927984632361957,6.166580702241065,7.4403480177982395,0.5571793188321473,0.44282068116785256,15.020790984183503,13.390884270124406,0.5290736904927794,0.4709263095072205,11.481526016775389,10.832233383790701,0.9279891688091876,1.8292926005743304,1.2937873633507064,1.0716409382554701,0.14768936484348139,1.0563493858547597,-0.621438432006717,0.0005343412995227499,0.19017121002925663,0.8505361281947486,1.498212277323876,5.534589958614931,0.9592711707210961,1.1387553347981172,1.324956251303563,1.604452690168412,1.723956683673756,1.813461108349473,2.675304592388768,0.8487557817144289,Stress,0.6702406946388663,1.1156774025472567,1.1583910662809829,1.121983255537827,-1.5173078896552328,-2.5173078896552328,-0.5326329193905257,0.0016432874698562607,0.13437947632491218
132.85413131136704,451.7251908396947,14.324832357786415,,,,,,,11.786889718274676,11.826435625599121,0.031711387029708334,0.026093053824083792,452.0,16.3086,0.03608097345132743,21.5,1.2153191130291863,438.0,464.0,0.7633587786259541,5.343511450381679,420.0,489.0,4.678571428571429,54.6875,,,0.010862634146381642,0.009991111592864796,0.0026787820604700203,0.023532527799716457,1.087229788739348,0.4616008207376908,0.4245660167874179,-4.606059421954748,8.362552828127308,18.21327387537429,0.45914605388074164,478.4942961778627,2.1779562114231727,3.3868468751608725,158.67085186889136,0.549618320610687,0.544,0.7647058823529411,0.21428571428571427,52.344497607655505,52.28446063621246,52.40615518308015,45.6,0.4616023475998008,0.5383976524001993,5.684536347704366,6.1392118778081075,0.557188928266043,0.442811071733957,13.595314458515002,12.119850247980985,0.5405322747368174,0.4594677252631824,10.419849536204426,9.606786468796548,1.017914594012714,2.144757622524016,1.36426663364828,1.5997731502766703,-0.6873080847296666,-0.4641401975753894,-0.39019434450069046,0.0016122175366028888,0.3007411158028363,0.7157392782831757,1.5298852807321466,5.461197006343413,1.013107508670656,1.3186788373579668,1.3630987277254265,1.8752183411800265,1.746959786962677,1.7894982235323362,2.692842082619378,0.6442830230415985,Stress,0.6617236627299122,1.646637790536883,-0.5711268743460132,0.2521920209224283,2.2540280787307703,-1.7030255537963424,0.0,0.00032762062240854797,0.09740418511314942
132.33886446767173,453.4732824427481,15.673263979084702,,,,,,,17.333160748647707,17.4001298838873,0.0345627065273983,0.03822311351019021,457.0,14.825999999999999,0.032442013129102845,21.5,0.9042357713267901,441.0,465.0,1.5267175572519083,10.687022900763358,385.0,494.0,3.9696969696969697,85.9375,,,0.017563182725064453,0.016282756424069535,0.0026198554598803976,0.03646579460901438,1.0786369498902633,0.48163444437113173,0.44652136608163806,-4.117648619221874,12.303749834423403,18.50794684996348,0.6647819952242666,715.3945192241767,1.5042525326857663,3.5615157185734354,111.36250369548446,0.5725190839694656,0.5609756097560976,0.7971014492753623,0.25925925925925924,49.7301464919044,49.77081104606801,49.6917111595154,44.71544715447154,0.37050976777530265,0.6294902322246972,7.489268808556794,9.761893957804032,0.6033783088049375,0.3966216911950627,14.376497407166696,11.655917763213782,0.5320065314370303,0.4679934685629698,11.462391220532748,10.750697478447933,0.7468264892034925,3.177968117996886,1.3230609512852658,1.326221090018664,-0.9559663346260585,0.506011277212667,-0.49900561030946095,0.002080912586780157,0.5980195210147525,0.7776850443774723,1.168993085429909,5.440167330754378,0.9346326378566002,0.9057540608298387,1.4363521917724706,1.661461257874112,1.5436863753878574,1.8294561543825811,2.6189134745726044,0.6979732749617317,Stress,1.093243348259286,1.9978642059032161,1.0640557927222662,2.017111375683486,-2.394571771157757,-3.244443620102941,-0.022962781882189025,0.0010126109472952981,0.25689523560934757
132.55367641424374,453.03076923076924,15.983973786525935,,,,,,,17.01845783191721,17.075098459543383,0.03528231385622256,0.0375657879945196,457.5,16.3086,0.03564721311475409,22.0,0.9392139960266461,438.6,465.2,2.307692307692308,12.307692307692308,404.0,483.0,3.9393939393939394,70.3125,,,0.018020934861005374,0.01602167955295252,0.0017116731614123428,0.03575428757537024,1.1247843774084487,0.5040216456003253,0.4481051263901911,-4.133812501829086,12.073917910171096,18.583643473443573,0.6497067126489477,704.9023467674832,1.5391560230659402,3.555099066389322,114.41250713064291,0.5923076923076923,0.5853658536585367,0.8194444444444444,0.3076923076923077,47.22638680659671,47.18571427711243,47.2636743239993,44.71544715447154,0.41400353300144527,0.5859964669985547,7.773150905520875,9.247888272465234,0.5400267145659017,0.4599732854340981,13.656471011483923,12.603674236529649,0.5025901166906853,0.4974098833093148,11.111279752744522,11.053869045736006,0.8476951661376985,1.9549398641870313,1.2324941453468343,1.2923827434268047,-0.12500083776106585,0.1454557751500305,-0.46936550367758995,0.0013625828555705267,0.26250442938929125,0.764626432420302,1.1671322351048659,5.4851685180180985,0.9035953431129975,1.046089967504787,1.4863054611161133,1.7133674371234564,1.5857674212100432,1.8219955510552597,2.469491821349462,0.7562549952492182,Stress,1.111025209357193,2.116309202570505,-0.71829408169888,0.3398605195863726,1.5817194653681907,-1.5636258804036975,0.0,0.0014544495355457555,0.31288943773642863
131.98581627094995,455.33076923076925,56.82304757611831,,,,,,,60.0562397922522,60.288629700168435,0.12479509713809708,0.13189585209387572,455.5,20.0151,0.04394094401756312,28.75,0.9461639252254518,431.0,466.0,3.076923076923077,13.846153846153847,398.0,882.0,4.333333333333333,78.125,,,0.06609076377199474,0.13357982151516404,0.020043085819064624,0.21971367110622342,0.4947660733660442,0.3008040575683718,0.6079722797521468,-2.0130560658499053,42.63049888943379,68.36051273970145,0.6236129189340538,9155.36365323035,1.603558825736496,4.668645709222626,438.4804141424817,0.6307692307692307,0.6229508196721311,0.8421052631578947,0.38461538461538464,48.68713840676457,48.28068567779957,49.151519272643654,47.540983606557376,0.5215670007372049,0.4784329992627951,30.788466793590096,29.487881515124137,0.7939293355295952,0.20607066447040503,60.91107105494234,31.032259424261202,0.717664106389465,0.28233589361053507,48.260171283161824,30.26992138431027,0.9761135359118146,2.133306328339462,1.373188636674579,1.5724523704400986,-0.8707960009551527,-0.9289110319670968,-0.40659394240834423,0.002119392769922265,0.2941989939891212,0.5097435978422178,0.39388314383455203,5.629039474973774,0.4090629533504389,0.41003336031626714,0.6297829027675285,0.5434848418893814,0.7405584785225333,1.8111466825463,1.535045014334958,0.6482185673564728,Stress,1.3564570538091332,4.930341795698824,2.096676944008735,1.9435653939692084,-4.902055975338577,-2.2579083441954078,-0.5310549565089179,0.07593210962393922,2.0342227909315804
133.25828192359762,450.8333333333333,57.504220444735566,,,,,,,60.345379984686346,60.57702085014805,0.1275509510788959,0.13385296854274237,444.5,27.428099999999997,0.061705511811023614,33.5,0.9529183586105221,423.0,465.0,3.0303030303030303,23.484848484848484,398.0,882.0,5.076923076923077,78.125,,,0.05326551994943275,0.11753606979109094,0.017302285818727742,0.18810387555925143,0.45318445685743186,0.2831707735476959,0.6248466143594574,-2.141010015560251,42.83442222721856,69.47998144423676,0.6165001967019322,9349.8034170492,1.6220594986825019,4.677772589733958,450.80265547963285,0.6742424242424242,0.6746031746031745,0.8705882352941177,0.46153846153846156,49.90343762070298,49.744006136562675,50.098012340643095,46.82539682539682,0.5227054051504575,0.4772945948495424,30.968594513698005,29.592813576688094,0.7852048737837699,0.21479512621623023,61.567452939596514,32.20118879827348,0.7129123987201511,0.28708760127984884,48.73194592679055,30.92451434870618,1.018014336481724,1.6690601026876726,1.2436307640227149,1.4256867033891294,-0.3184950501655379,-0.43832696706047347,-0.39092307756128647,0.0027312666349567365,0.2030554103923216,0.692301962180641,0.48582088648605826,5.774719290617401,0.4785445164239241,0.4687398951159917,0.6744118117066711,0.614120279125645,0.8895271632764957,1.8312240088504559,1.5711516680611173,0.640399465396223,Stress,-0.14657328628104221,1.1214205865784197,-0.16128080113310173,0.22168540964804098,1.2218773782861057,0.6067805730063588,-0.1584990365215109,0.02647912884154567,0.6461338211912304
135.09154098378437,444.7293233082707,57.6496902432674,,,,,,,60.37640769423605,60.60635616108827,0.12962871396565562,0.1357598982794873,436.0,22.238999999999997,0.05100688073394495,36.0,0.9548380310273252,421.0,460.6,3.007518796992481,26.31578947368421,398.0,882.0,5.115384615384615,46.875,,,0.06384521495080975,0.13581195297638854,0.019308997576673266,0.21896616550387155,0.4701001167541527,0.2915757089863315,0.6202417285057095,-1.9964840487590505,42.85516542451261,69.6976773025762,0.6148722178856394,9383.640345941298,1.626354177195872,4.6793414638469315,453.4124344875789,0.6842105263157895,0.6875,0.8863636363636364,0.3793103448275862,49.79757085020243,49.64197009687346,49.996756638551,46.875,0.5241748946861994,0.47582510531380084,31.02713660824779,29.561554360067163,0.7902034379119451,0.20979656208805486,61.956626511635456,31.924013730603416,0.7172193846825312,0.28278061531746895,48.99646300912526,30.765468864093076,0.7519734293351735,2.3616026008086672,1.1030123321905392,1.505910503778924,-1.196882774517599,-1.3461526447969994,-0.32939628731335957,0.0037939898043528775,0.40305474594871155,0.7158894001073768,0.6086814137697492,5.793720736409743,0.5006105232669421,0.5510945174983879,0.7659333177456389,0.7308587081536942,0.9038345821017053,1.8428562470340144,1.6216547110587336,0.7426613090001253,Stress,1.178639347666825,0.780855689219405,1.039608518099581,1.2765944910276015,-1.0285410823363312,-1.4514386149921132,-0.19650477521022194,0.004018497281949599,0.0884579090679805
137.61696465079967,436.5777777777778,57.71552297293858,,,,,,,60.97112113074762,61.19876057049913,0.13219986428699154,0.139656950569258,429.0,14.825999999999999,0.03455944055944055,20.5,0.9466042595669567,416.8,444.0,5.185185185185185,30.37037037037037,355.0,882.0,4.21875,85.9375,,,0.061885926906879725,0.12625661875198785,0.01859021177985723,0.2067327574387248,0.4901598626559557,0.2993523023327476,0.6107238171454762,-2.06943878644253,43.27405859961184,69.49918558671693,0.6226556215628894,9448.37706978527,1.606024205627441,4.682327326918996,446.4694972946446,0.6888888888888889,0.696969696969697,0.9021739130434783,0.36666666666666664,49.182472204054925,48.98427815452951,49.456618179637466,46.96969696969697,0.518490711483874,0.48150928851612573,31.16063161115344,30.0288082232424,0.8061490036462449,0.19385099635375516,62.400400371724274,30.599458012609247,0.7257799507653822,0.27422004923461774,49.31934168740243,30.31547586607958,1.0707803750814437,0.6371664290730983,1.0986091672047138,0.9685041075891297,0.7426854642704228,0.6428027506100702,-0.704193211818851,0.0014447284698572182,0.03858632323990946,0.8180436834152895,0.7338460905825377,5.659968238553166,0.5621420807963494,0.5263641648897252,0.8393265897167257,0.7348881946979757,0.8046863559787729,1.8757635142935822,1.680244705130381,0.7863128441167591,Stress,1.341640208485995,2.4296444172055116,1.377198581690397,0.7081981483039687,1.0,3.5983642430475067,-0.7753491122605868,0.06224962958949177,1.4074231420823027
138.91110270451776,432.54014598540147,57.53042859812896,,,,,,,61.21862942140484,61.44493966163355,0.1330059859925017,0.1415328264661727,426.0,14.825999999999999,0.03480281690140845,20.0,0.9397536198027602,412.2,437.0,5.839416058394161,32.846715328467155,355.0,882.0,4.566666666666666,78.125,,,0.05160108801129526,0.11578381605623812,0.016631079360809573,0.18401598342834294,0.4456675360072063,0.2804163369394978,0.6292052130424046,-2.156030481328413,43.448133504339324,69.1202821080239,0.6285873289179704,9434.665322185487,1.590868848281379,4.681696608918912,439.845214360304,0.7007299270072993,0.7045454545454545,0.9139784946236559,0.375,50.06165228113439,49.977562638869145,50.18829316950059,46.96969696969697,0.5111577625615572,0.488842237438443,31.063376077518253,30.377745265365025,0.8098886001881128,0.19011139981188727,62.203975979894494,30.13766366169611,0.7252829872069575,0.27471701279304256,49.16435680978967,30.25794258036165,0.7091068216058996,1.421788630312596,0.9226013949929124,0.9714338889118982,-0.4359282510841309,-0.5391685659931629,-0.4656541817272449,0.001099143393876082,0.10815090506654992,0.822215313020696,0.7637647477738988,5.615311762178713,0.6330958843083714,0.3762252916805492,0.8949944853099726,0.7753019194813464,0.775638233851724,1.8933071274807662,1.6893437165481933,0.8807777037250288,Stress,-0.13268290931799698,1.6201649891441023,0.3092270606944991,0.4067631488098623,1.1164235540068252,0.657696426895209,-0.43979866941397777,0.030991385520897665,0.8512411669673462
141.6174651400032,423.85714285714283,21.040752314616903,,,,,,,30.568121825562756,30.670347432932047,0.04964114128827716,0.0721189257765215,422.5,14.0847,0.03333656804733728,18.25,0.6883233596976004,412.0,434.2,7.142857142857142,35.0,334.0,529.0,4.516129032258065,101.5625,,,0.04387909896663553,0.03421782794544795,0.030420320973240107,0.10851724788532358,1.2823461219277312,0.40435138028016615,0.3153215605099744,-3.375008485780762,21.687210651173668,18.45391479114274,1.1752092115209507,1257.3091656450797,0.8509123228414831,3.8064121914856885,62.81065400180029,0.7214285714285714,0.7218045112781954,0.9270833333333334,0.36666666666666664,48.23403496254013,48.446501121602296,47.99186451384145,48.87218045112782,0.4420593919142613,0.5579406080857388,14.423209958509457,16.203752472896472,0.5070821559118828,0.49291784408811734,13.140977600778452,12.956144442487359,0.4693584675279243,0.5306415324720754,13.796997459799131,14.670093268576968,0.45197680638151216,2.5554773785907225,0.865819661056876,1.1326778711040408,-0.907466092618991,-0.4614652789990008,-0.39557402766197447,0.002552776624211555,0.4364497756201676,0.8518468062033726,1.4528688517425605,5.549763845894192,1.2394631368407727,1.2264156443321514,1.3682742857675396,1.6192837368841388,1.5879231912660492,1.969474942762112,2.174708316715949,1.1203159026627805,Stress,0.8679394748102548,0.5080657490798371,1.376005223890092,1.1219723493501734,2.5568678710552746,1.5666082208951673,-1.0,0.0009079230468353106,0.04883573336326896
141.6919677024802,423.7214285714286,21.550031416673374,,,,,,,33.32940024757885,33.44941418549087,0.05085896054237576,0.0786587554940247,423.0,16.3086,0.03855460992907801,22.25,0.6465772338114255,410.0,437.6,10.0,40.714285714285715,334.0,479.0,4.375,101.5625,,,0.0157235952065398,0.04375023701922741,0.023373904026345215,0.08284773625211242,0.35939451481439,0.18978907472729992,0.528080053824185,-3.129258248610848,23.65230759727809,19.319237218433763,1.2242878603255545,1435.533613842395,0.8168013687026895,3.863983476167602,63.11991760923454,0.7142857142857143,0.7142857142857143,0.9368421052631579,0.2727272727272727,49.59476309226934,49.60754416923117,49.58291484096061,48.1203007518797,0.47191207709445104,0.5280879229055491,16.248411293576286,17.18832178536059,0.5760758778358733,0.423924122164127,14.663235860040372,12.578650198449063,0.5135954716323595,0.4864045283676404,15.476132518371495,15.06089052167972,0.4406880883327968,1.5463183249776487,0.6952575511031645,0.8652018603043374,-0.6629194402145124,-0.8554644604253452,-0.39009746152776825,0.00028374837993481176,0.12646839982263622,0.810643536665848,1.6663252868361518,5.676908624892621,1.3941093033919492,0.904571612804873,1.3221882825772002,1.7006230928484967,1.7211777681094294,2.0197512080168365,3.1975550326782343,1.1712393527838159,Stress,0.12049185779557244,0.9388954522771307,0.028223499309948608,0.037052510380325754,1.0003254032990332,1.358474737159199,-0.490596385306837,0.0011327182532987355,0.09424906019526377
142.50837186289294,421.37857142857143,20.45576658142418,,,,,,,32.57023401642813,32.688016340265975,0.048544866702818726,0.07729447158645836,422.0,14.825999999999999,0.035132701421800944,18.5,0.6280509550869814,409.0,435.0,11.428571428571429,39.285714285714285,334.0,479.0,4.0,101.5625,,,0.005569968185377874,0.031766809676862844,0.028832700960557317,0.06616947882279803,0.17533923746314145,0.08417730174805,0.480082512995673,-3.4493332551052758,23.11391801773874,17.558979064950137,1.3163588801057882,1275.0367494024626,0.7596712531157429,3.8124928122476067,53.356206518815064,0.7214285714285714,0.7238805970149254,0.9381443298969072,0.25,49.93690851735015,49.943629124456876,49.9298830054553,47.76119402985074,0.46701344148005486,0.5329865585199453,15.795683688539912,16.874537030686206,0.5889220537719463,0.4110779462280537,13.474981264285677,11.258002741628165,0.5116228240428972,0.4883771759571026,14.681259197719655,14.34385976176753,0.34641814739502436,1.8861941008655587,0.6698166564633476,0.7639877305981042,-0.7908499704620988,-0.4704715845743902,-0.45007349768958443,0.00036794902326909066,0.17884300602761535,0.8545365897995851,1.7827096337081372,5.652552128219642,1.44981887582493,1.0234483494459812,1.3678560787060254,1.8518071037924433,1.732621046615218,2.0260998186979506,3.4841044798071246,1.1203159026627805,Stress,-0.09278229006636207,0.6277263140998354,-0.2444856568578364,-0.15485781872204246,0.9945499665134897,0.9469787712610714,-0.35721828745649925,0.0005039427074513031,0.04315839034118072
143.15085621720465,419.5744680851064,22.800449257025367,,,,,,,36.42987392629453,36.560681091166074,0.0543418415355067,0.08682576442879529,419.0,14.825999999999999,0.035384248210023866,22.0,0.6258723075230943,405.0,433.0,14.184397163120568,42.5531914893617,334.0,497.0,4.548387096774194,93.75,,,0.015573705119580918,0.045902844077069155,0.033723828870666876,0.09520037806731696,0.33927538549535735,0.16358868983239358,0.48217081705926507,-3.0812282013718515,25.852305524362315,19.461028466721075,1.3284141466917079,1580.574388599073,0.7527772889880818,3.9057850503764526,58.599281000392715,0.7163120567375887,0.7164179104477613,0.9375,0.24242424242424243,49.98604521350823,50.02511128467493,49.94635602872531,44.776119402985074,0.42853298456934635,0.5714670154306536,16.923547938306076,19.543163812406657,0.6725139558494148,0.32748604415058513,15.95939554031834,11.136845288060496,0.5167821126742072,0.4832178873257926,16.448537637621115,15.90541691953965,0.2968196133567681,1.6382896812338572,0.6146126461196845,0.5727747479860339,-0.23876939066798641,0.08974926580060294,-0.5255375460230823,0.0003734735808681023,0.14276866160182894,0.8122164451128562,1.8106279535324377,5.758811615296652,1.447004935339627,1.191360571145581,1.4276595226582245,1.802004073372153,1.6860183415644159,2.042569124323689,3.9649770766417216,1.2152427833870287,Stress,0.569568653471002,1.2670049585811196,0.7745188470743071,1.0339757291017508,-0.15493059974905332,-0.7487274620945219,-0.29522031048875946,0.0010196763841094877,0.1258082408777615
142.85876863122417,420.4822695035461,24.60011696745695,,,,,,,39.56197669480129,39.703144995172714,0.05850452861306555,0.09408714603236712,419.0,19.273799999999998,0.04599952267303102,27.0,0.6218121292885139,403.0,440.0,18.439716312056735,50.35460992907801,334.0,497.0,5.423076923076923,93.75,,,0.010964396100224805,0.03965868962616571,0.020225537367569494,0.07084862309396,0.2764689454840384,0.15475806898439984,0.5597665542994398,-3.2274451966237767,28.07436306051936,20.17697330618646,1.3914060664347254,1779.57298421205,0.7186974558493581,3.9572859140412318,58.00455752758648,0.6950354609929078,0.6985294117647058,0.9263157894736842,0.28125,50.45265475899192,50.45104285727856,50.455156634264775,44.85294117647059,0.4439008584298173,0.5560991415701827,18.705210292491525,20.936096672610493,0.67538306267238,0.32461693732762015,16.58177821299742,11.495863738472423,0.5227409597991438,0.477259040200856,17.67541033174855,16.88897609357088,0.2690753623505018,1.909474751706781,0.5986044963639156,0.7374830139714564,-0.6095460364387861,-0.4013281636594197,-0.4272687332035134,0.0006757665998516371,0.2093393924857637,0.7118214164699195,1.9727573990915013,5.817906211292538,1.5387502393979433,1.1014023866719798,1.535502759536013,1.9071718626422165,1.7521150989801328,2.0461684559252675,3.889627241009718,1.1646076674125692,Stress,0.12012145274196452,2.9522573498740883,0.33496401553783933,1.498602943868816,-4.380753798051908,-5.167465773761147,-0.10584773262378189,0.0031096314235243127,0.5883414617451592
142.66773396700066,420.9357142857143,24.012949358548134,,,,,,,37.9073083821178,38.039338082952725,0.0570465953436517,0.0900548637134359,418.5,18.5325,0.044283154121863795,27.0,0.6334649011871252,404.0,440.0,17.142857142857142,49.28571428571429,357.0,497.0,5.6,70.3125,,,0.009455010774524455,0.030190878790864194,0.02908407306603394,0.06872996263142259,0.31317441403479634,0.1375675238647915,0.4392680809790118,-3.500215427013167,26.897873910303552,20.14471546204648,1.3352322578584104,1702.2720310490354,0.7489333740362953,3.937999073550084,60.3481988799664,0.6928571428571428,0.6985294117647058,0.9368421052631579,0.2857142857142857,48.917966784096635,49.01662443682286,48.817133255197085,45.588235294117645,0.40699316104096367,0.5930068389590364,17.162057915181908,20.71598836437797,0.6696587403666867,0.3303412596333131,16.48496040272369,11.57824000301629,0.5013644716384699,0.4986355283615302,16.826915215859174,16.78105800419762,0.35837197793831443,1.649762585489647,0.6346130283439176,0.7368814858681754,-0.36699075007783133,-0.2200036618532819,-0.43801019708911354,0.00046662972562409134,0.15110385822291025,0.7274956445946401,1.9328380674879608,5.872943220878737,1.5591918820307478,1.0870378118609783,1.4472412145170392,1.8903818930822074,1.8297232124493097,2.0252763284286712,3.326849191616003,1.1203159026627805,Stress,0.5826759273795407,1.11177563348253,0.7695001774287353,0.8054812315099539,0.35890707282713574,0.25453580824124633,-0.46763640702529935,0.0006298686965804521,0.07616120348556656
142.1981130039113,422.3857142857143,24.942115928047077,,,,,,,39.62349786091345,39.766785731555615,0.059050567016041375,0.09380880205174491,422.0,22.9803,0.054455687203791465,30.5,0.6294778925272823,405.0,441.0,18.571428571428573,52.85714285714286,355.0,497.0,5.833333333333333,101.5625,,,0.007734900438256211,0.02464441833761318,0.03976517782585344,0.07214449660172283,0.3138601338563927,0.10721400526165013,0.34159803586493753,-3.703204840742062,28.11936385677542,21.32242391595168,1.3187695717717547,1883.6141207843755,0.7582825850739863,3.9819620474957733,64.67369090812493,0.6714285714285714,0.6811594202898551,0.925531914893617,0.21621621621621623,49.940716148921034,50.00424760243729,49.87732126006913,45.65217391304348,0.41836935752154814,0.5816306424784521,18.18802759581387,21.44516093519076,0.673431425052304,0.3265685749476961,17.49779252257245,12.18495049183853,0.511486433122539,0.488513566877461,17.8462473784978,17.44087076416754,0.30204709117706907,1.824096338726143,0.5737870862707566,0.8088157690178934,-0.6802289783254807,-0.6526850719675777,-0.37115336084098,0.0008168764802496068,0.19731045880667053,0.6485419142816333,1.92896059074154,6.016329177458359,1.627659807241974,1.0558558532473774,1.5277844879811937,1.9662863262845558,1.8880841591420152,2.037132864747962,4.405016607034704,0.967545552299674,Stress,0.3085302647301824,0.525286295967804,0.5343672926197902,0.5711734127140844,-0.26421156910258725,-1.2677222020068912,-0.4299313148337871,0.00010965538285921015,0.019573887937433244
142.9432555771127,420.13475177304963,23.871447337219784,,,,,,,37.8478155625545,37.98370397589832,0.0568185498497272,0.0900849439443641,420.0,17.7912,0.04236,24.0,0.6307219315673659,405.0,437.0,15.602836879432624,49.645390070921984,355.0,497.0,5.035714285714286,85.9375,,,0.01418338137680728,0.02743061402634796,0.03692360803905429,0.07853760344220953,0.5170639404274253,0.18059350878008218,0.3492672659222697,-3.596095589071797,26.85853465594013,20.62312933370933,1.3023501051335977,1740.1502685453636,0.7678426838207364,3.947556862831871,63.34127590551011,0.6808510638297872,0.6906474820143884,0.9270833333333334,0.2222222222222222,49.94882292732856,50.0156333398486,49.88171582057702,45.32374100719424,0.40871828626136897,0.5912817137386308,17.170955902881616,20.652834390110325,0.6766557868828125,0.3233442131171875,16.964398495865705,11.727005039155213,0.5080973281137928,0.4919026718862074,17.067989672853034,16.793781818484117,0.30222665940174265,2.599840105527755,0.734699005538632,1.2080600686938916,-1.0031277799765226,-1.055359143678725,-0.3179268555213054,0.005392882555036855,0.5788954435331919,0.7423685753675269,1.9810014688665836,5.93927149783606,1.4895825984054731,1.138230359842679,1.5525665089610645,2.123891043110092,1.8858433149505676,2.024363030044347,4.933774287382008,1.0127023194891906,Stress,0.1045702243266042,0.41386154373946243,0.20877527243268035,0.08220192315527827,-0.41606712956034086,-1.4520281934234456,-0.8058350097806709,0.00038704057364792794,0.02095435330878481
142.70663531758493,420.78014184397165,22.818567689675618,,,,,,,36.09323244836113,36.2228251616671,0.054229193397004244,0.08577693873620292,420.0,16.3086,0.038829999999999996,22.0,0.6322118065297233,406.0,435.0,12.76595744680851,44.680851063829785,355.0,497.0,5.035714285714286,78.125,,,0.010152988121493232,0.017008846489764258,0.03331796350194152,0.060479798113199014,0.5969239670428674,0.167874041221005,0.2812318661833012,-4.074021688526711,25.613405305549502,19.721714364419153,1.2987413179332836,1586.9449403292479,0.769976273328489,3.907531968962387,60.74100851985755,0.6737588652482269,0.6811594202898551,0.9361702127659575,0.2647058823529412,50.04163197335555,50.11052176140826,49.97270377907279,44.20289855072464,0.4106293967025073,0.5893706032974927,16.413168077215783,19.663536717970977,0.6714240283956356,0.32857597160436425,16.160065033263724,11.304791709378108,0.5076970849300423,0.49230291506995766,16.287108218008626,16.038282199964822,0.3394808151480868,3.3191589785373092,0.8646582086723169,1.5472976364932463,-2.163834638972226,-2.0908998427668246,-0.2943336151612251,0.006077422603079013,0.8471795773421888,0.7682029652946682,1.8689491079191851,5.830441866857716,1.4082473835558733,1.1676281470699756,1.2662678387877322,2.0165402295532693,1.8767153769119425,2.028094763023044,3.8147173404085377,1.0127023194891906,Stress,0.33826363311009106,0.9374572091505629,-0.5991935760404717,-0.13046497146519034,1.0154431501237275,-1.5182667713137277,0.0,0.0005048109115193552,0.07104145180866805
141.54679468249464,424.14285714285717,21.11175179184457,,,,,,,31.60331919550005,31.716722314941155,0.049775096848404164,0.07451102538514663,425.0,17.7912,0.04186164705882353,24.0,0.6680232434209202,410.0,439.2,9.285714285714286,39.285714285714285,355.0,480.0,5.833333333333333,101.5625,,,0.01915817139147813,0.055330194836582906,0.03831299265221745,0.1128013588802785,0.34625165243067674,0.1698398989307533,0.4905100025905495,-2.894436500723124,22.42710942590558,19.755460753681263,1.1352359585805398,1391.9073811806563,0.8808741411348225,3.8505804478366232,69.6082980964867,0.6642857142857143,0.6739130434782609,0.9139784946236559,0.24242424242424243,49.465846552282294,49.50559038518638,49.42718732478678,46.3768115942029,0.4178089592232171,0.5821910407767831,14.49687622523746,17.112691281576687,0.5988237970129683,0.40117620298703166,15.287507688787175,12.51280696948186,0.4968950284211936,0.5031049715788064,14.897437894225,14.990239176778744,0.42435787417803,3.3889326780259426,0.9342376614271826,1.6396373433162856,-2.361304570146615,-2.2267079717471976,-0.2918519637575098,0.005749732606576255,0.8483519957741199,0.7915823142551184,1.750516510694006,5.857759670742503,1.3404609905241998,1.4756326124533288,1.399972934474552,1.889708876742889,1.8770266933446385,2.022765925289948,3.890561895356605,1.1203159026627805,Stress,-0.02686554177298194,0.8562456115517654,0.053534535042128406,0.3707690693745974,-1.3036762257959724,-2.3036762257959724,-0.12950521433032752,0.00039002683655164883,0.04854891011947324
140.84448587604686,426.2661870503597,21.478528388436544,,,,,,,32.33329598085397,32.450791950788584,0.05038759592230814,0.0758523593076691,427.0,16.3086,0.03819344262295082,22.0,0.6642851505505337,412.0,441.4,10.071942446043165,38.1294964028777,355.0,488.0,5.56,101.5625,,,0.01228015176515318,0.03314358547558537,0.012842435947119986,0.05826617318785854,0.3705136782560575,0.21075953839563483,0.5688306552882009,-3.4069060810561442,22.94617504327644,19.88755880543427,1.1537954591493855,1433.6450903364587,0.866704745689701,3.8634117617220554,68.94656638741154,0.697841726618705,0.7058823529411764,0.9166666666666666,0.2857142857142857,49.69025105966744,49.76343779521968,49.61673601332255,47.794117647058826,0.41209945172626516,0.587900548273735,14.730424347582591,17.594064194793397,0.5996844159901329,0.4003155840098671,15.400785010368905,12.582957375116663,0.49256422720199117,0.5074357727980088,15.069332772147837,15.29512849234216,0.4196218112609544,3.247490479889251,0.9174007137894205,1.573487073272684,-2.097571993362733,-1.9959345776571675,-0.29797127549835395,0.005436970110449993,0.7901061145627576,0.7169794703183645,1.6582280766035327,5.753612793415152,1.2650218418264025,1.4018582604770324,1.424086123224649,1.8028978841462744,1.9192050070469322,2.031786327567034,3.254634866104412,1.126738874819548,Stress,0.2060568630948912,0.5040282439213849,0.09130995418945642,-0.008649058624257522,1.0,1.37029336225755,-0.6983202608568596,0.0001459117639249467,0.0182670423805083
140.36921363714401,427.7410071942446,21.224247184374434,,,,,,,31.058733514685237,31.171838887320277,0.0496193884322532,0.07261107303789774,428.0,19.273799999999998,0.0450322429906542,25.5,0.6833584239466542,411.6,443.4,10.79136690647482,41.007194244604314,371.0,499.0,5.791666666666667,85.9375,,,0.00472359563311982,0.02323635896928425,0.004926495870633403,0.032886450473037475,0.20328467292848512,0.14363348932997624,0.7065632999321401,-3.762037030129547,22.04181865927869,20.25243278063965,1.0883541201207987,1402.4083766670724,0.9188185917732437,3.8538446071215606,74.43324706995841,0.7050359712230215,0.7132352941176471,0.9278350515463918,0.2962962962962963,50.114267058439424,50.12305910356355,50.10580430120057,47.794117647058826,0.46493791362745174,0.5350620863725483,15.029532970583904,16.123157394864133,0.5388436572855676,0.4611563427144324,14.866494926029654,13.753121905540654,0.4987695180018761,0.5012304819981238,14.948236228725015,14.98506867732384,0.45102606580000304,2.369302917508657,0.8424567718660398,1.0791241212032796,-1.2361319402669384,-0.8644187598562357,-0.4001109788080211,0.0009485930744909922,0.3152829956263126,0.7346438053725635,1.7788560643921472,5.827594224351499,1.274610875115507,1.5536038099536411,1.4554902197494495,1.7548752735766593,1.9328030076603866,2.0240435367970404,3.8061436661221926,1.1779542782204366,Stress,0.3792473551520106,0.6104483535107299,-0.08382799801250052,0.22139617874286444,1.0182914208223974,-1.8434887859512967,0.0,0.0004679182590601112,0.043794405594229834
139.8907065903211,429.3188405797101,25.643822410924095,,,,,,,40.63169091447393,40.78066956139248,0.059731416343846426,0.09464222641524157,429.0,19.273799999999998,0.044927272727272725,24.75,0.6311286051299722,413.4,445.6,14.492753623188406,42.028985507246375,316.0,556.0,5.3076923076923075,140.625,,,0.009807936820674283,0.026470930061411536,0.02855887333676211,0.06483774021884793,0.37051727302063997,0.1512689490344572,0.4082642296302085,-3.631708126926263,28.83628798818845,22.181819471604346,1.2999965140417222,2009.492517036882,0.7692328319335061,4.010056503263847,68.25193523832,0.7246376811594203,0.7313432835820896,0.9285714285714286,0.4,49.799081515499424,49.92500456685301,49.67258030091896,47.76119402985074,0.41943513515903413,0.5805648648409658,18.675538420461073,21.971823534057535,0.6499602226863933,0.3500397773136066,17.883007382443445,13.123687059295458,0.5051321419065734,0.49486785809342665,18.28356759955021,18.096853199411267,0.33037281537950725,2.7375943608961517,0.8817228397647627,0.9577983753678696,-1.0767794332317315,-0.41890917759291746,-0.4722108078940506,0.0015437721196811967,0.45562584852970106,0.7587578592181208,1.3350010667323402,5.859597174923226,1.0985305862388366,0.9360006783203605,1.312239342333704,1.6163667768468173,1.6140935871398023,2.0036116325581963,3.074360726884567,0.9787098889767044,Stress,0.8268013380183162,0.8250485413332109,0.8545606523460831,0.5368708953058428,1.0104563972429674,1.9332047470743512,-0.8850558374745803,0.00028584958842786966,0.04699048284243706
138.59426263569557,433.4632352941176,27.10361683893192,,,,,,,45.044915855670595,45.21246079774365,0.06252806381731847,0.10391865373566524,435.0,19.273799999999998,0.044307586206896545,26.0,0.6017020195081553,418.0,448.0,18.38235294117647,48.529411764705884,316.0,556.0,5.230769230769231,140.625,,,0.0072336580990398965,0.02486850426654207,0.018646666030232063,0.05074882839581403,0.2908762835717472,0.14253842556957547,0.4900311012617057,-3.6941531650525494,31.970037624215482,21.354320884853465,1.4971226571242406,2144.760410407576,0.6679479435044138,4.038348894478102,57.0542988798849,0.7352941176470589,0.7424242424242424,0.9387755102040817,0.4166666666666667,50.242038216560516,50.381807948315746,50.10152667830954,48.484848484848484,0.4204642944498596,0.5795357055501403,20.730502438273984,24.33802687645007,0.6920898035545309,0.30791019644546924,17.765072732893714,11.849439279910477,0.5042631670620691,0.49573683293793086,19.304812101498,19.140908592424385,0.2741894140385038,2.629480691457416,0.7860746401652378,0.8584295117058506,-0.8907068387964241,-0.1583274720481329,-0.4724832086519299,0.0015418873321439578,0.42163663885567465,0.7580450719503031,1.327798154438282,5.87849489694952,1.1803117554105669,0.920376269100989,1.3476249121015682,1.6537381959581572,1.5628465805236118,2.0199309006338133,3.135107935239011,1.042273947242697,Stress,0.7824061796045042,0.8560801322973834,0.885103444866278,0.5599805516095732,0.9997391829588278,1.727220316089994,-0.8797809118454863,0.00029787512348215095,0.05147651596971652
137.42819842043042,437.24264705882354,27.331570762555597,,,,,,,44.711006184988435,44.873285139176836,0.0625089317028094,0.10225673658720974,439.0,16.3086,0.03714943052391799,24.0,0.6112940211963308,421.0,452.0,17.647058823529413,47.05882352941176,316.0,556.0,5.037037037037037,140.625,,,0.011077123327667244,0.028236678980524402,0.03492011176212798,0.07423391407031962,0.3922955435130113,0.14921917382901578,0.38037437920593303,-3.5671334731122863,31.730204216029463,21.703693327067132,1.461972565584405,2163.49743253744,0.6840073634352111,4.042126494111518,59.38194419781429,0.7058823529411765,0.7099236641221374,0.9247311827956989,0.4583333333333333,51.07820213042348,51.241323520835635,50.91403962208454,46.56488549618321,0.4230625289485874,0.5769374710514126,20.640309785943174,24.103399772584257,0.7059347360926934,0.29406526390730675,18.235426292401225,11.76943210056376,0.5132133006767713,0.48678669932322877,19.475024520206635,18.96698991098476,0.32923287640021787,3.538593922328723,0.9790318851944247,1.4390827262344066,-1.5300560788950417,-0.9591417346834306,-0.3699904959037443,0.007085580809805667,0.9760483902388366,0.7101289295502378,1.076353818067167,5.886725893116901,1.1412832237738093,1.0061101050684116,1.3384401362148146,1.8490643590341445,1.457243151323114,1.9772584338237564,2.747276530271553,1.0943876446048317,Stress,0.8560712523745043,0.8457773632144884,0.6632160196127723,0.5439136982928636,1.0,2.054185406777675,-0.6410564133171931,0.0006242275769610086,0.061007450850642374
137.0680548895037,438.45185185185187,28.33296653747555,,,,,,,46.304314617957644,46.477946691656115,0.06462047410179249,0.10560866471970877,441.0,17.7912,0.040342857142857146,24.0,0.6118861011385647,423.0,453.0,17.037037037037038,42.96296296296296,316.0,556.0,5.0,148.4375,,,0.004070094864647964,0.017363679453583847,0.02765987477890951,0.049093649097141326,0.23440278746955906,0.08290471251372027,0.353684840563113,-4.053374642116945,32.86487128129689,23.030557443141642,1.4270115416196254,2377.8598741615447,0.7007651801225259,4.083156368288417,64.55605093986132,0.6814814814814815,0.6893939393939394,0.9340659340659341,0.2903225806451613,49.81636935991603,49.96354168521462,49.67109848768381,46.96969696969697,0.41661561808233677,0.5833843819176634,21.21293760431382,25.10212224799695,0.6803331908190494,0.3196668091809506,18.996136406595685,13.021266365598132,0.5034684628801358,0.4965315371198641,20.13506791871462,19.995873563278504,0.26620355464189543,2.6817699910683954,0.9402485904051541,0.9727868469124198,-0.18330959738689767,0.28315280830825595,-0.4878668727684947,0.005286036697904408,0.6324059466855145,0.7158091325407998,1.1786549963416462,5.80013437559911,1.0943100967630364,1.0949509880800714,1.2003692018185819,1.4235998886260157,1.4651875408833293,2.0095384025435816,3.207223136609611,1.048417125489012,Stress,-0.012866526406636979,1.2756519398672121,0.6375358425891147,0.24357167839559446,0.6016343156760144,0.460178666980791,-0.8088335868752173,0.0013712226873455983,0.14272166223179905
137.22858450589592,438.24626865671644,34.27891711977968,,,,,,,58.34168218091803,58.561438917152564,0.07821838900043383,0.13312533694751835,441.0,17.7912,0.040342857142857146,25.5,0.5875544865758323,421.0,456.4,20.8955223880597,44.02985074626866,309.0,587.0,4.785714285714286,156.25,,,0.01184025172155228,0.03425475885134426,0.020525763887784182,0.06662077446068072,0.3456527536198852,0.17772611947854708,0.514175332374157,-3.3739297793610086,41.409190574360366,25.182158195134416,1.6443860869066125,3275.9673294404665,0.6081296892271697,4.222309671940747,61.256072149106075,0.6567164179104478,0.6615384615384615,0.9302325581395349,0.2727272727272727,50.45045045045045,50.71739309832039,50.1813029992682,46.92307692307692,0.42766164714302435,0.5723383528569755,27.080267891786246,31.32775175947087,0.7309202049082272,0.26907979509177304,21.52920194621873,13.062716215385949,0.5095331153000301,0.49046688469996996,24.46270064334657,24.000651920591004,0.2367247601155874,2.5608337136331327,0.9105743093801958,0.9217891912390802,-0.041330125517855976,0.33853310226187183,-0.4956206130061551,0.005675878155121766,0.6099619868174496,0.7714067634356319,1.1933906949953994,5.863606474434574,1.0455323331085482,0.8305248176944247,1.1680743599481214,1.3077145880376049,1.3532891197454087,2.0143129238178403,2.785708021777942,1.0546401776802645,Stress,-0.05941838345069285,1.1737713133391576,0.6002582645553804,0.3484168556180555,0.5766080941905534,-0.07505188412883801,-0.7145574747613177,0.0024605077002080008,0.16461858261103066
137.53399991420744,436.9037037037037,29.68186392195919,,,,,,,49.75319685221167,49.939888116540494,0.0679368558113406,0.11387680266943434,439.0,17.7912,0.04052665148063781,24.5,0.5965820449714428,421.0,453.0,15.555555555555555,32.592592592592595,309.0,587.0,5.0,156.25,,,0.008964395071570902,0.023002365129168954,0.014580008137115805,0.046546768337855655,0.3897162322757536,0.19258898934730811,0.49417748966390734,-3.7721582366368067,35.31283353890326,22.93186947055192,1.5399020818712763,2544.0280823759554,0.6493919397685393,4.112492010945086,59.56708479200262,0.6296296296296297,0.6307692307692307,0.9024390243902439,0.25,49.98617638927287,50.188245725097566,49.78150411611002,46.15384615384615,0.4219161232555827,0.5780838767444175,22.937476311679802,26.848992924365554,0.706099212603688,0.29390078739631187,19.269583363677835,12.431966634635964,0.5062109703143403,0.49378902968565963,21.183067088580465,20.92154649467067,0.2464992391124515,2.8503107054351267,0.8641603606894543,1.033183703944332,-0.9993048880499558,-0.5728739504592366,-0.44070002862053775,0.0027590827789394806,0.5708181763224858,0.7677046222414106,1.2264456601779945,5.734543612841531,0.9646862387155867,1.1331598619437346,1.1332205510962805,1.425070233882004,1.3444026117525463,1.9922513394502654,2.9626429981772042,0.9959962692145613,Stress,0.1269290838933033,1.1130629662523515,0.4435249726838133,0.5099420290643001,0.3969613489593504,-0.272227447594821,-0.44032947066408024,0.0010870436644492875,0.1200225361614996
