PPG_Rate_Mean,HRV_MeanNN,HRV_SDNN,HRV_SDANN1,HRV_SDNNI1,HRV_SDANN2,HRV_SDNNI2,HRV_SDANN5,HRV_SDNNI5,HRV_RMSSD,HRV_SDSD,HRV_CVNN,HRV_CVSD,HRV_MedianNN,HRV_MadNN,HRV_MCVNN,HRV_IQRNN,HRV_SDRMSSD,HRV_Prc20NN,HRV_Prc80NN,HRV_pNN50,HRV_pNN20,HRV_MinNN,HRV_MaxNN,HRV_HTI,HRV_TINN,HRV_ULF,HRV_VLF,HRV_LF,HRV_HF,HRV_VHF,HRV_TP,HRV_LFHF,HRV_LFn,HRV_HFn,HRV_LnHF,HRV_SD1,HRV_SD2,HRV_SD1SD2,HRV_S,HRV_CSI,HRV_CVI,HRV_CSI_Modified,HRV_PIP,HRV_IALS,HRV_PSS,HRV_PAS,HRV_GI,HRV_SI,HRV_AI,HRV_PI,HRV_C1d,HRV_C1a,HRV_SD1d,HRV_SD1a,HRV_C2d,HRV_C2a,HRV_SD2d,HRV_SD2a,HRV_Cd,HRV_Ca,HRV_SDNNd,HRV_SDNNa,HRV_DFA_alpha1,HRV_MFDFA_alpha1_Width,HRV_MFDFA_alpha1_Peak,HRV_MFDFA_alpha1_Mean,HRV_MFDFA_alpha1_Max,HRV_MFDFA_alpha1_Delta,HRV_MFDFA_alpha1_Asymmetry,HRV_MFDFA_alpha1_Fluctuation,HRV_MFDFA_alpha1_Increment,HRV_ApEn,HRV_SampEn,HRV_ShanEn,HRV_FuzzyEn,HRV_MSEn,HRV_CMSEn,HRV_RCMSEn,HRV_CD,HRV_HFD,HRV_KFD,HRV_LZC,Labels
102.29234858095545,586.52,29.461318587756605,,,,,,,17.602800511810212,17.672785722248147,0.0502307143622666,0.03001227666884371,583.5,33.3585,0.057169665809768636,45.25,1.6736722414135285,561.0,615.4,0.0,23.0,521.0,656.0,7.6923076923076925,70.3125,,,0.03633894586672841,0.0060775280501061835,0.007021426947985971,0.04943790086482056,5.979231287314834,0.7350422495908757,0.12293256679170378,-5.103157236382559,12.496546626658462,39.52739252522648,0.3161490254810796,1551.808238329475,3.1630652616382853,3.897808163107683,500.1108887187388,0.51,0.5154639175257733,0.76,0.029411764705882353,52.81980742778541,52.865155503725745,52.77388901526211,43.29896907216495,0.5326639718346591,0.467336028165341,9.130572103585596,8.552359741197579,0.6287102694783034,0.3712897305216965,31.341764543464677,24.085442805673132,0.6199651375144466,0.38003486248555357,23.08325747849245,18.072789108051484,1.3604759412866978,0.8223875921486865,1.3764938769321038,1.7012178179198312,-0.5821100522054792,-1.3109274050276367,-0.10514489264203568,0.0004748422974632221,0.047991914271689806,0.6625717958540016,1.8382794848629476,5.90611181466655,1.097006904436116,1.53600639884847,1.1620072256631515,1.673698187009628,1.7778753943329866,1.5460314763795273,2.232832000500223,0.7308241808752197,Relax
101.18401509043068,593.15,27.590942372635645,,,,,,,16.7162897628135,16.796930642055464,0.046515961177839744,0.028182230064593274,591.0,37.065,0.06271573604060914,45.0,1.6505422413778406,565.8,620.0,0.0,18.0,542.0,656.0,9.090909090909092,46.875,,,0.045541040355305124,0.011560128142317756,0.0068656350281388265,0.0639668035257617,3.939492693735343,0.7119480393758324,0.18072074115227724,-4.460193330823759,11.87722356011753,37.26714967996635,0.31870490934009776,1390.5639988251892,3.137698763632397,3.850161091437424,467.7323578997356,0.51,0.5104166666666666,0.7755102040816326,0.029411764705882353,51.40324963072379,51.39833200777632,51.40590129841992,43.75,0.5036871023713131,0.49631289762868713,8.431597519728623,8.369648762532586,0.6235364660720497,0.37646353392795007,29.427753281230537,22.865864997590663,0.6124802136326872,0.3875197863673129,21.64583678118807,17.217706039077985,1.3528830151591384,1.370604555534464,1.4789561369234616,1.8481837450323737,-0.5818106653041593,-1.0419834223156936,-0.23060967394425982,0.001414337272892411,0.14195935652005773,0.6442272997567282,1.358123484153194,5.92611181466655,1.1065812282210856,0.9715889466602935,1.1156250521031497,1.2920704019153924,1.7250770473452761,1.578412533371482,2.679315906049801,0.6643856189774725,Relax
99.96175178472434,600.2755102040817,23.73773394036605,,,,,,,16.261395687047333,16.345857898768585,0.03954473160548511,0.027089886911293087,603.0,25.9455,0.0430273631840796,34.0,1.4597599367976657,581.4,621.6,0.0,19.387755102040817,548.0,656.0,6.533333333333333,93.75,,,0.03244689873119375,0.011928360186396144,0.00878085760991464,0.05315611652750453,2.720147465717731,0.6104076228820211,0.22440240118414334,-4.4288365052623195,11.558266964530958,31.683256076920806,0.3648067905795328,1150.4623259838188,2.7411770444607075,3.7678425114234444,347.39765700730214,0.5204081632653061,0.5212765957446809,0.8163265306122449,0.02857142857142857,49.92492492492494,49.92752581523358,49.922325297947715,44.680851063829785,0.44791423001949315,0.5520857699805066,7.735537580974361,8.588085254195683,0.6131918585868396,0.38680814141316044,24.81007045220788,19.705053153752722,0.5937794952315246,0.40622050476847515,18.376318150138037,15.199413280215019,1.2024054053796347,1.033679009372443,1.4416773385085433,1.7000827594731718,-0.8275074403507059,-1.827507440350706,-0.2500138644379467,0.00178267327529386,0.12166610999331573,0.5795241437852745,2.0949457282158015,5.85420652765622,1.2231827386969987,1.3076842862102522,1.1430250711839547,1.3857070460221965,1.8348670303428207,1.6538243317700883,3.067912108218883,0.6749703922566539,Relax
99.93977690267808,600.4591836734694,22.34046228252325,,,,,,,15.866387996051184,15.941372668090892,0.037205630107694426,0.026423757729849878,601.5,24.462899999999998,0.04066982543640897,32.75,1.4080370584712367,582.0,621.6,0.0,17.346938775510203,551.0,656.0,6.533333333333333,93.75,,,0.03774288867940778,0.02567759043222379,0.011308282429240835,0.07472876154087241,1.4698765750248428,0.5050650900826793,0.34361054435753763,-3.6621366350836158,11.272252715028955,29.252674489294687,0.38534092734509284,1035.9198810539547,2.595104565948293,3.722296277956261,303.6549965334712,0.5102040816326531,0.5106382978723405,0.8125,0.06060606060606061,51.81747873163186,51.90873898370468,51.729217314365364,45.744680851063826,0.48478643679102346,0.5152135632089766,7.852149387269704,8.094815727777046,0.5777033524724393,0.4222966475275607,22.23402155989118,19.009662018324434,0.5656803886258748,0.43431961137412556,16.67345142323127,14.609813340997777,1.297432975785776,0.614020038184953,1.297432975785776,1.4707531026180232,-0.07308683287068973,-0.604499424751479,-0.21772887519341808,0.00012987311368395864,0.01765754731253395,0.6463265992681584,2.001480000210124,5.776557135059926,1.2538447158401278,1.0659881924804269,1.2403558638843901,1.576083678657122,1.8920206040131244,1.6813420371588723,2.2164824114397215,0.8774615099336501,Relax
99.5797982499561,602.5816326530612,21.44084331959491,,,,,,,15.7797338380595,15.861541160067285,0.03558164098894724,0.02618688154928337,605.0,25.2042,0.041659834710743804,32.5,1.3587582363323045,582.0,622.0,0.0,19.387755102040817,556.0,656.0,5.444444444444445,78.125,,,0.060312619221353135,0.024513717353391806,0.01036858455554208,0.09519492113028703,2.460362023102468,0.6335697168004081,0.25751076908653026,-3.7085224261373115,11.215803314353114,28.330576477966048,0.3958904021270497,998.241610930169,2.525951613444467,3.706205779099095,286.24666145732084,0.5306122448979592,0.5368421052631579,0.803921568627451,0.09375,50.27450980392156,50.27470741924434,50.273892103810226,45.26315789473684,0.4672297437171366,0.5327702562828636,7.666553441192898,8.186625271339427,0.5706942248067147,0.4293057751932854,21.40213753429667,18.562598754940876,0.5566752137080573,0.44332478629194294,16.075253228232782,14.34557259000605,1.1984355079388902,0.7398395382069518,1.2148563586364087,1.5556935969054044,-0.5229509049442012,-1.4459857407599186,-0.039309241170002306,0.00038190008440914445,0.042785717923947655,0.6810082261134851,2.014903020542265,5.619313160220976,1.253714231902769,1.038742296009634,1.2650758466791618,1.5927503251514337,1.9594658564496772,1.6597520827373526,3.281005717580255,0.6749703922566539,Relax
99.82039197327805,601.2222222222222,22.096982689745893,,,,,,,15.38850617990517,15.45496637632209,0.03675343637178212,0.025595371579956856,602.0,26.686799999999998,0.04433023255813953,35.0,1.4359407229923902,581.0,622.4,0.0,20.2020202020202,556.0,656.0,6.6,85.9375,,,0.058329733085963904,0.022231826912941115,0.012976928040371384,0.0935384880392764,2.6237039949249628,0.6235907198058569,0.23767571380463268,-3.8062303720642747,10.928311527707434,29.10931554004254,0.37542317038250306,999.3898474024821,2.663660846988058,3.706705043181752,310.1493763465294,0.5353535353535354,0.5416666666666666,0.8269230769230769,0.12121212121212122,52.38095238095237,52.40870930186118,52.35263366131301,45.83333333333333,0.5087689059335545,0.49123109406644555,7.801334805164308,7.665695441245898,0.5539704627532928,0.4460295372467073,21.665828364447925,19.44078528486043,0.5483786195280763,0.45162138047192374,16.28295033862083,14.77678955473725,1.2455603378805435,1.1465645260055792,1.3243401658900904,1.7826758905745401,-0.6244026788127037,-1.5057882975338446,-0.10025300426727188,0.0014303335917859696,0.12453201641519725,0.6393000254173473,1.91959284073794,5.724822528951986,1.2315235048792441,1.4178571425937891,0.9471305056089252,1.2946450333067903,2.061606240750114,1.6577876208110838,2.3763931758482846,0.7365951800088454,Relax
100.11299009741862,599.0918367346939,23.067845579603006,,,,,,,16.2680510368047,16.352400067650883,0.03850469020798649,0.027154519623356112,599.5,25.9455,0.04327856547122602,32.5,1.4179845838579255,577.4,617.0,0.0,24.489795918367346,556.0,670.0,6.125,70.3125,,,0.050833364843337094,0.013750206538148312,0.0072421439606049996,0.07182571534209041,3.696916457386002,0.7077321068259289,0.1914384906945798,-4.28670143402613,11.562892976511296,30.116620763623715,0.38393726398671885,1094.013343031669,2.604592192006119,3.745992728823634,313.76606116217476,0.5408163265306123,0.5425531914893618,0.8235294117647058,0.08823529411764706,50.26985350809559,50.25342975398919,50.28694320922703,47.87234042553192,0.5024346538896032,0.49756534611039704,8.19616272003755,8.156349775890357,0.5222142764992032,0.47778572350079673,21.763593748176596,20.817224439974215,0.5196731389461788,0.4803268610538213,16.44431658915938,15.809536284327356,1.2554440849975395,1.1985758282420038,1.3761279975488583,1.2158391261233645,0.1598852317355206,0.9402233346886719,-0.6337327748888407,6.975761706968456e-05,0.053619964268648124,0.6161694484534124,1.864784604242945,5.7213539765475065,1.1972518323663892,1.3043265515367413,1.1276360126237857,1.4431743278281857,2.006906554747729,1.6231447295701862,2.5572353285349334,0.8774615099336501,Relax
100.6077911008319,596.4949494949495,22.11766942430258,,,,,,,15.797829869049375,15.878205173669171,0.037079390937055784,0.02648443190076521,596.0,23.7216,0.03980134228187919,31.5,1.4000447914453644,575.0,614.4,0.0,24.242424242424242,556.0,670.0,6.6,70.3125,,,0.05263931267396731,0.017617894641929265,0.004173802003567575,0.07443100931946416,2.9878321867523097,0.7072228786799727,0.2367010040977918,-4.038840152450383,11.227586551372793,29.279413094155903,0.3834635112140889,1032.7581987140102,2.607810054296657,3.72096876133941,305.42059140337983,0.5050505050505051,0.5104166666666666,0.7755102040816326,0.13333333333333333,49.36908517350158,49.35028100680198,49.38829644953828,52.083333333333336,0.5082999427590155,0.49170005724098453,8.005152979600336,7.873353206966488,0.47110344639368623,0.5288965536063138,20.096503716007213,21.293533514443695,0.4758722604245901,0.52412773957541,15.296273007407652,16.053103442206844,1.3397741653219442,0.889615221910371,1.440011960106947,1.1035810347454587,0.7773711923627573,1.6520591495281751,-0.8781757742847883,0.00019853051767199786,0.04258717176184242,0.6563356869332586,1.698669046162043,5.6745149532818235,1.206941739667571,1.2080268274115042,1.3133805761725554,1.675452902414951,1.9196893351742508,1.6032040218879893,2.5342244259024054,0.9374847745567124,Relax
101.40688348003061,591.47,26.781742235555118,,,,,,,16.132344071849115,16.202611952893974,0.04527996726047833,0.027274999698799793,592.0,25.9455,0.04382685810810811,34.5,1.66012714062361,570.8,613.2,0.0,22.0,524.0,670.0,7.6923076923076925,125.0,,,0.048775986459043644,0.009317042420716324,0.005314658542455266,0.06340768742221523,5.235136243513378,0.7692440529214871,0.1469386883435217,-4.675910037479637,11.456976784825537,35.644738923220565,0.32142125685095013,1282.966580901945,3.1111819106093574,3.8151854538512144,443.5890677852683,0.49,0.49484536082474223,0.75,0.1,47.655649500384314,47.475044961982555,47.825225753657456,53.608247422680414,0.484145158160295,0.5158548418397049,7.977647343851265,8.234757099623273,0.4077838097196326,0.5922161902803674,22.762000449513277,27.430616989796505,0.41494358163899975,0.5850564183610003,17.055080205125094,20.251542816915315,1.4546385252864493,1.4784304000602297,1.4819770605784992,2.1635790906151087,-0.9376820343212486,-1.8771327649183376,-0.03896914592067256,0.0018290300263437318,0.20039190404270174,0.6699934201026445,1.5436865348713198,5.931014064623281,1.080671675492734,1.1000886984779028,1.2522105680427398,1.6130945669094243,1.9004643310385547,1.5474553887838212,2.4613865815338913,0.7308241808752197,Relax
101.09224909511697,593.5858585858585,27.772402283418746,,,,,,,17.626510645928207,17.716708466561236,0.04678750661207277,0.029694963906183827,593.0,26.686799999999998,0.04500303541315345,36.0,1.5756040909795315,571.6,615.8,1.0101010101010102,25.252525252525253,531.0,670.0,5.823529411764706,93.75,,,0.04658443567952514,0.015898172017933757,0.003113165313231094,0.06559577301068999,2.930175596727478,0.7101743533372704,0.24236580023750723,-4.141551143790762,12.52760469701057,37.383496000185374,0.33511057117152576,1471.288453203081,2.984089688678164,3.8746679365665013,446.22281976357823,0.48484848484848486,0.49484536082474223,0.7708333333333334,0.1,50.43227665706053,50.44740213780076,50.41665650277829,50.51546391752577,0.47845507094062,0.5215449290593798,8.665609240275876,9.04741234293501,0.511265890245151,0.4887341097548492,26.730268584014123,26.134622909511126,0.5079531255413879,0.49204687445861206,19.86957526066784,19.55599888429937,1.4717758750967571,0.604986119877645,1.5558152891406458,1.6404075954232797,0.3758752540325787,-0.2399794519299201,-0.360174798225549,8.50974788656324e-05,0.02020597508916347,0.6498910496477097,1.7227665977411037,5.9878437412480245,1.098495596785104,0.9965383349066065,1.2613887180760586,1.6306069197289357,1.967697946249413,1.5222504536269323,2.409051439795858,0.8705215763740901,Relax
101.27306261559576,592.51,27.452252396045058,,,,,,,18.01850900231944,18.10609722013671,0.046332133459426945,0.030410472401004945,592.0,26.686799999999998,0.04507905405405405,34.5,1.5235584915772584,571.0,615.0,1.0,26.0,531.0,670.0,6.25,93.75,,,0.04839372851899928,0.013660945598519042,0.0028255920651011827,0.0648802661826195,3.542487463257708,0.7458928787805016,0.21055625080309268,-4.2932142033320595,12.802944125181563,36.74396333380469,0.348436667238963,1477.9022893080892,2.8699620161221016,3.8766158318304225,421.8151163592108,0.47,0.47959183673469385,0.8085106382978723,0.06060606060606061,51.308539944903586,51.304463538573486,51.31057953108953,52.04081632653062,0.49576877605625036,0.5042312239437495,9.016707847555185,9.093336874338489,0.5076247357634515,0.49237526423654854,26.179261260652556,25.78303941203365,0.5063406426906147,0.4936593573093852,19.57874792423748,19.332018736188477,1.4686585417910958,0.7774190583556733,1.4918413832939668,1.579638768143274,-0.21128248475314138,-0.4085866751100946,-0.38706556148107774,0.00012671966347631934,0.020936318790720006,0.7422248160625089,1.9459101490553132,5.92611181466655,1.1423078421601565,1.4134877326682547,1.1992630367853383,1.484186539293164,1.7781459113016365,1.5483714224006204,2.548513269805324,0.9965784284662087,Relax
101.56415348827049,590.89,27.128908506751184,,,,,,,18.23804437504917,18.325415730018364,0.04591194385884206,0.030865379977744033,591.5,25.9455,0.043863905325443785,32.5,1.4874899933824755,570.8,614.0,1.0,25.0,531.0,670.0,5.882352941176471,93.75,,,0.04415421316871686,0.010459713001548437,0.004101295963737068,0.05871522213400236,4.221359913238571,0.7520062355882133,0.1781431223691335,-4.560224258432256,12.95802573075861,36.18096394699263,0.35814484516617434,1472.885015949764,2.792166391606205,3.875138953961453,404.09308619483437,0.51,0.5104166666666666,0.8367346938775511,0.0967741935483871,48.48066298342542,48.476283313972864,48.48705597594064,54.166666666666664,0.45976313392043733,0.5402368660795628,8.788907665869727,9.52708277084066,0.5107694687199338,0.4892305312800661,25.85786108645961,25.306781149860573,0.5049677321407742,0.4950322678592259,19.311575258453487,19.120649548189874,1.4379349625188789,0.11504772490164172,1.4592708835566297,1.4954588249696998,0.9492790960842186,-0.055386545281015165,-0.18545278540702698,0.00011618263659681566,0.0033305823129422393,0.7374744505877864,1.8718021769015916,5.923465189601647,1.1285068779695298,1.046067283839675,1.268070908142324,1.5618091265823915,1.7945328603879829,1.568627873565115,2.646925070401921,0.8637013046707142,Relax
102.0909137703734,587.56,26.16857549493941,,,,,,,17.489101945745723,17.570478276488778,0.044537707629755965,0.029765644267386693,589.5,24.462899999999998,0.04149770992366412,31.5,1.4962789728208425,568.0,607.4,1.0,23.0,531.0,647.0,5.555555555555555,93.75,,,0.04521500567715847,0.00411160866480991,0.004154514792940237,0.05348112913490862,10.996913705368133,0.8454385015526042,0.07687961588167272,-5.4939409244218735,12.424204337996136,34.63677740792796,0.3586997771666939,1351.935390022137,2.787846727697528,3.8379260468134517,386.24810621871853,0.53,0.5263157894736842,0.84,0.14285714285714285,51.8332135154565,51.76135605397152,51.90623143601118,51.578947368421055,0.47359730524091026,0.52640269475909,8.553851024359657,9.018122344049502,0.5116597567494943,0.48834024325050557,24.77582407924597,24.20464604989308,0.5073173781154445,0.4926826218845554,18.533885536399044,18.26460266489323,1.403204781718847,0.43427377924267274,1.7608934818631816,1.5437565922418452,1.8636899281249901,0.8636899281249901,-1.0,0.00035366167876807795,0.025451089436806826,0.798611140596508,1.9029851043382793,5.923465189601647,1.1648645009857845,1.2215510066903792,1.235401586357556,1.5409584404763972,1.7961700740900444,1.6047523959228354,3.2024439155573763,0.8637013046707142,Relax
101.69794403884684,590.01,29.138296158668975,,,,,,,18.10853919893021,18.19956256369344,0.049386105589174716,0.03069191911820174,588.5,27.428099999999997,0.04660679694137638,37.75,1.60909148101744,566.8,615.0,1.0,25.0,531.0,663.0,7.6923076923076925,62.5,,,0.04434964079418092,0.009753227058844162,0.004145774568105788,0.05824864242113087,4.547176080963372,0.7613849688296288,0.16744127679971443,-4.6301570683400355,12.86903410341646,38.961302548410906,0.3303029740195722,1575.1767474778455,3.0275234516681784,3.9042994021493707,471.82502869141274,0.56,0.5434782608695652,0.86,0.13333333333333333,50.6993006993007,50.66304222536316,50.73640602510514,52.17391304347826,0.47846845736816174,0.5215315426318383,8.902246907382429,9.29422686732062,0.4950876964402775,0.5049123035597225,27.414134207868123,27.68480344705024,0.4934527101552724,0.5065472898447276,20.381177031356717,20.649830446798216,1.430022912520415,0.15506641026615742,1.4673930659870313,1.4882289704795437,0.6547883457396733,-0.34521165426032674,-0.36563237997997405,4.300944654571243e-05,0.0026360962145766287,0.7410325361742767,1.9783454248084673,5.910015409922182,1.096149886128561,0.9850570899998553,1.3736285515911075,1.4462286521342098,1.8543949627081282,1.5346755195803967,2.5591024392903132,0.8637013046707142,Relax
100.97143779285089,594.28,26.580953156481627,,,,,,,18.261567525402864,18.35348866780149,0.04472799548442086,0.030728894671540125,590.0,25.2042,0.04271898305084746,39.0,1.4555679910558625,572.6,618.6,1.0,26.0,535.0,663.0,6.666666666666667,54.6875,,,0.051177139263053464,0.015045343825315834,0.01009123910708971,0.07631372219545901,3.401526735264167,0.6706151631809505,0.19715122513328404,-4.19668671603292,12.977876295432887,35.292642349350594,0.3677218658486671,1438.9234090089403,2.7194466602960774,3.8650077878942075,383.90583347986154,0.55,0.5326086956521738,0.8367346938775511,0.13333333333333333,50.65562456866806,50.687949906410935,50.62343755323049,54.347826086956516,0.48450704225352104,0.5154929577464787,9.033949573578502,9.318349245068099,0.4585379622475617,0.5414620377524385,23.89856494840739,25.969774689163724,0.46163151792871765,0.5383684820712824,18.065902295363017,19.509751793128867,1.2910062012361525,0.7453922441532761,1.3447096539179373,1.6146120944332463,-0.19237628124697892,-1.031482085539567,-0.1379054885097402,0.0002904590683741065,0.0395691146251067,0.7343322992302168,1.8021222562636017,5.932662034987086,1.1695807345405873,1.2240568539068253,1.238400813272462,1.4068797688077699,1.8543331359933963,1.6135263602795256,2.3668327150277033,0.8637013046707142,Relax
101.1042327894895,593.3131313131313,26.420711752005868,,,,,,,17.252920486286445,17.331063700419765,0.04453080567007016,0.02907894596585444,588.0,26.686799999999998,0.04538571428571428,37.5,1.531376196453608,570.6,617.4,0.0,22.22222222222222,535.0,663.0,7.615384615384615,117.1875,,,0.047254696207457585,0.011565215997428605,0.0036782953046087486,0.06249820750949494,4.085932871289574,0.7560968240613699,0.1850487631292718,-4.4597533066526855,12.254912667742834,35.04151981103198,0.34972548947162585,1349.096536641108,2.859385518369923,3.8370131373434684,400.78885715735044,0.5353535353535354,0.5164835164835164,0.8297872340425532,0.1,52.148579752367084,52.06461158718915,52.233602551298716,52.74725274725275,0.5301155256933257,0.46988447430667446,8.928120754458105,8.405631396585132,0.49968249861559016,0.5003175013844099,24.770227952289996,24.785962112827864,0.503002659645335,0.4969973403546651,18.618210615075153,18.506736030886106,1.3941776608054504,0.2762842780294359,1.5913636649321186,1.4999166388627707,0.3533243420616703,-0.6466756579383297,-0.8309888884071966,0.00011166449639727396,0.010272033312766127,0.6588889193396206,1.5629178967992077,5.740072781520944,1.1762045144525284,1.224053626970458,1.4824277706259117,1.6007373808115375,1.9007860646354622,1.6028531190026112,2.777634365392098,0.7365951800088454,Relax
101.49165787050521,591.06,26.901924380117034,,,,,,,17.19437305185812,17.27149308266293,0.04551470980969282,0.02909074045250587,586.0,25.2042,0.04301058020477816,38.0,1.5645772194764533,568.0,613.8,0.0,22.0,535.0,663.0,7.142857142857143,54.6875,,,0.043732821509973874,0.014781441002187846,0.0038603708059216893,0.06237463331808341,2.9586304544665736,0.7011315206769324,0.23697840317247154,-4.214382871449504,12.212789879967502,35.96138042806909,0.3396084837287003,1379.7522540911532,2.9445671940246942,3.8467712222033863,423.56280424133587,0.53,0.5108695652173914,0.8297872340425532,0.09375,47.85454545454545,47.81015290469458,47.900749814212496,53.2608695652174,0.46991697700638885,0.530083022993611,8.37696062947386,8.897087347289906,0.47089943517951355,0.5291005648204865,24.67745900683053,26.158056106265036,0.4707977320654252,0.5292022679345749,18.427567018214265,19.537170502964543,1.3438060239379042,0.8994284917772419,1.39328579534285,1.779549881686045,-0.1947088999614497,-1.1667681236804897,-0.07054497397569681,0.0005798668974896637,0.07057646497999187,0.640858160064429,1.4539530095937052,5.758562939644915,1.1373875019930775,0.8677909040406119,1.2377282855075173,1.404058953513297,1.9295974614536302,1.589834625863365,2.703577550725218,0.7308241808752197,Relax
102.10221756800958,587.83,28.026342226303072,,,,,,,16.431369358331004,16.51461250843794,0.04767763167293787,0.027952587241772287,583.0,28.1694,0.048318010291595194,37.0,1.7056607769633763,564.0,613.0,0.0,20.0,535.0,663.0,6.25,78.125,,,0.04800167246663098,0.014666509170560572,0.004646947858303477,0.06731512949549504,3.2728764499041523,0.7130889122012819,0.21787834741582288,-4.222188672160512,11.677594493384646,37.98770673137192,0.30740456579709174,1393.6263188710516,3.2530421186394123,3.85111644942829,494.30243995069907,0.48,0.47368421052631576,0.7777777777777778,0.027777777777777776,49.58364875094625,49.56734289252244,49.60036983593861,50.526315789473685,0.49784877848030235,0.5021512215196977,8.239712200244444,8.275239684549003,0.483140268900333,0.5168597310996668,26.404606207061335,27.310485784012293,0.4844102364941393,0.5155897635058605,19.55883542152803,20.178481429427144,1.4411392446173235,0.20310887726580273,1.2795407644458734,1.3810952030787749,1.144291059604579,-0.055144663421133444,0.0,5.7117271564434706e-05,0.003089657321766952,0.6201152266428371,1.2809338454620645,5.778562939644915,1.0722992715145447,0.8150476028474178,0.9062931471468225,1.2679352464700109,1.8858374206343218,1.59167872375538,2.436033367195982,0.7972627427729669,Relax
101.12512822050371,593.3030303030303,29.555708225023903,,,,,,,16.36852380114259,16.448764563641344,0.049815535595576325,0.0275888086949132,588.0,29.651999999999997,0.05042857142857143,43.5,1.8056428657885932,566.6,622.4,0.0,17.17171717171717,549.0,668.0,7.071428571428571,62.5,,,0.02343252076302209,0.007702007214566064,0.004857399199940236,0.03599192717752839,3.0423914325484427,0.6510493491343864,0.21399263164143162,-4.866274306876529,11.631032965091773,40.20614419635672,0.28928496371820006,1469.1312109515995,3.456799092309982,3.8740306951649033,555.9382510530006,0.4444444444444444,0.4421052631578947,0.7380952380952381,0.029411764705882353,48.66514111365369,48.69637486248897,48.635883338732874,48.421052631578945,0.46966523212857525,0.5303347678714248,7.972892217337342,8.472210485786098,0.5500794196354107,0.4499205803645893,29.81982732460749,26.96872131690379,0.5438668417185336,0.4561331582814664,21.8264645783357,19.98862526518876,1.2730332823828998,0.6634026396586394,1.2730332823828998,1.4832698583564459,-0.23792936350205096,-0.8402069017436098,-0.1830935492181258,0.000260224106273026,0.0250677960933787,0.6026856999712544,1.2927683031090673,5.814920352573642,1.0303469878041496,1.1654601174947246,1.1391210024129717,1.392533553316414,1.8966593352533756,1.601100658611391,2.5636562341437648,0.5357055854609786,Relax
101.73576381082358,589.9108910891089,36.327152106902346,,,,,,,19.275632285349293,19.372736752790743,0.061580744915277305,0.03267549824306874,584.0,34.099799999999995,0.058390068493150676,53.0,1.8846153303367015,561.0,627.0,1.9801980198019802,19.801980198019802,516.0,690.0,7.769230769230769,93.75,,,0.028278876208792117,0.004563058343941051,0.003403441679323874,0.03624537623205704,6.197351442227679,0.7802064469613922,0.12589352955606173,-5.389762190806748,13.69859352804019,49.56467614352102,0.2763781506081895,2133.0357029722068,3.6182310280296393,4.035968234738013,717.3457964669128,0.42574257425742573,0.43999999999999995,0.75,0.0,50.03353454057679,50.0270076897989,50.039905375909086,49.0,0.5385008747140358,0.4614991252859643,10.052388027255267,9.305966371151902,0.49165351573772603,0.5083464842622738,34.753763977532856,35.33883148331394,0.4949780058414382,0.5050219941585619,25.581972320919327,25.84022078763135,1.4702790802019572,0.2683011235750552,1.515558679655605,1.3814081178680775,1.0905591989072958,0.07345773029866942,-1.0,0.0004518588163146835,0.0161846397622516,0.5520810609949964,0.9453719411749966,6.041729675756841,0.9191967141427055,0.8360017109069476,0.988638159650222,1.1162307185826017,1.7346978383850855,1.4984361063232123,2.3478912165485055,0.6592288596783955,Relax
102.51081588225848,585.4257425742575,36.623038250438334,,,,,,,19.480246405012437,19.576062480034697,0.06255795669216398,0.03327534986649736,576.0,31.1346,0.054053125,45.0,1.8800089839220364,556.0,621.0,1.9801980198019802,22.772277227722775,516.0,689.0,7.214285714285714,54.6875,,,0.04036462506966988,0.003960827369677369,0.004100667198330166,0.04842611963767742,10.190957924267677,0.8335300323808026,0.08179113666988279,-5.531302343802234,13.842366528564076,50.09133274491323,0.2763425481021917,2178.325643831862,3.6186971816956652,4.045092914099494,725.0614585255893,0.45544554455445546,0.47000000000000003,0.7446808510638298,0.0,49.00924702774109,48.966424704392026,49.054144372016445,47.0,0.5149151470433225,0.4850848529566774,9.93412646823407,9.642079494056091,0.5143792963604358,0.48562070363956406,35.92562454557887,34.906892115622625,0.5144173218975822,0.485582678102418,26.35656813468673,25.60723349115845,1.4850021019353061,0.4403393636461579,1.0446627382891482,1.2648324201122272,1.012875644581914,-0.26863437475882956,0.0,0.0007641645271108417,0.03737376540125714,0.6469707459112604,1.2492725635555992,6.045594621554495,0.939963884121248,0.8330195282290156,0.9663433112300434,1.219413825275771,1.7042538382082146,1.4626906203050671,2.40179265132166,0.7910746316140745,Relax
104.28145052088311,575.1941747572815,37.776447235464936,,,,,,,18.642666644228854,18.721295247615704,0.06567599063638938,0.03241108387805843,566.0,32.6172,0.05762756183745583,42.0,2.0263435460376726,545.8,602.0,1.9417475728155338,19.41747572815534,516.0,689.0,7.923076923076923,93.75,,,0.03589067199136887,0.0026895391551880134,0.002708098743160531,0.04128830988971741,13.344543403332574,0.8692695847137887,0.06514045167680321,-5.918385417818929,13.237954822184548,51.75178014526875,0.2557970911343576,2152.266571874957,3.9093485995692943,4.039866170415511,809.2629969444976,0.47572815533980584,0.4851485148514852,0.7551020408163265,0.02857142857142857,47.52407152682254,47.42755965830152,47.625445564659884,46.53465346534654,0.49565585331452755,0.5043441466854726,9.326582895940586,9.407970078082679,0.5317018892880576,0.4682981107119426,37.73630686752198,35.41493882819008,0.5294851852846644,0.47051481471533546,27.48648763042159,25.91069077807985,1.553127605804779,0.620598541369511,1.6432443455391104,1.6075875697097364,-0.5134287125091728,-1.453500429211408,-0.5574554618686147,0.001994722969843598,0.06901898155892365,0.70466391933962,1.2556741787028265,6.023736813527971,0.8651412524463173,0.8719526987765478,0.9181885754606792,1.1738094604284168,1.622271380896338,1.4931625652067524,2.509877170624852,0.7790097701572681,Relax
105.08982047086485,570.9423076923077,38.84193183158197,,,,,,,18.386096477755153,18.473838139447714,0.06803127270175022,0.032203072412114515,562.5,28.1694,0.05007893333333333,39.25,2.1125708699818793,539.0,597.2,1.9230769230769231,17.307692307692307,505.0,689.0,6.5,70.3125,,,0.02819233553859181,0.0027166444717896185,0.0030665403297603496,0.03397552034014178,10.377631608165425,0.8297837753873283,0.07995887758575185,-5.908357810324241,13.06297622294615,53.536402499024895,0.24400175606091717,2197.0563380586887,4.098331160167311,4.04881130342955,877.6396262600514,0.46153846153846156,0.4653465346534653,0.723404255319149,0.029411764705882353,48.99792674498963,48.94770071424489,49.05141148355124,46.53465346534654,0.5115310606278181,0.4884689393721818,9.343919066933948,9.130856970712435,0.5329001225191505,0.46709987748084925,39.08157831691432,36.58929664254958,0.5316990992488718,0.46830090075112807,28.413716645931054,26.665981866566415,1.489484482578988,1.9579342717856365,1.489484482578988,1.8525644685902942,-1.4285574146850841,-0.6710519587016908,-0.3145596656418005,0.005446454337659962,0.26237651404052803,0.7109932946922135,1.3166144404819007,5.994823583667494,0.8350913120880044,0.8559406724531927,0.9484785353246036,1.3339085647693938,1.6339400662909431,1.4719584501809233,2.152412423152181,0.7087003548033847,Relax
105.0493809692656,571.2135922330098,39.15545951101035,,,,,,,18.818795360583774,18.910124206758812,0.0685478427744381,0.032945286345544805,561.0,31.1346,0.05549839572192513,42.5,2.0806570644273013,538.4,599.2,1.9417475728155338,20.388349514563107,507.0,689.0,7.357142857142857,31.25,,,0.042760255162027444,0.003977113282658649,0.004000997915370308,0.0507383663600564,10.751580888699948,0.8427597936162624,0.07838473265843296,-5.5271990287120065,13.371477059679039,53.98631924387738,0.24768269530054146,2267.842943744471,4.037423764250413,4.062583084773967,871.8625930385597,0.4563106796116505,0.4653465346534653,0.7021276595744681,0.029411764705882353,49.15711395819286,49.14614313730521,49.17256396185451,47.524752475247524,0.5045262021426791,0.4954737978573208,9.49856685385894,9.41296767210212,0.5362046575367045,0.46379534246329546,39.53202028404796,36.76604463038504,0.5343733239416083,0.4656266760583921,28.748942589385848,26.836039183898805,1.4495818242137524,1.7636416683641176,1.4495818242137524,1.8646055749123294,-1.114963218210269,-0.7489533306922223,-0.26467796256847564,0.005204578569829826,0.2478857012939834,0.7034502408137651,1.3099213823353162,6.051703653539972,0.8421072471424778,0.8964423508995583,0.9691191410358417,1.176323958783966,1.6581098398034513,1.5184411843687802,2.374065774095011,0.5842573276179511,Relax
106.29629773902441,564.495238095238,31.411696685226804,,,,,,,17.786392811100548,17.87246067654933,0.05564563625234199,0.03150849043672489,560.0,23.7216,0.042359999999999995,31.0,1.7660521174154356,538.8,581.0,1.9047619047619049,19.047619047619047,507.0,689.0,7.5,31.25,,,0.014327484466930628,0.0051321013917686375,0.005866204455202927,0.025325790313902193,2.791738388082207,0.5657270430398289,0.2026432868691743,-5.272240075649039,12.637738140877941,42.75868806632284,0.29555953918126754,1697.6321706755336,3.3834130435109966,3.9368137066171243,578.6812117080588,0.47619047619047616,0.4854368932038835,0.76,0.05555555555555555,49.8223169864961,49.81076297638721,49.834850519264215,49.51456310679612,0.5279170845870946,0.4720829154129053,9.182349044802345,8.683205528629804,0.4812693600197303,0.5187306399802696,29.66323266703489,30.796071712061803,0.48501694777917603,0.5149830522208237,21.957036528630503,22.62516398997895,1.3190939010523395,2.463458281017382,1.3190939010523395,2.153575090482581,-2.1671080382551864,-1.8561080103407779,-0.16125621210617389,0.010517209351540322,0.5697786346994234,0.7551622584278608,1.3176658547307942,5.836731560643099,0.9545993502782512,1.032146028102216,1.0665594573729653,1.504187054699014,1.6549669154808386,1.609332054462934,2.006080522764857,0.7673423448761283,Relax
106.63882699058655,562.6380952380953,21.209179711372716,,,,,,,14.381144171876857,14.446364321897251,0.037695953919361765,0.02556020343021937,561.0,19.273799999999998,0.034356149732620314,26.0,1.4747908412495072,545.8,578.2,0.0,15.238095238095239,507.0,617.0,5.833333333333333,85.9375,,,0.02529341681276815,0.010945869858860566,0.008619053618177375,0.04485834028980609,2.310772660273628,0.5638509282635228,0.244009693362373,-4.5147930757098065,10.215122175504945,28.0856331825034,0.3637134370133657,901.3171968213212,2.7494172561000325,3.6618477672962793,308.8764980818821,0.4857142857142857,0.49514563106796117,0.7647058823529411,0.05405405405405406,48.525896414342625,48.579390506482845,48.47220246763496,46.601941747572816,0.41531451950346354,0.5846854804965362,6.585140671990456,7.813356749139284,0.5719478851830112,0.4280521148169885,21.24038813884612,18.3752198074826,0.5536381918304043,0.4463618081695956,15.724474012804656,14.119087198941392,1.15033258572835,1.5604369858925757,1.2757813922901056,1.9305510786746378,-1.8695753159271131,-2.8932031400170732,-0.08039338191538599,0.0021367517247041063,0.21599522036021065,0.7085821815229392,1.699951919974932,5.722445846357385,1.1944077967135303,1.1039293061802598,1.0453757749206947,1.3463211788056553,1.7967684056665427,1.7282132923933953,2.250868860149238,0.8312875402824722,Relax
106.91031333272473,561.2857142857143,20.96962743410752,,,,,,,13.844604614183712,13.909380783715994,0.03735998779301416,0.024665877398647486,561.0,17.7912,0.03171336898395722,24.0,1.5146425642682684,545.8,576.2,0.0,12.380952380952381,507.0,617.0,5.833333333333333,85.9375,,,0.046257463742050135,0.011599119959723106,0.007317104479350647,0.06517368818112389,3.988014944467769,0.7097567290268465,0.1779724346347877,-4.456826049288865,9.835417474271434,28.025763645818685,0.350941997462354,865.9645755794401,2.84947372281162,3.6444702364536843,319.43470828195814,0.4380952380952381,0.4519230769230769,0.7021276595744681,0.027777777777777776,51.07794361525705,51.103596445432785,51.051402183890325,46.15384615384615,0.45309521420688287,0.5469047857931172,6.621530049329593,7.274773542666972,0.6009242468140902,0.39907575318590977,21.725376874629557,17.70455951405183,0.5847093277113558,0.4152906722886443,16.059835935321125,13.534654736706262,1.35934532398446,1.5552059712039537,1.369256342213517,2.108113877944742,-1.434429518504837,-2.2939406644541975,-0.024913388058018595,0.0022296098949818404,0.21764798309840425,0.8073647615188491,1.823012012732159,5.730586350855226,1.1774241180567326,1.1693281439370615,1.1291157711720194,1.4323027398262154,1.74336606069237,1.6596364120953457,2.4047341541048413,0.9591779310951603,Relax
106.11201251797648,565.4761904761905,21.42118615103319,,,,,,,14.469796128487781,14.53983929797895,0.037881676561827116,0.025588692100904708,563.0,17.7912,0.03160071047957371,24.0,1.4804069083502622,550.8,581.6,0.0,15.238095238095239,507.0,617.0,5.526315789473684,93.75,,,0.0483479977094915,0.014015251724489246,0.009276587794648863,0.0716398372286296,3.449670306314347,0.6748758732546376,0.19563489067906895,-4.267609133450034,10.281218964963566,28.610051627791314,0.35935688263409377,924.0875579164265,2.7827489838791406,3.6726832328251913,318.4583683838641,0.44761904761904764,0.46153846153846156,0.7083333333333334,0.029411764705882353,50.12028869286288,50.1228194563583,50.11744952873096,49.03846153846153,0.48693455797933427,0.5130654420206658,7.174320440739162,7.364306464884378,0.5596228438701649,0.44037715612983497,21.40259131058619,18.98589316668838,0.551309588725467,0.44869041127453313,15.96154423284895,14.39960327657749,1.3411959303286138,1.5951350383346865,1.4449630557964213,2.0545603961740997,-1.3595742229890089,-2.0862984874946457,-0.11783966515205183,0.00215282692639471,0.21437686447059204,0.8015556657216796,1.930758344034711,5.599621113478911,1.197133920932267,1.4840155447771384,1.5877667110613924,1.6427398605519397,1.734031574828568,1.635771244606332,2.7731381693762573,0.9591779310951603,Relax
105.86060735380754,567.0190476190476,29.033462442360214,,,,,,,16.34307663342964,16.413304499717544,0.05120368101261103,0.028822800048879056,564.0,22.238999999999997,0.039430851063829785,33.0,1.7764991925065374,549.8,589.8,0.9523809523809524,20.952380952380953,499.0,660.0,7.0,117.1875,,,0.04724540263781485,0.0065746408497104995,0.004368589524363902,0.05818863301188926,7.186005094087413,0.811935255948727,0.1129884052847083,-5.024535326028408,11.605958913429948,39.355816865301826,0.2948981837463111,1434.9601233542398,3.3910008779852614,3.8638099424270362,533.8224381762626,0.47619047619047616,0.4854368932038835,0.72,0.029411764705882353,52.06489675516224,52.02816503479437,52.098047752384716,49.51456310679612,0.5500755993952048,0.44992440060479527,8.612476837794885,7.789088708740025,0.5275967958413151,0.472403204158685,28.586435499596405,27.049880342851605,0.5293970581528018,0.4706029418471982,21.111123274877382,19.90434537324967,1.4311975661503602,1.4884071735644806,1.4311975661503602,2.0714966694576757,-0.9429846349980995,-1.5785910002392667,-0.06980917945060107,0.0026432322819675592,0.20735429942179948,0.7196404931573763,1.8245492920510458,5.859496889457986,1.0309536270357509,1.5247550592291137,1.6007897854499753,1.709167577561431,1.6599537516994691,1.5253639293367725,2.1967316916336794,0.9591779310951603,Relax
104.95044260575963,571.7184466019418,33.56860621255362,,,,,,,17.440936744045715,17.527040428583682,0.05871527569570572,0.03050616408777334,571.0,29.651999999999997,0.05192994746059544,40.0,1.9247020217542985,549.4,598.0,0.9708737864077669,24.271844660194176,499.0,677.0,7.357142857142857,78.125,,,0.04011187544084503,0.0071883640496354425,0.0021463818174350417,0.049446621307915516,5.580111853527967,0.8112156984611574,0.14537624330026194,-4.9352916644825315,12.39348914118229,46.06425721804155,0.2690478451116379,1793.5254178652579,3.716811036286364,3.9606776458443655,684.8485584254025,0.47572815533980584,0.48,0.6875,0.06666666666666667,49.894884372810075,49.89193724257642,49.89777024897629,51.0,0.5252844296902697,0.47471557030973016,8.982380993747242,8.539077326278198,0.5294532336344479,0.47054676636555226,33.517982906646836,31.5984274121296,0.529171836142563,0.470828163857437,24.537097897338032,23.14493958194514,1.513139626997529,1.4574965634413366,1.7133674718430012,2.1706116698832787,-0.4453346645568317,-1.2772002903203088,-0.18628111413129855,0.002657388004358654,0.22162241758152065,0.612230316597465,1.2729656758128873,5.982332323173695,0.9644047826613084,1.203418498164339,1.5164571167152212,2.04717228111105,1.6789501112960459,1.4884233830516767,2.363583481850618,0.7790097701572681,Relax
104.37518386692808,574.8155339805825,36.24528301232372,,,,,,,17.49509735247418,17.570878733298997,0.06305550366971832,0.030436020459156853,571.0,32.6172,0.05712294220665499,47.5,2.0717394297436056,549.4,601.6,0.9708737864077669,24.271844660194176,499.0,677.0,9.363636363636363,156.25,,,0.04457747297374418,0.004490342458009226,0.0017055519763163746,0.050773367408069786,9.927410523941957,0.8779695980270782,0.08843893338647345,-5.405826308864937,12.424487503722213,49.73898089176563,0.24979376901103956,1941.4456583381152,4.0033024200687946,3.9950953489776815,796.4807303030434,0.44660194174757284,0.4444444444444444,0.6136363636363636,0.034482758620689655,52.180028129395225,52.1346426655058,52.218539508113494,48.484848484848484,0.5475336322869956,0.45246636771300436,9.199117478119172,8.362457358295282,0.5388877425823194,0.4611122574176806,36.51287542227146,33.775377844653505,0.5393961124755272,0.46060388752447234,26.625305951092404,24.603931003179326,1.5085771986514243,1.2049713672672049,1.770226344766788,1.991020980634158,-0.008742116942329403,-0.7715662369158363,-0.31676358304835284,0.001072868352590444,0.131087072452041,0.6842739920223093,1.3150668518315227,5.975003318298321,0.9246294231256725,1.2026923764915134,1.467144899698946,1.7812059555167092,1.7067995491685795,1.4658202463657786,2.1828848299051504,0.6491748084643901,Relax
104.63585939601792,573.6310679611651,36.66702057527833,,,,,,,17.730277637364825,17.79995451951811,0.0639209112323754,0.03090885174748793,571.0,32.6172,0.05712294220665499,46.5,2.0680454827174377,548.4,600.6,0.9708737864077669,25.24271844660194,499.0,677.0,7.357142857142857,62.5,,,0.03738450223007916,0.012685230804139075,0.0013593966942779694,0.0514291297284962,2.9470888474398853,0.726912985450829,0.2466545879953002,-4.367316891051952,12.58646854556339,50.219358171508134,0.2506298169438633,1985.7516195369008,3.9899482519431535,4.004895035384732,801.490561400464,0.46601941747572817,0.4536082474226804,0.5909090909090909,0.03571428571428571,52.83018867924527,52.80156173398227,52.85074451686697,49.48453608247423,0.5629190706377671,0.43708092936223286,9.452853306994896,8.329537089107165,0.521450013372969,0.47854998662703074,36.264149744819164,34.740399802586516,0.5239055834369225,0.4760944165630774,26.499481054902116,25.2613990760841,1.5331426885334958,1.365857088446341,1.651986867240681,2.2160712327566663,-0.802868360669116,-1.7746023085672369,-0.08701069805360835,0.0016818479514625645,0.17549759473196375,0.6848349005043071,1.3173014896329391,5.904662420261074,0.9191924929938197,0.6959096396065916,1.3078404551523435,1.755003770786184,1.6825259124197005,1.468368667252993,2.0562808439606846,0.7140922893108291,Relax
104.3889541230557,574.6407766990292,37.74913435416583,,,,,,,17.932881399655706,18.016224703108648,0.06569170842872002,0.031207116039814447,573.0,37.065,0.06468586387434555,50.0,2.105023365341087,539.8,605.8000000000001,0.9708737864077669,26.21359223300971,499.0,677.0,8.583333333333334,62.5,,,0.03249039764330476,0.008335819545127368,0.0012548380461950758,0.042081055234627206,3.8976848607881327,0.7720908485338888,0.19808960347239768,-4.787193441862906,12.739394658948719,51.74853328309941,0.24617885475624265,2071.079212835072,4.062087302299638,4.023166819690239,840.8282398476332,0.4854368932038835,0.46875,0.6222222222222222,0.037037037037037035,48.463687150837984,48.339448954027944,48.58432262790617,55.208333333333336,0.5186269129931103,0.48137308700688985,9.17702684872275,8.841284795304535,0.4599038830722636,0.5400961169277364,35.09389588018119,38.03063461083774,0.4632612103618435,0.5367387896381567,25.64955506272162,27.60885261772691,1.5482548378977343,1.6485004595566415,1.5564386111484634,2.2822278713359276,-0.675812900303006,-1.4952585076227516,-0.059727596082889176,0.0021370834402034988,0.24620039923333967,0.7200274551660488,1.5081841787289274,6.067331230961691,0.8833528939171298,1.2243191043158113,0.8033585793070612,1.685849885164188,1.782003405908142,1.4166988338420374,2.172542014748584,0.7140922893108291,Relax
103.86359728276464,577.7087378640776,39.09205602766151,,,,,,,19.075443612655718,19.169216023174187,0.0676674134654668,0.03301913639593202,576.0,40.0302,0.069496875,52.0,2.049339287801708,541.8,609.0,0.9708737864077669,29.126213592233007,499.0,677.0,9.363636363636363,62.5,,,0.03302492406804478,0.014720017219484583,0.0013430173214516391,0.049087958608981005,2.2435384127357114,0.6727703698397967,0.29987022554226667,-4.218546995880149,13.554682640016287,53.5547195748428,0.25309968472663924,2280.5362296944836,3.9510124284826817,4.065007086004397,846.3814505764348,0.47572815533980584,0.4639175257731959,0.6,0.03333333333333333,50.42678923177939,50.46112386642483,50.393537133290614,51.546391752577314,0.5347164219318336,0.46528357806816645,9.911988940292218,9.246085604724897,0.48702532691983547,0.5129746730801646,37.37433920295467,38.35709527431053,0.489896588964099,0.5101034110359011,27.34125779486004,27.899434195807952,1.5084088329699963,1.925194428306531,1.850142246315519,2.2940085214074717,-0.6951611086192155,-1.2321655827977231,-0.26944340344762313,0.0033651514168434858,0.34542642135045587,0.6693888230259062,1.3955110162248148,6.034855716709784,0.8916591209150666,0.88384661188393,1.1023504047178885,1.5309549460503895,1.8082085163656758,1.425422301717824,2.022316323576004,0.7790097701572681,Relax
103.92193994434393,577.2352941176471,31.899960107547678,,,,,,,17.251775629663097,17.321319776849602,0.05526335695794461,0.02988690366903828,572.5,30.3933,0.05308873362445415,43.5,1.849082714285836,550.4,603.4000000000001,0.0,24.509803921568626,513.0,675.0,6.375,46.875,,,0.03838474205273075,0.007136909149595409,0.0019065874548574557,0.04742823865718362,5.378342535704938,0.80932252893007,0.15047805593586874,-4.942475488569056,12.24802267331101,42.47638598488145,0.28834898236564727,1634.4190400757677,3.468019868826615,3.920333522905612,589.2358022060689,0.4803921568627451,0.4631578947368421,0.6136363636363636,0.03571428571428571,47.20588235294117,47.451906922732206,46.94190706465375,50.526315789473685,0.4619427811044578,0.5380572188955424,8.332466621595312,8.99277487764483,0.3972462040979978,0.6027537959020022,26.77179165738111,32.97748531635504,0.4022212257278818,0.5977787742721182,19.826230460506366,24.17006969156701,1.40327786726999,2.435980607160828,1.7900521140353562,2.3952334779639863,-1.3063521626767471,-1.7942367098331706,-0.2515656068239484,0.004663001054567376,0.5261424776847481,0.7254395922765222,1.4081134085145302,5.909930856571325,0.9624295685115909,1.1823520987481035,1.0365123605471473,1.3614090202661717,1.7478052990082895,1.4822828867617779,1.8553420802814695,0.8504071514277396,Relax
104.46882262336263,574.4271844660194,32.841151236582284,,,,,,,17.514979583314435,17.597279333846103,0.05717200042875934,0.03049120942908743,570.0,34.099799999999995,0.05982421052631578,43.0,1.8750322305752647,547.0,601.0,0.0,23.300970873786408,513.0,652.0,6.4375,62.5,,,0.04199573038352894,0.012819468745393242,0.001350495623099076,0.05616569475202125,3.2759337549475576,0.7477114022882736,0.22824374917808532,-4.356790267865161,12.443155547396469,44.89967731623814,0.2771324047555316,1755.187925741247,3.608383512141555,3.9512937326115325,648.0610213135595,0.4854368932038835,0.4742268041237113,0.6521739130434783,0.034482758620689655,51.41406816533721,51.41672380006026,51.4074737051677,49.48453608247423,0.5491355341791571,0.45086446582084294,9.223034014663698,8.357127745727944,0.44120334805481004,0.55879665194519,29.823775364760586,33.56372217282537,0.44890496361175136,0.5510950363882486,22.07398846429145,24.457770035849805,1.544366528331278,1.4832028813382907,1.7744156651910432,2.1286437111593197,-0.8054921019047647,-1.390652284869236,-0.2611735721220705,0.0008095602927809369,0.1498731945433441,0.6672843702433195,1.2311014717141886,5.937768338069007,0.9420893478828765,1.0695930473503807,1.2074658943518526,1.560396578592952,1.7690136037157604,1.4557204044017955,2.359430669176149,0.7140922893108291,Relax
105.28800191510526,569.9029126213592,30.287354043608335,,,,,,,17.619897397934118,17.705196571454877,0.053144760928307645,0.030917366814092236,565.0,31.1346,0.05510548672566371,40.0,1.718929081117092,543.8,595.4000000000001,0.0,24.271844660194176,513.0,652.0,6.866666666666666,62.5,,,0.0495515639824035,0.01820651682167732,0.0009453067108429182,0.06870338751492373,2.721638876218523,0.721239021462223,0.2650017339788741,-4.005975681864994,12.519464557916553,41.131459750034466,0.30437685980512913,1617.7438242009282,3.28540086996176,3.9158798605233653,540.5333345822414,0.4563106796116505,0.45454545454545453,0.6444444444444445,0.034482758620689655,49.12157413914265,49.12459360528224,49.12095091681061,49.494949494949495,0.5162787760128843,0.4837212239871159,8.99642393200523,8.708138903825365,0.4630218616846125,0.5369781383153877,27.988193721873888,30.140636910250652,0.4675383094238595,0.5324616905761403,20.787912730448642,22.184337679136164,1.5617531964391276,2.0828657327420057,1.7707781959402893,2.431375605675208,-1.3510061523493526,-1.8687367566694917,-0.18284205777140053,0.00435672438929424,0.3912789993475269,0.698129283190386,1.3083328196501787,5.943497371717385,1.0203532718721908,1.0172387896960364,1.1717808446301845,1.7584846018231228,1.7564435693976093,1.482071109273616,2.7074242946894707,0.7790097701572681,Relax
105.18320762494461,570.2912621359224,26.446257405242363,,,,,,,15.471986069705999,15.539620643557564,0.04637324672693162,0.027129972168534522,564.0,19.273799999999998,0.034173404255319145,26.5,1.709299458136398,550.4,587.0,0.0,18.446601941747574,530.0,670.0,5.421052631578948,70.3125,,,0.03425076654928513,0.017949458717569984,0.007188155184371443,0.05938838045122656,1.9081782402584915,0.5767250477122203,0.3022385621765052,-4.020195319512549,10.988171134126015,35.690888153491116,0.30787048747205814,1232.0622260945727,3.2481190652961125,3.7976027526660485,463.7130170748227,0.5145631067961165,0.5151515151515151,0.803921568627451,0.058823529411764705,52.088258471237204,52.05651397669997,52.11714768008399,46.464646464646464,0.5064094688127124,0.4935905311872874,7.823865495209431,7.724206518253746,0.5662283951201523,0.4337716048798476,26.856732752360838,23.506497039186442,0.5610440506904769,0.43895594930952314,19.78000209073371,17.495981958580014,1.4595021030241238,1.425872528248575,1.6286393105283254,2.1724383671484113,-1.7640911901459404,-2.812484188455362,-0.11862014601821104,0.0019737713061378837,0.1853721714336647,0.7495410413254704,1.2685113254635072,5.641367124350746,1.0772885186849352,1.213262542369384,1.2009630381278258,1.3006942162443489,1.6568356076751634,1.6187490606215955,2.104664262794866,0.9737622126965852,Stress
104.65194639194671,573.3786407766991,26.522323747325174,,,,,,,15.766370266251805,15.841285336193478,0.046256211622040924,0.02749731005831447,566.0,19.273799999999998,0.03405265017667844,26.0,1.6822086060034172,554.0,588.0,0.0,18.446601941747574,530.0,670.0,5.421052631578948,62.5,,,0.04615172942932154,0.00892512339259666,0.0028063564700941085,0.0578832092920123,5.170990629396131,0.7973249927538197,0.1541919237333701,-4.71888512591098,11.201480283933426,35.87761031287848,0.31221366713804205,1262.5506212594032,3.2029347375041732,3.808218909895374,459.6545774790259,0.5048543689320388,0.5050505050505051,0.76,0.027777777777777776,51.20999219359875,51.24643395978378,51.17223937541028,47.474747474747474,0.49370932754880686,0.506290672451193,7.872121507554553,7.971794336941655,0.5610868258956642,0.43891317410433595,26.87438560517234,23.769104318574357,0.5551003643570462,0.4448996356429537,19.801551690274138,17.727377485936337,1.441998107528907,1.562612921205318,1.5609847764138658,2.086684128401922,-1.273535732498761,-1.8414610206498123,-0.16357672789332936,0.001506445446972787,0.17897509889970703,0.80738939377615,1.4839328306838067,5.6861552607787775,1.1116547529016303,1.3208362370311213,1.260984789005973,1.4298349703665352,1.7171806874679196,1.564795397970015,2.0127039643957056,0.9737622126965852,Stress
104.59711944209792,573.6019417475728,26.67941109891312,,,,,,,16.231173105852726,16.305030172627855,0.046512065523400946,0.02829692845251148,565.0,19.273799999999998,0.0341129203539823,25.5,1.6437142851549598,554.0,589.2,0.0,19.41747572815534,530.0,670.0,5.722222222222222,70.3125,,,0.04184898593633994,0.008921958203047368,0.0024774721264320117,0.05324841626581932,4.690560635225356,0.7859198239329274,0.16755349414541104,-4.719239826993676,11.52939740251642,35.916940247984996,0.32100165890838206,1300.9356465992885,3.115248698092905,3.821225923803877,447.56080538806367,0.4854368932038835,0.48484848484848486,0.7083333333333334,0.02857142857142857,51.76651305683562,51.73610738475427,51.79446550051742,45.45454545454545,0.4820631140220302,0.5179368859779696,8.00804051383902,8.300662027754768,0.5673348941052854,0.43266510589471424,27.05322721369237,23.625187705109546,0.5593635442871261,0.4406364557128739,19.950010219884007,17.706644010097865,1.370558108261826,1.8779890368418262,1.6996613980498383,2.309552626682739,-1.765586273101599,-2.8282163124024855,-0.17524239137277303,0.006199221411469506,0.41494292539718214,0.7812406393726774,1.6222586008631614,5.556368216562752,1.1273852301354497,1.4888730439091424,1.3034154319681093,1.610848120336647,1.7188998369677937,1.5840494547745667,2.1947633179455623,0.9737622126965852,Stress
104.1480925723913,576.2156862745098,28.612684112096535,,,,,,,16.160702856982525,16.241000554457873,0.049656204774795765,0.028046273716476968,571.0,25.2042,0.04414045534150613,33.0,1.7705098822316323,552.0,601.8,0.0,18.627450980392158,530.0,670.0,6.375,62.5,,,0.04318259920350356,0.009010614214608121,0.0020842552175289212,0.054277468635640605,4.792414609594026,0.7955897776549635,0.16601021457163934,-4.709352039362615,11.48412162531164,38.95219334436295,0.294826058285973,1405.3340639286062,3.3918304433932636,3.854749683224664,528.4769408894027,0.45098039215686275,0.44897959183673475,0.6363636363636364,0.0,50.394944707740905,50.41008559517408,50.37910601286627,46.93877551020408,0.45841231329137927,0.5415876867086207,7.775602870517501,8.451627062288065,0.5592120982329499,0.4407879017670499,29.12863921953925,25.861085506114264,0.551150747909922,0.4488492520900781,21.31827411848905,19.23831780009044,1.4808956266571145,1.9898807991269707,1.7002740116447055,2.431851506906738,-1.5773645644745393,-2.4926285945383198,-0.13235109581287458,0.003750783489741114,0.3751164653613347,0.755428487660958,1.6582280766035324,5.722485606779524,1.0544955384680643,1.2523308456195934,1.3529890394789958,1.6425885953528365,1.7046962993380568,1.4994935650337102,2.0988403142982275,0.7849912167025288,Stress
103.24131827175452,581.3960396039604,30.000693061301362,,,,,,,17.461385970191483,17.54930716063121,0.051601130757164174,0.030033548185305764,577.0,31.1346,0.053959445407279025,42.0,1.718116369027972,556.0,608.0,0.0,22.772277227722775,530.0,670.0,8.416666666666666,109.375,,,0.040660057457862255,0.007475456380182518,0.0018426776250503145,0.04997819146309508,5.439140487215245,0.8135559984775854,0.14957436756595222,-4.8961301073641,12.409234098407962,40.56283316465251,0.3059262169394441,1581.3322623105873,3.268762023746212,3.9059932414545155,530.360994496678,0.48514851485148514,0.4791666666666667,0.6739130434782609,0.0,50.14492753623189,50.15632584727123,50.133607322564465,47.91666666666667,0.46139717940308295,0.5386028205969169,8.429146163788182,9.10710678203533,0.5453023838319346,0.4546976161680653,29.953458848181405,27.35203351441602,0.538121638766322,0.461878361233678,22.00295664246287,20.384714019494254,1.5017635036202046,2.190128185266391,1.7011006792047896,2.5968275962534,-1.6816242063586664,-2.668381402258234,-0.09101621399404028,0.007082099544704438,0.5417637252792921,0.8821595325170075,1.9390841839849136,5.758272344241089,1.086778903510114,1.1768029275689562,1.1118775546118629,1.4992853811564804,1.793231357162768,1.4833374609066947,2.1211015708745036,0.7910746316140745,Stress
103.3223854163687,581.0392156862745,32.44459758187869,,,,,,,16.854355725766947,16.896979635191585,0.055838911911578755,0.02900726021712666,574.5,33.3585,0.05806527415143603,48.5,1.9249977934355196,553.2,609.8,0.0,19.607843137254903,531.0,670.0,8.5,109.375,,,0.04115372972999107,0.009852907930571983,0.0024483749256122905,0.05345501258617534,4.176810543646479,0.7698759711944084,0.18432149678550755,-4.61998864598953,11.947968881614965,43.70685312283406,0.27336602907640833,1640.5651966568723,3.6580990087853626,3.9219636040472805,639.5359843430668,0.49019607843137253,0.4845360824742268,0.7021276595744681,0.03225806451612903,54.358974358974365,54.333841234721866,54.38635618753701,44.329896907216494,0.5104736677006727,0.4895263322993273,8.557452892070163,8.380035799446205,0.5801174216888985,0.41988257831110115,33.289516895028704,28.32131838026946,0.5752527722095984,0.4247472277904016,24.30454623218053,20.884468808142916,1.514156791454039,1.4615174035093794,1.6920071667669605,2.086155190470187,-0.8980788857840292,-1.5233879116571156,-0.23031588761324184,0.0007624226348507197,0.142870780859207,0.907570719443271,2.3025850929940455,5.778714405735501,1.012780352185605,1.2049402508377078,1.3261337641161086,1.7858943752133805,1.8485062629654607,1.4623499678493306,1.9801564891964611,0.7195752819773181,Stress
104.08918354195391,576.5098039215686,28.202501503417768,,,,,,,16.380681691348116,16.453932088960343,0.04891937884070152,0.02841353534653268,571.0,27.428099999999997,0.04803520140105078,39.75,1.7216927863456168,551.4,603.6,0.0,18.627450980392158,536.0,649.0,7.285714285714286,85.9375,,,0.03610387452161181,0.0070903500460724736,0.0016084069501817125,0.044802631517865996,5.091973497360779,0.8058427216984928,0.15825744617802298,-4.949020567855371,11.634686957286792,38.165649892058276,0.30484708082248074,1395.009731991531,3.2803331995241325,3.8515473473459427,500.7841936893335,0.49019607843137253,0.4845360824742268,0.7021276595744681,0.06666666666666667,48.04138950480414,48.04683814006455,48.038679845604,47.42268041237113,0.44308328105973954,0.5569167189402605,7.748548251124206,8.687059341342154,0.538300897446423,0.46169910255357716,28.001752583197618,25.932965197843334,0.5301969553662886,0.46980304463371125,20.54431974695943,19.338868683981406,1.472017282835735,1.0678128359797685,1.5098702557979786,2.005923700825619,-0.8717642117995599,-1.864284897736361,-0.035449070929655734,0.0006508464263244091,0.09057477966758735,0.7636168598177813,1.9459101490553135,5.688076047913574,1.0895164023968267,1.1843736287715745,1.4751407691147178,1.6141560867636853,1.9539731348564664,1.5087606500554527,2.7443071211257783,0.7849912167025288,Stress
104.02148583475523,577.0097087378641,28.60875196736168,,,,,,,16.701238653136468,16.775589521834586,0.04958105822853434,0.028944467311769015,572.0,28.1694,0.049247202797202794,41.5,1.712971867627854,551.8,603.2,0.0,21.35922330097087,536.0,649.0,7.357142857142857,85.9375,,,0.03543335602175706,0.006624066931666412,0.0024109125729584163,0.044468335526381894,5.3491844794574135,0.7968221792501179,0.14896143184258667,-5.01704575753199,11.862133109291229,38.58939214573665,0.30739362425022687,1438.071910763907,3.253157909306448,3.8647507134405754,502.14954509692535,0.5048543689320388,0.5,0.7346938775510204,0.06666666666666667,51.84155663655316,51.78599274448013,51.89609873443168,44.89795918367347,0.4927770552880391,0.507222944711961,8.331022781991381,8.452253785790269,0.5476552302107025,0.45234476978929733,28.557590219278747,25.953905814832492,0.5429132308280178,0.45708676917198227,21.034993460021617,19.300852586150203,1.5022405973915913,0.9392771660784023,1.5022405973915913,1.9334876479219854,-0.9851416420930352,-1.8648060953448349,-0.04087348643755121,0.00043004713534426224,0.05971880696011427,0.7388766802111797,1.7147984280919266,5.763601012368056,1.1064925410519204,1.4354172285367603,1.384993404129722,1.603447076193975,1.9790416787554688,1.5118313679332696,2.725262053194493,0.7790097701572681,Stress
104.2944890672534,575.1666666666666,29.549784584272313,,,,,,,17.269557717624856,17.351993636706904,0.05137603810652967,0.030025310433424848,569.5,29.651999999999997,0.0520667251975417,41.0,1.7110909883994643,549.0,601.8,0.0,23.52941176470588,528.0,649.0,6.8,93.75,,,0.037863216411908054,0.005932540452590316,0.003597984369070943,0.04739374123356931,6.382293844347222,0.7989075229429087,0.125175609651771,-5.127302750867605,12.26971236762127,39.57467311899426,0.31003951266327195,1525.4626930824481,3.2253953420642905,3.8903717009067527,510.57586536688393,0.5098039215686274,0.5,0.7083333333333334,0.06896551724137931,48.753462603878106,48.840162077189696,48.66321749309535,43.75,0.43556204767279727,0.5644379523272027,8.099382692526634,9.220086767487603,0.5548954166495094,0.44510458335049097,29.479689515196075,26.402701728476313,0.5444264233435425,0.4555735766564572,21.61772529560362,19.775144229093325,1.4263302265362023,1.0688617656196322,1.5450514329763467,1.8978241904770676,-0.6110851990316934,-1.4858584519703308,-0.16995474171890299,0.00040520606463520433,0.07877546874026481,0.7044942683208273,1.945910149055313,5.695476905777921,1.0918775781222498,1.4435350887694791,1.2927807282942032,1.6953670868875546,1.8864304141359933,1.512128605699662,2.261838811767351,0.6541593472521074,Stress
104.72103033980284,572.9320388349514,29.343891416263407,,,,,,,17.313714387223584,17.398813045692272,0.05121705442749155,0.030219490644005104,567.0,29.651999999999997,0.05229629629629629,38.5,1.6948351324264264,547.4,598.0,0.0,25.24271844660194,519.0,649.0,7.357142857142857,101.5625,,,0.03517212014298988,0.005594462670887251,0.004503131799531906,0.045269714613409034,6.286952333424324,0.7769459216465169,0.12358069227213889,-5.185977979205065,12.302818689205974,39.595440065808674,0.31071301818488095,1530.381371088475,3.218403933770739,3.891769780465923,509.73648026872866,0.5145631067961165,0.5051546391752577,0.7346938775510204,0.06666666666666667,49.59016393442622,49.61239844210725,49.56786441324857,42.2680412371134,0.445316588173731,0.554683411826269,8.210112093879072,9.162990562016528,0.5823493370595492,0.4176506629404507,30.215999651170687,25.588908516884814,0.5702840945399074,0.42971590546009253,22.140602696331534,19.219165371122443,1.3883317538553055,1.1210264919345316,1.5775167770888405,1.9488449998225712,-1.3314837201136545,-2.3717783102831214,-0.16876052849300863,0.00109185086605589,0.1104211217459427,0.7024906253817327,1.9568392195875037,5.78777795407362,1.1253260504503726,1.3390465511499041,1.0887348493287752,1.6338842984834263,1.9166439618000728,1.5482006696887936,2.5041752291802517,0.5842573276179511,Stress
105.35587815004092,569.5480769230769,27.380057872133946,,,,,,,17.217906686923694,17.301483426704067,0.048073304048451546,0.030230822268668887,565.5,25.2042,0.04456976127320955,34.5,1.5902082854780482,547.0,589.0,0.0,26.923076923076923,519.0,643.0,6.117647058823529,70.3125,,,0.04802636779898911,0.0068263990113888945,0.007556952202583607,0.06240971901296161,7.035388309248231,0.7695334726473406,0.10938038368625162,-4.986957975563646,12.23399625560911,36.739856517409734,0.3329897668438592,1412.06819698362,3.0030952887177027,3.856825781789796,441.3331600623903,0.49038461538461536,0.48484848484848486,0.6666666666666666,0.03225806451612903,50.50505050505052,50.5331910004696,50.47725441064826,42.42424242424242,0.4494514491567055,0.5505485508432946,8.202103986412363,9.077822577308835,0.5877667885881067,0.4122332114118932,28.166960019271393,23.588968188384634,0.5739600186416995,0.42603998135830046,20.744302187964227,17.87241286085514,1.426154035472889,0.41536320100996615,1.481125748030928,1.4851539646856575,0.6335842153564819,0.05432835503736477,-0.49030194142154404,9.497477538460187e-06,0.0073002294372748145,0.7512447174425718,1.7824570765657413,5.769728299684639,1.161956070454668,1.484570623588815,1.0068726529348806,1.226553452679981,1.8459868280116634,1.5436592799472775,2.3122915905966877,0.7087003548033847,Stress
105.92091900086066,566.2211538461538,22.404037747548482,,,,,,,16.999714446488092,17.08274283592658,0.03956764524844265,0.030023100216257606,564.0,20.7564,0.03680212765957447,27.25,1.3179067106140039,548.0,582.2,0.0,25.961538461538463,519.0,621.0,6.117647058823529,93.75,,,0.04572529681951448,0.006437910451131162,0.01007149475275069,0.062234702023396336,7.1025058777387,0.7347234795520455,0.10344567004933858,-5.045551255625811,12.079323300549598,28.742727665964512,0.4202566799132721,1090.7380357528991,2.3794981681346954,3.744690567893861,273.57307131342793,0.5,0.494949494949495,0.673469387755102,0.0,50.21008403361344,50.19766013297693,50.22327794973837,42.42424242424242,0.44691930390378287,0.5530806960962171,8.075319455831174,8.983372439799926,0.646215679089612,0.353784320910388,23.10557206363584,17.09610871783205,0.6163000352741936,0.38369996472580625,17.307198570271193,13.656095959023023,1.1896299993631307,0.9531053539040912,1.2183670484337537,1.6420782806757834,-0.18776006366655373,-1.1395512723877679,-0.05544134705944916,0.0006605419184579729,0.08028290563434066,0.6556769529396962,1.6817585740137264,5.678288155412264,1.268527050303838,1.1677403614567265,0.8225373082048272,1.4455254625433664,1.8650712967389382,1.6524687343719264,2.47779090521455,0.8375549647676365,Stress
105.48282389865551,568.8461538461538,25.112472911744316,,,,,,,16.893153665810864,16.975660339876956,0.0441463350713558,0.029697227539626943,566.5,20.0151,0.03533115622241836,26.25,1.4865473557236435,548.0,588.4,0.0,27.884615384615387,519.0,647.0,5.777777777777778,54.6875,,,0.05144874265958225,0.007685562043381012,0.006197780135630601,0.06533208483859386,6.694206925815025,0.7874958037339372,0.11763840174959321,-4.868411769547927,12.003604541446526,33.605757610907744,0.35718892817195114,1267.2877663753354,2.7996388497198854,3.8098453524368425,376.33593832706816,0.5,0.5,0.66,0.0,50.21008403361344,50.21306243833313,50.20666360628682,43.0,0.45216710893379614,0.5478328910662038,8.07167645438751,8.88460885519469,0.5937102294211531,0.40628977057884674,25.89410808613371,21.42060015561442,0.5776947315214546,0.4223052684785454,19.178852864036067,16.397841100835688,1.409435835816562,0.46401865170048495,1.4958756987343005,1.6414451616668044,0.38758639765679703,-0.6102570813706383,-0.1862853197839422,0.00024555554397685814,0.02199976121961521,0.7802404638793452,1.5218398531161146,5.742278751874317,1.2084212745307572,1.0076590456838814,1.1987803514607267,1.3567261388021516,1.7706984255645526,1.55832741489506,2.6442982892101794,0.9664095747318882,Stress
105.60407863885169,568.1634615384615,23.199895621175923,,,,,,,15.890706815834093,15.968266408001478,0.04083313551764789,0.027968547595098,566.5,18.5325,0.03271403353927626,25.25,1.459966248830334,548.0,584.8,0.0,24.03846153846154,519.0,647.0,4.9523809523809526,70.3125,,,0.05258690367854424,0.008445150394559706,0.0048879865687681745,0.06592004064187211,6.226875925432929,0.7977377314470476,0.12811203258262838,-4.774162920170502,11.291269460891197,30.963281865948037,0.3646664300565892,1098.3471582785817,2.7422321266172465,3.7477097406908038,339.63402511323164,0.5,0.5,0.7,0.0,49.73977695167286,49.742509027887415,49.737531929740655,45.0,0.4631089238340573,0.5368910761659426,7.684017025427443,8.273510765821053,0.5554662386379269,0.44453376136207307,23.076812427763457,20.644261965107123,0.5446257958623737,0.4553742041376264,17.198595719901622,15.72635578378102,1.3450962360131546,1.0738112819799772,1.4157394225082327,1.8820018770031433,-0.950217452221132,-1.9724304242682689,-0.06578733868843381,0.00120285993776883,0.10783341584210447,0.6445561988987722,1.4939250253122562,5.720503150850371,1.2109042582942888,1.1495094941797765,0.7165295923951381,1.109785166539295,1.8343457373319452,1.5924170165981635,2.760287157331589,0.9664095747318882,Stress
105.53043497673771,568.5961538461538,22.824156522987007,,,,,,,15.917566775070709,15.986400797872156,0.0401412432507635,0.027994503071115666,567.0,17.7912,0.031377777777777775,27.0,1.4338973315150811,551.8,584.8,0.0,23.076923076923077,519.0,647.0,4.333333333333333,54.6875,,,0.05526590923126371,0.010603787357502443,0.007075670730574143,0.0729453673193403,5.211902820001545,0.7576342578318999,0.14536615205570452,-4.546544043802213,11.304092410941434,30.008877739668392,0.37669160803033575,1065.7008840812093,2.6546914735606957,3.7346054360203067,318.65724746649215,0.4807692307692308,0.4851485148514852,0.6938775510204082,0.0,47.97942689199118,47.89414004441057,48.06277236852277,48.51485148514851,0.4467563321454573,0.5532436678545426,7.559891585486772,8.412758751082878,0.48933383979418477,0.5106661602058153,20.99193047548722,21.444616996035997,0.4840377714553028,0.515962228544697,15.776772576671105,16.288740097235845,1.2921788223274322,1.1814804840092568,1.5171938381646495,1.8478695892292423,-1.3709814965523766,-2.3709814965523766,-0.22011746656832465,0.0017611352797847334,0.13697992128363584,0.6473624045627195,1.5436865348713198,5.650838607601943,1.232601741091845,1.1888778242131486,1.02381974181955,1.3711737838553437,1.8234836779209174,1.6554681752155445,2.7336758456918813,0.9019822697497624,Stress
105.48087474234752,568.7307692307693,22.501879433578782,,,,,,,15.384079527635748,15.44708425415856,0.039565081847098685,0.02704984565622029,568.0,20.0151,0.035237852112676056,27.0,1.46267310911626,550.0,584.0,0.0,21.153846153846153,520.0,647.0,4.7272727272727275,70.3125,,,0.05613413087039286,0.017697149668510083,0.010979471525238491,0.08481075206414145,3.1719306171816295,0.6618751691759464,0.20866634521912883,-4.034351688047387,10.922738025675459,29.700569590491348,0.367761904107468,1019.1689134749848,2.7191505939880556,3.71521627837519,323.04128577507254,0.4807692307692308,0.49019607843137253,0.74,0.027777777777777776,47.622641509433954,47.652000452187515,47.594299427781564,49.01960784313725,0.4530910284284367,0.5469089715715633,7.358135420250506,8.084116598396548,0.4714814967523972,0.5285185032476029,20.39375065001785,21.592099676143484,0.4692874779044452,0.5307125220955548,15.330479810460085,16.30294006615043,1.2442515858713943,1.2460368785236096,1.3112843504304332,1.867270025133199,-1.2692000228980262,-2.2972908216791357,-0.05379677416808401,0.001526000977513293,0.14177492793392923,0.6630708182133143,1.957744606702316,5.674783078714185,1.2125637067190687,1.0269487701808981,1.2189421967984484,1.327493897461506,1.9253453383673633,1.6373212975829672,2.396202405278736,0.9664095747318882,Stress
105.44452092408405,569.0,24.045264757984125,,,,,,,15.685934581315848,15.761766278660225,0.04225881328292465,0.0275675475945797,568.0,22.238999999999997,0.0391531690140845,28.75,1.5329188473491029,549.8,587.0,0.0,21.153846153846153,520.0,647.0,5.2,46.875,,,0.05302747537872705,0.0144168644405692,0.006623480094370175,0.07406781991366643,3.6781559261601435,0.715931364532343,0.19464410397624127,-4.23935661594547,11.145251819118098,32.25846857763555,0.345498478710951,1129.4928973373649,2.894368750134539,3.759853614224912,373.47161351322126,0.4807692307692308,0.49019607843137253,0.76,0.02702702702702703,50.62179956108267,50.61416804190729,50.62852716883343,47.05882352941176,0.4981257151876256,0.5018742848123741,7.866533731013708,7.896077457553608,0.5101209313781109,0.4898790686218893,23.03988558332145,22.578141360212904,0.5088416385557081,0.4911583614442918,17.215090482389574,16.913315856115307,1.472768717164974,0.465910638426124,1.5893011409825497,1.512618119075104,-0.2508770185235356,-1.2146231647767105,-0.6645874027828295,0.0008480990062578924,0.037232321489992885,0.6520968824292162,2.054123733695546,5.733811593016277,1.1748200492165082,1.1079493635439046,1.3144234452222494,1.588709103225928,1.9312209839680499,1.599009379860913,2.616917878343641,0.8375549647676365,Stress
105.72369018848428,567.3942307692307,27.89140462274576,,,,,,,16.795746109614804,16.874989688428858,0.049157011316334105,0.029601545448998283,567.0,25.2042,0.044451851851851854,36.75,1.6606231387826942,543.0,585.8,0.0,22.115384615384613,519.0,676.0,6.933333333333334,85.9375,,,0.054433156118382384,0.022658737612030588,0.013337802842643973,0.09042969657305695,2.402303122548242,0.601938944629838,0.2505674404616065,-3.7872097349063067,11.93241964114111,35.41013136644003,0.33697755926570966,1327.412579225798,2.967556659200239,3.8299760388791344,420.3262845585374,0.47115384615384615,0.48039215686274506,0.7142857142857143,0.029411764705882353,51.09439124487004,50.941907771218965,51.26866840978212,50.0,0.5384430066079297,0.46155699339207057,8.757349854298859,8.108032811874368,0.5342477353324574,0.46575226466754244,25.88206257516718,24.166014157151984,0.5346756766705615,0.46532432332943857,19.320615150862277,18.02410103614188,1.360256154977857,1.8563650674987988,1.360256154977857,2.1628314436508025,-2.041524075979803,-2.6275845278009164,-0.06766300835734461,0.0036163971771967507,0.2941120722867228,0.6818699027450159,1.4816045409242156,5.861168443957013,1.0813669812087259,0.9965531977070979,1.1413469976332749,1.5103151246181266,1.8577724740222936,1.6039628068852911,2.1304376715914093,0.7731276597855106,Stress
105.3342908031288,569.6538461538462,29.57917439481728,,,,,,,17.30508651863595,17.3896400535405,0.05192482170449323,0.03037824923938523,569.5,23.7216,0.04165338015803336,31.5,1.7092763080359807,544.6,585.8,0.0,21.153846153846153,519.0,675.0,6.5,78.125,,,0.03965641434944518,0.00627070668302551,0.0034081547606879528,0.04933527579315865,6.32407419992919,0.8038145872682921,0.12710391463738555,-5.071866222071938,12.296332404251682,40.18044560034993,0.30602777596236,1552.1733276219381,3.267677245489623,3.897910326256839,525.1869112075883,0.5,0.5098039215686275,0.7692307692307693,0.02857142857142857,50.171350239890344,50.16960709726524,50.17264292257732,51.9607843137255,0.5018641595072134,0.4981358404927864,8.711047752203891,8.678630505499147,0.5238087912187961,0.4761912087812039,29.08045117996448,27.727162996101548,0.5219295887896309,0.4780704112103688,21.465728426627805,20.544028271779652,1.4518954735218494,1.040550210351726,1.4518954735218494,1.7063805614795693,-0.8954280457999957,-1.075140709481886,-0.25543218825384795,0.0009771877312666972,0.06398342229410156,0.6905514911707353,1.5533484457830569,5.858623612163835,1.0472656052743055,1.0492674444350556,1.2079114890199738,1.5535952810110836,1.823498737963966,1.507531577601977,2.3714421182804153,0.8375549647676365,Stress
105.7523205845502,567.3942307692307,29.91782216167622,,,,,,,17.26295770538363,17.34131228441692,0.05272845675768657,0.030424979263500445,564.5,26.686799999999998,0.04727511071744907,35.75,1.7330646736362008,543.0,584.4,0.0,24.03846153846154,519.0,675.0,7.428571428571429,78.125,,,0.04440110149041793,0.007704658109749687,0.0020277617745689406,0.05413352137473655,5.7628905602224645,0.8202145429087009,0.14232693373879343,-4.865930183712433,12.262159510984782,40.56686423689719,0.30227033175100226,1562.7455562158668,3.3082968950580254,3.9008583825894734,536.8289239886697,0.5,0.504950495049505,0.7450980392156863,0.03125,48.34390415785765,48.353655607327255,48.33823946564603,53.46534653465347,0.49591138621925396,0.504088613780746,8.638150673542546,8.70907797735709,0.5282126021867083,0.471787397813292,29.483281422209718,27.86407347452328,0.5255066688975186,0.47449333110248143,21.72419768921329,20.642851423789764,1.4897210225737185,1.4569728529787316,1.6255634978994333,2.0632364984615235,-0.6969659432855551,-1.2401591995392334,-0.19960112869139426,0.0018933899853164496,0.17711848294304033,0.6679015342525898,1.5505974124111668,5.96203599199233,1.0260736032753504,0.8635251407865805,1.2343752421701009,1.5891328746420956,1.8237787036137354,1.4864866150624114,2.6732701285448837,0.9019822697497624,Stress
105.27396005145788,569.9417475728155,29.633653776268197,,,,,,,18.073379839518932,18.146366666084017,0.05199417993587531,0.03171092469798395,570.0,28.1694,0.04942,34.0,1.6396298887865886,544.4,590.0,0.0,26.21359223300971,519.0,675.0,7.357142857142857,31.25,,,0.04852421180399592,0.008543527208621067,0.0021661281614627015,0.05923386717407969,5.6796461951957395,0.8191970931323856,0.14423382460430767,-4.762581334365026,12.83141892348553,39.732059793348846,0.3229487469369386,1601.642694839418,3.096466573983232,3.9115357471986982,492.11598026243126,0.5048543689320388,0.51,0.7450980392156863,0.03225806451612903,52.61394101876674,52.62717391605361,52.597590190022416,49.0,0.5187286151629751,0.481271384837025,9.249832752033631,8.909612119436618,0.5486006988503158,0.45139930114968424,29.428576732613394,26.694483454731493,0.5457748306780186,0.45422516932198137,21.81284638060687,19.89945520653449,1.404443775417404,1.4541812424102791,1.404443775417404,1.9361483627989815,-0.6195195202227382,-0.9722386514868049,-0.134361541825222,0.0024451847010397544,0.1823796877652779,0.6855044444298191,1.5910887737659036,5.865827468804763,1.0695866172391497,1.096438229437912,1.1975148906897002,1.600958244351358,1.7952825063658235,1.5488103198316463,2.022364708086358,0.9088447318501461,Stress
104.81860127784476,572.3592233009708,29.988185375842974,,,,,,,18.132951264717708,18.21734012598364,0.052393993413597725,0.03168106763465683,570.0,26.686799999999998,0.04681894736842105,35.5,1.6537950683291502,547.8,592.0,0.0,27.184466019417474,519.0,675.0,7.357142857142857,85.9375,,,0.044818922757158555,0.006324274321481039,0.0016684950786708375,0.052811692157310436,7.086808775028391,0.8486553057920625,0.11975140472005505,-5.063359982732401,12.881604738264825,40.505833877852304,0.31801850511484475,1639.220659665709,3.144471104405934,3.9216075289531935,509.4776967550941,0.49514563106796117,0.5,0.72,0.03333333333333333,51.4765100671141,51.48000412022381,51.46957167472836,49.0,0.5050092432464667,0.4949907567535334,9.156775341432448,9.065493274876534,0.5389527758725661,0.46104722412743393,29.73671111480616,27.503646853003524,0.5358335687191593,0.46416643128084084,22.00134680626281,20.477228310144447,1.4414879719316145,1.8575734735305858,1.456418074675115,2.3614761125128725,-1.5668552277738623,-2.501800637550722,-0.012774029811286855,0.004575358679067749,0.3642554709445569,0.6468214802851029,1.5606477482646683,5.809764968699741,1.0701576446383647,1.2330630325717682,1.045196408318431,1.3040076684760487,1.7622807540158816,1.548143584329745,2.170711008483758,0.7790097701572681,Stress
104.73867099397611,572.9417475728155,29.28019649387568,,,,,,,18.310502718492508,18.392050480295396,0.05110501480807949,0.03195875112271412,570.0,26.686799999999998,0.04681894736842105,34.5,1.5990929874527386,548.4,592.0,0.0,29.126213592233007,519.0,675.0,7.357142857142857,93.75,,,0.054325187050010125,0.02568424226597649,0.003739986911659295,0.08374941622764591,2.1151173738138205,0.6486634713052153,0.3066796572785907,-3.661877616530716,13.00514361454217,39.294343461524065,0.33096732172854465,1605.4436325650313,3.0214463312489435,3.9125651719691326,474.9029995626312,0.5048543689320388,0.5148514851485149,0.6923076923076923,0.03333333333333333,51.90538764783179,51.88573190324246,51.92182617074646,47.524752475247524,0.5104976899233873,0.48950231007661266,9.296544657788582,9.103366801832873,0.5467655397122935,0.4532344602877066,29.055650600532175,26.454009077113675,0.5431818783052514,0.4568181216947484,21.571469286936196,19.78238968604053,1.4056565816081377,1.7236271263839895,1.466136464214486,2.267470144800132,-1.361211220664023,-2.383802569864928,-0.03508872753310027,0.004903233572241583,0.33983179659284113,0.6204672634922579,1.619909212301396,5.842870886507673,1.0947900745633912,1.2150740657595893,1.08893330415599,1.7653527335085144,1.7994734067885574,1.594521852458694,2.201096276209472,0.8439272510037072,Stress
104.90786747830612,571.8834951456311,25.099918354243346,,,,,,,17.497338733221635,17.566944921443636,0.04388991563369321,0.03059598481464465,571.0,23.7216,0.041543957968476354,32.0,1.4344991965313523,550.4,590.0,0.0,28.155339805825243,519.0,650.0,7.357142857142857,93.75,,,0.051850127622028314,0.020222930073692507,0.007450246568926828,0.07952330426464765,2.5639275531827517,0.6520117354464414,0.2543019340141111,-3.9009381662100395,12.421705878683378,32.51427713823241,0.3820385065266337,1268.8351980243615,2.617537193021891,3.8103753276148025,340.4293188541788,0.49514563106796117,0.504950495049505,0.6862745098039216,0.03225806451612903,47.33606557377048,47.49925077490752,47.1636507979718,47.524752475247524,0.4324004098885616,0.5675995901114385,8.17597300958518,9.3673648777271,0.4991360337157575,0.5008639662842425,22.971193755968745,23.010920782261728,0.4906221147325332,0.5093778852674666,17.241262674579882,17.567726090760864,1.1446509714057682,1.9689561717959942,1.383336640287223,1.8314929236211526,-1.09783487629206,-1.3031415710614445,-0.27238889836479124,0.001916110873820595,0.2700520110990786,0.7347673349474269,1.6999519199749322,5.834321522223827,1.2028563281865137,0.8511750030533394,1.2939098217662373,1.9950834220590727,1.8319327481491168,1.651863818144649,2.0915720164886475,0.9737622126965852,Stress
105.47146943448111,568.9423076923077,25.166562391077928,,,,,,,17.757536346221528,17.8443681155637,0.04423394437505669,0.031211488592310946,568.5,28.9107,0.050854353562005274,38.5,1.4172327681273704,544.0,590.0,0.0,31.73076923076923,516.0,637.0,6.933333333333334,93.75,,,0.04320855242315046,0.013179774134175004,0.006288476071407478,0.06267680262873294,3.278398550936558,0.6893866727551025,0.2102815329021426,-4.329071887067135,12.617873700504106,33.452404881371834,0.3771888372524883,1326.0606663267733,2.6511919262621366,3.829533503146885,354.7549829421804,0.5,0.5098039215686275,0.6923076923076923,0.030303030303030304,50.03223726627981,50.03363804513937,50.03075821541205,42.15686274509804,0.4687336432771945,0.5312663567228054,8.638718132940335,9.196919774214262,0.5818105247178385,0.41818947528216155,25.51632535248887,21.6328577135145,0.567726645601277,0.432273354398723,19.048757314775923,16.621730749029975,1.352699634261917,1.2229415520674771,1.4849881438577683,1.8943199694836064,-0.8935983779300614,-1.7535268104453423,-0.16528913427315395,0.0004916468278992546,0.10121203258668261,0.7387893730345123,1.7619065060783743,5.856454742075541,1.2154170720692425,1.1931413153018013,1.13685408429327,1.852845661057051,1.873546864220561,1.617693568893151,3.274944955207738,0.9664095747318882,Stress
105.1323094690574,570.8058252427185,25.992102213914375,,,,,,,18.142140306533868,18.230666806011442,0.04553580405887062,0.03178338325264893,570.0,28.1694,0.04942,38.5,1.4326921617155255,545.4,592.0,0.0,29.126213592233007,516.0,637.0,6.866666666666666,46.875,,,0.05017716270409545,0.011574686163711816,0.004170907659779192,0.06592275652758646,4.3350775990287795,0.7611508581728981,0.17557952326930076,-4.458934792663647,12.891028124083185,34.55493714129245,0.3730589371751068,1399.4182582727813,2.680541599062721,3.852917645834461,370.5037858409275,0.49514563106796117,0.5098039215686275,0.6923076923076923,0.029411764705882353,50.62972292191434,50.64482924854248,50.61379731545911,42.15686274509804,0.47789824854045027,0.5221017514595497,8.912112127563107,9.315163832575506,0.5821838535806778,0.41781614641932224,26.365753383021598,22.335861957496896,0.5694419555463991,0.43055804445360113,19.679668366471173,17.112320219831087,1.3505962425360414,1.3757582407111362,1.4777063550397571,1.9981552480437796,-1.364652652155975,-2.287134649306671,-0.12170032669766169,0.0006531316925914512,0.13038778341911367,0.6627551119791693,1.4939250253122562,5.853989789689486,1.2204939781950181,1.2593605194855357,1.3044896657955765,1.7575149249224051,1.8247969878943995,1.5724011822161328,2.687921444473225,0.9088447318501461,Stress
105.39505641923633,569.25,26.816438227760617,,,,,,,18.676344000974026,18.76253562806384,0.04710836754986494,0.03280868511370053,568.5,30.3933,0.0534622691292876,40.5,1.4358505190503057,543.6,592.6,0.9615384615384616,26.923076923076923,516.0,637.0,7.428571428571429,46.875,,,0.0449703918968584,0.007525791135492051,0.00454553035046759,0.05704171338281804,5.975503583241305,0.788377298470215,0.13193487167864335,-4.889419339588761,13.26711617485814,35.57248748120673,0.3729600349671155,1482.656821313297,2.6812524298700575,3.878010749960349,381.5152739820309,0.5,0.5098039215686275,0.7115384615384616,0.02857142857142857,48.59287054409005,48.576013466168305,48.611557563748846,44.11764705882353,0.4277284493556378,0.572271550644362,8.679195318262462,10.039139092845073,0.589370612653925,0.41062938734607507,27.30916829166444,22.79498174638792,0.5696224638035642,0.43037753619643576,20.26226917394742,17.612431781892706,1.3480420726104712,1.062817907877485,1.5129852067923375,1.6015849892068315,0.12448565618333518,-0.17871884749801303,-0.4166369123461296,0.00023862142404120284,0.06438950813716711,0.648182389836983,1.5553706911638245,5.816656997004218,1.1981753689898536,1.0345051624227255,1.3862120904447441,1.831388762365901,1.9335251407067822,1.550186054777863,3.1070077480577707,0.8375549647676365,Stress
105.92101806389124,566.6153846153846,27.06637210413987,,,,,,,19.14811963188274,19.232548439418682,0.047768509008120866,0.03379385761803905,566.0,32.6172,0.05762756183745583,44.25,1.413526373580452,538.6,591.0,0.9615384615384616,28.846153846153843,516.0,637.0,7.428571428571429,46.875,,,0.03132930959333064,0.005182646011947224,0.0048150841165069715,0.041327039721784836,6.0450413786913435,0.7580825968721863,0.1254056919352799,-5.262439540014129,13.5994654210117,35.722659674770604,0.38069576971102254,1526.214221047184,2.626769403713304,3.890585605893331,375.3407578118019,0.5192307692307693,0.5247524752475248,0.7547169811320755,0.030303030303030304,48.11612106238419,48.118370589951404,48.11586731757134,43.56435643564357,0.42316960148285454,0.5768303985171456,8.850888955021277,10.333649584028393,0.6203710969966517,0.3796289030033485,28.136467028189678,22.01017122630074,0.5953877477261367,0.40461225227386344,20.85664177333593,17.193486428536932,1.4211600125984194,1.5955974179601782,1.5537955297038302,2.0314744998869614,-1.2984384639563054,-1.7912321841110215,-0.2006268844469559,0.0010321347589126917,0.163338320456168,0.6902824223995698,1.5988558031035636,5.894916280537078,1.2339158184781276,1.611626981981897,1.2264083327665252,1.4773973039695636,1.976893436865093,1.5334193474316182,2.785284418680288,0.8375549647676365,Stress
101.83656433326776,593.959595959596,266.69473182556226,,,,,,,379.6634788109822,381.6153201554146,0.44901157189773583,0.6392075848149253,567.0,32.6172,0.05752592592592592,46.0,0.7024503190583097,539.0,593.8,3.0303030303030303,26.262626262626267,516.0,3207.0,6.6,46.875,,,0.04781220899340776,0.04721631556350039,0.0003927130400683268,0.09542123759697647,1.0126204982916545,0.5010646497307927,0.4948197775732526,-3.053015777402066,269.84278068656903,266.24182720081905,1.0135251230943283,225702.807563633,0.9866553647402092,6.060507071351514,1050.7557085036956,0.5353535353535354,0.5319148936170213,0.74,0.10714285714285714,49.73946702396903,49.002001432386564,50.14894487911593,43.61702127659575,0.505621455022378,0.4943785449776222,191.87736364775384,189.7320954431198,0.4976514678725684,0.5023485321274315,187.81874308902758,188.70302142702602,0.5016899962864498,0.4983100037135502,189.85889883799825,189.21825802089734,0.8567633723049433,3.3422273622030167,1.8270482276853521,1.795751850676446,-1.0809657798592767,-0.6199930839662676,-0.5093639281883794,0.0088505182713282,0.9014210967911226,0.17394457818951792,0.138598745780123,5.867901286895225,0.20387469478195294,0.15174267515921502,0.1739493824066956,0.16597532539324475,0.11999231135707977,1.817375271565305,1.2583963948245611,0.7365951800088454,Stress
102.17120556537226,592.01,265.607384549588,,,,,,,377.7501579327027,379.6725140080829,0.44865354394281853,0.6380807046041498,565.5,35.5824,0.06292201591511937,47.5,0.7031297776370665,537.0,594.2,3.0,26.0,516.0,3207.0,9.090909090909092,15.625,,,0.05969948814923397,0.06765261968462742,0.0012693711123796963,0.1286214789462411,0.8824416323792318,0.4641486681566311,0.5259822872422704,-2.693369201026001,268.46900928525986,265.43192261905574,1.0114420550333085,223870.66312189345,0.988687384535408,6.056967295639766,1049.7167733857561,0.54,0.5319148936170213,0.78,0.0967741935483871,49.85928010665086,49.30179815413596,50.18094660414779,45.744680851063826,0.5056539605543297,0.4943460394456702,190.90659111359207,188.7599031055276,0.4966412062627912,0.5033587937372088,187.05724247983068,188.31806493560362,0.5011988512356267,0.4988011487643733,188.99171740418996,188.53911345062912,0.4824640550917473,3.2057544724693807,1.4812758095335272,1.4983932842804983,-0.9464514767822116,-0.7725554626903333,-0.4946603912139953,0.012179306659730599,0.9430955581620527,0.16851900141904613,0.1387039717129515,6.013660689688183,0.20090714340918264,0.1631741720835969,0.18400326075816983,0.17467151036948866,0.12877287094135267,1.8020049348982998,1.2598143864188502,0.9301398665684615,Stress
102.25463508386272,592.26,273.0872735773291,,,,,,,387.3322510807391,389.30337251609,0.4610935629239339,0.6539902257129286,557.5,35.5824,0.06382493273542601,47.75,0.705046566133746,530.8,588.6,5.0,23.0,508.0,3207.0,7.6923076923076925,23.4375,,,0.05958380910578531,0.06966979646956867,0.0009439232806807207,0.1301975288560347,0.855231565543774,0.45764162829595506,0.5351084393207318,-2.663988391294044,275.2790546449198,273.6423037280793,1.0059813519128495,236649.8746998692,0.9940542119379487,6.081076388817907,1088.0611383412026,0.5,0.49473684210526314,0.7659574468085106,0.06451612903225806,49.87890376035691,49.5526810360716,50.13575845805147,47.368421052631575,0.5036068093393206,0.4963931906606798,195.3525201855792,193.94836783988438,0.4971083322424952,0.5028916677575048,192.93399595175848,194.05304325286227,0.5003769479066881,0.4996230520933117,194.1470241038609,194.0007126062329,0.5355145116322314,3.195249198206156,1.50701710733947,1.5755300236960892,-1.3171539463787454,-1.2019357723003055,-0.4785578801193086,0.013185301421611348,0.918048954250824,0.21174565774697374,0.14821012225837346,5.983465189601644,0.20718487735004548,0.22572916244690905,0.21335305511896419,0.20569816634819052,0.1492122300787999,1.838018591880749,1.3117717033714844,0.9965784284662087,Stress
103.34950836042879,586.39,273.92256868751,,,,,,,387.29448769898625,389.26493927646146,0.467133765390798,0.6604725314193391,549.0,31.1346,0.056711475409836065,48.25,0.7072720562457595,528.0,583.2,5.0,22.0,495.0,3207.0,6.666666666666667,54.6875,,,0.044918868055648674,0.057942722089598137,0.0009454113426035087,0.10380700148785033,0.7752288196986952,0.43271520621762705,0.5581773990107961,-2.8483003065640142,275.2518782405555,275.22718057569057,1.0000897355588692,237997.00130133482,0.9999102724928788,6.083541595058271,1100.809940507542,0.5,0.4893617021276595,0.782608695652174,0.06896551724137931,49.592970668044956,48.82500162641583,50.060034798072614,48.93617021276596,0.5035752562087933,0.4964247437912067,195.3273547412243,193.93562207651303,0.4969271759648703,0.5030728240351298,194.01606644891638,195.21210743018338,0.500251518845138,0.499748481154862,194.6728146795469,194.57491153478335,0.3705480655905643,2.884861052105669,1.4241240919669798,1.22951287127893,-0.6359398693073519,-0.46900842857841474,-0.5674594780036294,0.022910412091111488,0.979758410813455,0.21291371980686002,0.15908733622456228,6.018562939644917,0.19824537865110473,0.2229681348795718,0.21821530976103773,0.2112261099250275,0.15678146602442758,1.82993880988836,1.3048688895846539,0.7972627427729669,Stress
104.00793990707628,581.4607843137255,264.5770647644628,,,,,,,373.9336654255857,375.798679514381,0.45502133918924964,0.6430935249862539,551.0,34.8411,0.06323248638838475,50.25,0.7075508017266627,527.2,583.8,1.9607843137254901,24.509803921568626,494.0,3207.0,8.5,132.8125,,,0.058517513710549675,0.06747556795992295,0.0013509125497208052,0.12734399422019343,0.8672400319076395,0.45952315277127004,0.5298684745450137,-2.695989702774881,265.72979464556886,266.0509372058644,0.9987929282878375,222103.25213761965,1.0012085304951366,6.053525027695686,1065.4898715069492,0.4803921568627451,0.46875,0.7555555555555555,0.0625,49.962411667418436,49.52277505112676,50.2120531590563,51.041666666666664,0.5058388177984506,0.4941611822015493,188.99326707584052,186.799009633349,0.4942372458934195,0.5057627541065803,187.03915362033445,189.2074422455621,0.5000310257062052,0.49996897429379494,188.0187490478158,188.0070825808269,1.0233117115842552,2.765776717356087,1.9005821204328697,1.5711382867958181,-0.48440644159777513,0.18289111090447308,-0.6191143997885626,0.010843949686805918,0.6770861945953927,0.19947941916945122,0.15656906069153978,5.929538699708581,0.19217447158110487,0.23643121662451666,0.24470592083405615,0.23232582479834926,0.17264431269950833,1.7929699597496114,1.2501982530425901,0.8504071514277396,Stress
107.94863726700531,556.56,71.57553331758675,,,,,,,87.40998255637082,87.85429200316071,0.12860344494319886,0.15705401494245155,544.0,31.875899999999998,0.0585954044117647,43.0,0.818848502474275,523.8,578.0,2.0,21.0,494.0,1191.0,6.666666666666667,85.9375,,,0.039852752812168955,0.021611089183343812,0.004058573333580408,0.06552241532909317,1.844088119486566,0.608230826229533,0.32982741974330254,-3.8345487079128415,62.122365631777996,80.53929683306187,0.7713298734224407,15718.304277552006,1.2964621680772392,4.903375801625419,417.66460555043085,0.44,0.43157894736842106,0.6829268292682927,0.0,49.39903846153846,49.46997518228226,49.294017719942545,48.421052631578945,0.4649766660937852,0.5350233339062148,42.36099717467299,45.43985708873761,0.5380814953765588,0.461918504623441,59.07882674894446,54.73820022920239,0.5108116527177043,0.4891883472822958,51.40409444618419,50.30432971711854,1.0662402662092925,2.207112529060175,1.6603503855038624,1.2475888911923436,-0.4430938750470048,0.38519856721309864,-0.6870142500107502,0.006850817313015476,0.3901328621441806,0.6954529668672529,0.6964860818254599,5.913660689688184,0.5407947063911184,0.643386661186758,0.8970568502393884,0.9001844794272148,0.9172563563310825,1.7032312944452557,1.4327415959151948,0.6643856189774725,Stress
110.18806097931389,544.6574074074074,28.87716882239244,,,,,,,16.133207177488785,16.20232789995113,0.05301895912854468,0.029620834965384098,540.5,25.2042,0.04663126734505088,34.5,1.789921154839302,520.8,567.2,0.0,16.666666666666664,490.0,655.0,6.0,93.75,,,0.028433373747087595,0.006720618669726014,0.0031296899380766703,0.038283682354890276,4.23076730646388,0.7427021644237307,0.17554786416379134,-5.00257506473738,11.456775929063436,39.16281254056084,0.29254221507195577,1409.5684347361287,3.4183100710919034,3.8560562757364814,535.4825460787337,0.4351851851851852,0.4326923076923077,0.7111111111111111,0.0,48.19624819624819,48.1127159385436,48.280606225884384,48.07692307692308,0.4805745062836624,0.5194254937163375,7.9455695498622445,8.260499322474628,0.5400120635750811,0.459987936424919,28.778993740303356,26.561163479461694,0.53532272505816,0.46467727494183986,21.111164773362432,19.668900000245227,1.3690114041712342,0.6233866282855649,1.4401900303985014,1.5824806692084352,0.1532252548037114,-0.6093849752280427,-0.27174576361822045,7.064909812032304e-05,0.021317675281453112,0.7160562709665212,1.5933085305042167,5.914202432538734,0.9902462721315122,1.1265650972057841,1.212963519765027,1.7316088899937263,1.74087054179374,1.5211825709347726,2.2432709431776217,0.8756335650952644,Stress
110.27899778326822,544.1203703703703,30.36190357416001,,,,,,,16.455831565842075,16.53305522298198,0.05579997593821631,0.030242998538431792,540.0,28.1694,0.052165555555555555,37.0,1.8450543476139631,518.4,569.6,0.0,17.59259259259259,491.0,655.0,7.714285714285714,109.375,,,0.028149841961091555,0.007243052147964023,0.002800810961213804,0.03819370507026938,3.8864613129983194,0.7370283115843574,0.18963994549987076,-4.927712594020736,11.690635461902225,41.52096856458614,0.2815597965571869,1524.9495180096505,3.5516434243370134,3.890225576980512,589.8706998980648,0.4444444444444444,0.44230769230769235,0.6739130434782609,0.027777777777777776,49.673202614379086,49.670103353448084,49.67744981791753,48.07692307692308,0.49677308024158745,0.5032269197584125,8.23991665097981,8.293268468269458,0.5247399235413374,0.4752600764586627,30.077347233495093,28.62418582138391,0.5226856287709643,0.4773143712290357,22.051565058055736,21.07275866876366,1.424901362031053,0.4425664449551381,1.5238424839279687,1.6461845845086223,0.2602611664129757,-0.756215838179886,-0.22356218602823594,0.00025183928812016364,0.019205262756163945,0.7345214166825138,1.3403846598158125,5.949150928009265,0.9647828944054694,1.1264337198725545,1.3294914279510077,1.56645975222316,1.8330812364632894,1.4980258222226444,2.2260823350349472,0.8130883104456026,Stress
110.0073361582237,545.4351851851852,31.001438962125537,,,,,,,16.780885877721754,16.857656058927446,0.0568379888283151,0.030766049447331377,541.0,30.3933,0.05617985212569316,40.75,1.847425647729536,518.0,570.0,0.0,17.59259259259259,491.0,655.0,7.714285714285714,117.1875,,,0.012747585530590478,0.007698159373579573,0.0032713456653469418,0.023717090569516996,1.6559264250024184,0.5374852152807749,0.3245827877165436,-4.866774021089949,11.920162914178086,42.22782295971187,0.28228220350243266,1581.360023798306,3.542554180151786,3.906000865756746,598.3774029785475,0.4444444444444444,0.44761904761904764,0.6808510638297872,0.02631578947368421,48.969438521677326,49.001257036298185,48.94020759978251,47.61904761904761,0.49985065215226837,0.5001493478477316,8.428668508737822,8.43118649185139,0.5153894924008171,0.4846105075991829,30.315621220985857,29.396464785794926,0.5142424111576839,0.4857575888423161,22.24948699233846,21.624488983128117,1.373893206171534,0.9935637289164996,1.4665559711291531,1.7984980196670608,-0.6911166902271368,-1.518765139436332,-0.16590764248218193,0.00022493088365803482,0.05897261172702783,0.7599616430423093,1.3673663512343717,5.990727085376608,0.9794078761538774,1.089474944076462,1.166803991830427,1.6736162284616092,1.8036228852283882,1.4908380618059587,2.3887113460107057,0.6879978011462792,Stress
