PPG_Rate_Mean,HRV_MeanNN,HRV_SDNN,HRV_SDANN1,HRV_SDNNI1,HRV_SDANN2,HRV_SDNNI2,HRV_SDANN5,HRV_SDNNI5,HRV_RMSSD,HRV_SDSD,HRV_CVNN,HRV_CVSD,HRV_MedianNN,HRV_MadNN,HRV_MCVNN,HRV_IQRNN,HRV_SDRMSSD,HRV_Prc20NN,HRV_Prc80NN,HRV_pNN50,HRV_pNN20,HRV_MinNN,HRV_MaxNN,HRV_HTI,HRV_TINN,HRV_ULF,HRV_VLF,HRV_LF,HRV_HF,HRV_VHF,HRV_TP,HRV_LFHF,HRV_LFn,HRV_HFn,HRV_LnHF,HRV_SD1,HRV_SD2,HRV_SD1SD2,HRV_S,HRV_CSI,HRV_CVI,HRV_CSI_Modified,HRV_PIP,HRV_IALS,HRV_PSS,HRV_PAS,HRV_GI,HRV_SI,HRV_AI,HRV_PI,HRV_C1d,HRV_C1a,HRV_SD1d,HRV_SD1a,HRV_C2d,HRV_C2a,HRV_SD2d,HRV_SD2a,HRV_Cd,HRV_Ca,HRV_SDNNd,HRV_SDNNa,HRV_DFA_alpha1,HRV_MFDFA_alpha1_Width,HRV_MFDFA_alpha1_Peak,HRV_MFDFA_alpha1_Mean,HRV_MFDFA_alpha1_Max,HRV_MFDFA_alpha1_Delta,HRV_MFDFA_alpha1_Asymmetry,HRV_MFDFA_alpha1_Fluctuation,HRV_MFDFA_alpha1_Increment,HRV_ApEn,HRV_SampEn,HRV_ShanEn,HRV_FuzzyEn,HRV_MSEn,HRV_CMSEn,HRV_RCMSEn,HRV_CD,HRV_HFD,HRV_KFD,HRV_LZC,Labels
83.43420517438929,719.3414634146342,31.599820093328756,,,,,,,19.236025872253986,19.312712502326825,0.04392881781529444,0.026741160979297237,722.0,25.2042,0.03490886426592798,38.5,1.6427416090611673,693.2,739.8,0.0,23.170731707317074,631.0,782.0,7.454545454545454,132.8125,,,0.006182812869477368,0.010606859818109417,0.0012374090805333364,0.01802708176812012,0.5829070031566989,0.3429735854646937,0.5883847399453778,-4.546254334525261,13.656149973501515,41.63785300023448,0.3279744028450413,1786.3496857194614,3.049018433528399,3.958936587869929,507.8183253210427,0.5121951219512195,0.5308641975308642,0.7906976744186046,0.0,54.290429042904286,54.5325419402249,54.061505680535824,39.50617283950617,0.4551581476044308,0.5448418523955694,9.233769544449329,10.102598675588375,0.6085657142613876,0.39143428573861255,32.48194810702266,26.0506017136231,0.5936065592122841,0.4063934407877158,23.87822703664693,19.757230950234685,1.048271390260115,1.7163864498589083,1.0963867726419707,1.8896471798479229,-1.3477025100382019,-2.314067639354909,-0.0378311176535096,0.003038469689420453,0.2871516045085157,0.6970948307183615,1.791759469228055,5.729384016760438,1.1038871632666263,0.9241962407465937,1.3026451416566114,1.5418648668249846,1.6968643633433667,1.7684446813557682,1.9009584659311236,0.7753112200753761,Relax
81.7327985254613,734.2375,25.87811927018703,,,,,,,19.38321079593094,19.482388288508496,0.035244889113109905,0.026399102192316438,733.0,28.9107,0.039441609822646655,35.5,1.335079081718471,712.0,760.8,0.0,23.75,676.0,782.0,6.666666666666667,62.5,,,0.01479397562015218,0.028907654678845943,0.003312939063383438,0.04701456936238156,0.5117667200784062,0.31466789594779304,0.6148658824465643,-3.543648851154892,13.77612887251373,33.43861093214072,0.4119826897256761,1447.1891496735893,2.4272864490152797,3.867495407695146,324.66034875791746,0.5375,0.5512820512820513,0.7674418604651163,0.047619047619047616,53.28218243819267,53.37711462047814,53.18957365104261,39.743589743589745,0.4403827364307133,0.5596172635692869,9.153603745982318,10.318641333739581,0.6246703297427072,0.37532967025729286,26.42857015498216,20.485882471454996,0.5978719630992013,0.4021280369007987,19.776978813449684,16.219521256939522,1.0195194534218992,1.990579400920307,1.3464231605740293,1.7600179269897724,-0.7197441383905794,-1.0999331364848608,-0.2922239292617389,0.002967859987696653,0.3368560493118207,0.6811583999950552,2.3978952727983707,5.618619813556231,1.2301321897714124,0.0,1.3301794340871884,1.681361501566332,1.7805268622241905,1.7391813990945493,2.2229960285143027,0.8692651130470124,Relax
81.28290647049495,738.2625,22.611604363661023,,,,,,,19.86887394642017,19.994367918448756,0.030628136148945696,0.026913020702555215,737.0,23.7216,0.03218670284938942,31.5,1.1380415631322187,720.0,760.8,0.0,27.500000000000004,677.0,782.0,6.666666666666667,101.5625,,,0.007235992881909651,0.02582013620048457,0.0023910504384119543,0.03544717952080617,0.2802461158889569,0.20413451732210156,0.7284115844909216,-3.656600618578151,14.138153140673866,28.86143012141004,0.489863221649085,1281.9184594214835,2.041386158025052,3.814830511314992,235.66929580261498,0.6125,0.6282051282051282,0.8367346938775511,0.15789473684210525,50.778050778050776,50.775925083828476,50.779819191104046,41.02564102564102,0.42152178792445577,0.5784782120755443,9.179827382322108,10.753949781240188,0.5983685231391462,0.401631476860854,22.325552581980787,18.290758610900905,0.5641399914663118,0.4358600085336882,17.068970807579756,15.003321073343754,1.0272871815827531,2.3999870221726347,1.4433392509915448,1.9155939502792982,-1.1509783208365825,-1.4296688160894844,-0.30322614458963376,0.0037829872338059037,0.4723892124864432,0.5728397345784133,2.751535313041949,5.659183719779188,1.3843852562099832,0.0,0.921846877792247,1.389374300564518,1.8067269779333714,1.7458901705209344,3.3940778809927843,1.1853615177913803,Relax
81.40779130529336,737.0506329113924,22.532539851476802,,,,,,,20.57350798403692,20.69923609601028,0.030571223801100302,0.027913289895390738,735.0,20.7564,0.028239999999999998,30.5,1.0952210905869775,718.8,758.0,0.0,31.645569620253166,677.0,782.0,6.076923076923077,78.125,,,0.011836607731239839,0.017572766627005788,0.002746193705543642,0.03215556806378927,0.6735767897269725,0.36810445107854184,0.54649218425081,-4.041404926059864,14.636570208870227,28.147417990415033,0.5199969039382006,1294.2785552606122,1.923088373077786,3.8189978654239196,216.5198890781106,0.6582278481012658,0.6753246753246753,0.8653846153846154,0.2222222222222222,48.324240062353866,48.376845263568704,48.27125076436089,45.45454545454545,0.3906709071634107,0.6093290928365894,9.151679996221828,11.429342506455484,0.554692682092338,0.44530731790766204,20.963547683652077,18.783152239237825,0.5197618311701436,0.4802381688298564,16.17441773662967,15.547293625777044,1.1161949275087337,1.8775634237660555,1.3874563540561158,1.9192059965416517,-0.8633802673565452,-1.5472883964214486,-0.21678738744338047,0.0034916646165543672,0.33603155729548484,0.6074300035401357,2.5257286443082556,5.496509387280681,1.3556220398154217,1.2070784343255752,1.1102295381255183,1.412775554206822,1.6936703272493439,1.7712300639491951,2.4005585389748223,1.1171257022086005,Relax
81.73439447079255,734.2,20.69391153657385,,,,,,,19.14865233054142,19.27090391620187,0.028185659951748637,0.026080975661320376,731.0,17.7912,0.024338166894664844,25.25,1.0806980658146785,718.6,748.4,0.0,26.25,677.0,778.0,5.333333333333333,78.125,,,0.01799679171667993,0.03350788453713973,0.00402924311626816,0.05553391937008782,0.5370912537535011,0.3240684597956456,0.6033769076127562,-3.3959745085261717,13.626586838740739,25.893710787712067,0.5262508317350665,1108.4886581947583,1.9002345263815865,3.751701363832117,196.81649301979925,0.6875,0.7012987012987013,0.8518518518518519,0.3333333333333333,50.20145044319098,50.21000898124658,50.193060311454616,46.75324675324675,0.43439085856319265,0.5656091414368073,8.981105522721377,10.248201843525576,0.5631476592221788,0.436852340777821,19.431460074823093,17.11439796540422,0.5352229272987933,0.4647770727012066,15.136741674642206,14.105464521664523,1.0774521535911987,2.0075299760056042,1.3260563017002989,1.9932575423180476,-1.52612607429913,-2.3500005166916136,-0.1676506709278216,0.002841582731223865,0.34740465017044025,0.6564709755304357,2.197224577336219,5.487003250893971,1.3411164704371654,1.0843226852081225,0.8958797346140275,1.4068823986911347,1.7402941350990524,1.7815101058743403,3.0124406718418624,0.9482892142331044,Relax
81.73776459729972,734.175,21.304171458167232,,,,,,,19.256759457658667,19.377592067295602,0.02901783833305034,0.026229113573274312,734.0,19.273799999999998,0.02625858310626703,25.25,1.1063217310789164,718.6,748.0,0.0,26.25,677.0,778.0,5.714285714285714,70.3125,,,0.0191619351495253,0.02113193524918656,0.0055259038428816624,0.04581977424159353,0.906776162408642,0.4182023038457223,0.46119684347994355,-3.8569698637966985,13.702026753851369,26.907658217619908,0.5092240522394806,1158.2720763138252,1.9637721266349664,3.77078069643673,211.3620368031291,0.7,0.7142857142857143,0.8909090909090909,0.375,50.937245313773424,50.954432435684616,50.91987683045669,48.05194805194805,0.4408602150537635,0.5591397849462367,9.098816491086163,10.246950765959598,0.5117564297232272,0.4882435702767728,19.24897269910878,18.80157229556115,0.49715527015099276,0.5028447298490072,15.055089031777538,15.140989412604656,1.1180621070906893,1.2828684799823264,1.3499047369589443,1.561106863397451,0.05559893376636449,-0.46589850302159164,-0.3353672806417254,0.0012579238444645827,0.14151215184077484,0.6213838797040032,2.251291798606495,5.424747626002145,1.3201744479163864,0.9651824277601488,1.0894236195328293,1.2666021554793832,1.7670445785469886,1.7538915387722547,2.9590712882950485,1.1063374166052884,Relax
81.73868393785686,734.1875,21.388565352732314,,,,,,,18.871987143228377,18.992559058169572,0.029132292980651828,0.025704587919609605,734.5,18.5325,0.02523144996596324,25.25,1.1333499323841438,718.6,748.4,0.0,28.749999999999996,690.0,774.0,6.153846153846154,78.125,,,0.05100675269377327,0.09568625201473256,0.006501212912212702,0.15319421762071853,0.5330624997823082,0.3329548170026682,0.6246074656135822,-2.346680647951232,13.42976730211769,26.736097134226398,0.5023084422043591,1128.0188855716433,1.9908086665068634,3.7592864807357924,212.90581553354892,0.7,0.7142857142857143,0.9272727272727272,0.4375,49.917627677100484,49.924034667509346,49.911151445497296,46.75324675324675,0.4390816036394655,0.5609183963605346,8.899005994621405,10.058164179743075,0.48112597468432605,0.518874025315674,18.54502453921169,19.258789027631643,0.47265494346094244,0.5273450565390574,14.544934562456294,15.363391902140158,1.1863883013337775,0.6260495790717355,1.2917704199608158,1.4681254242077935,0.3104789149197966,-0.6297063376038272,-0.21830505100176711,0.000291527562445417,0.03504381769512984,0.5951445761301306,1.810108607896251,5.532935401402814,1.3163870755847942,1.028173425222574,1.1735909965590876,1.2043681683501117,1.8003532480972888,1.7503897364443604,2.6484736235115047,1.0273133154191965,Relax
81.91531529238124,732.6375,20.394367396881606,,,,,,,18.580648705820632,18.699098385441808,0.027836914431600353,0.02536131266256591,735.0,18.5325,0.025214285714285713,26.0,1.0976133137102366,711.0,748.0,0.0,27.500000000000004,690.0,774.0,5.333333333333333,54.6875,,,0.045603565398407604,0.04024981428462202,0.005699656996903375,0.091553036679933,1.1330130637604223,0.4981108989080992,0.43963385316572634,-3.2126498891748674,13.222259270420322,25.499314257219652,0.5185339157376238,1059.214805952366,1.928514162043735,3.731954152769718,196.70315466980728,0.6625,0.6753246753246753,0.9038461538461539,0.3888888888888889,49.660441426146015,49.65187765794733,49.668818498767806,45.45454545454545,0.4106108381608858,0.5893891618391142,8.472807181711474,10.151101999037927,0.4826446940924976,0.5173553059075023,17.715045387601187,18.340997641995244,0.46738023234469617,0.5326197676553038,13.885447321264657,14.822905691843063,1.1836242618175492,1.540942130614643,1.3568094502627537,1.694621227755007,-0.8453506485490916,-1.1655851242855988,-0.2807758183900724,0.0007550915199594244,0.14362011759727006,0.6232749332806167,1.9136492868370918,5.443619813556232,1.3782497534751441,0.892969340860156,1.0882751734409462,1.2898977700558718,1.846174132644786,1.7801275169970083,3.0322136791729855,1.1853615177913803,Relax
81.96956489706588,732.1604938271605,20.39022853606812,,,,,,,19.34521904760967,19.466942931251623,0.027849397376638017,0.026422101725931766,735.0,17.7912,0.024205714285714285,25.0,1.0540190052067449,710.0,747.0,0.0,28.39506172839506,690.0,774.0,5.4,70.3125,,,0.055602508983480764,0.02935425876854275,0.006682749261099713,0.09163951701312323,1.8941888269741198,0.6067525320492273,0.32032315015736146,-3.5283176403880003,13.76520735565955,25.48152563592253,0.5402034223670688,1101.940276886348,1.851154506978482,3.7491281671621595,188.68096410250288,0.6666666666666666,0.6753246753246753,0.9038461538461539,0.3157894736842105,50.36794766966476,50.36486436436359,50.370943370331425,45.45454545454545,0.44276695948428474,0.5572330405157153,9.15962522034691,10.275631737024089,0.4832326513249558,0.5167673486750441,17.713466578840947,18.317785087025726,0.47409128556101826,0.5259087144389818,14.100809062194452,14.851428518654338,1.1791966190739764,0.3162101585353998,1.2916691056645488,1.2297303103402495,0.9156486458840276,0.14874959278516497,-0.6958785752209327,9.18257237054962e-05,0.008550743733172904,0.49279830488608845,1.9252908618525775,5.51121524388754,1.4072584875499372,1.0722332224995894,0.8212102201242437,1.1563667211176796,2.0078398866894442,1.7812529816008364,3.8298887676465188,1.1740462968304861,Relax
82.01598210436981,731.675,20.298266434677732,,,,,,,17.923183487570334,18.030510763789135,0.027742189407425063,0.024496099344067154,735.0,20.0151,0.027231428571428573,29.25,1.1325145696775636,710.0,749.2,0.0,25.0,690.0,772.0,5.714285714285714,70.3125,,,0.04524925876104139,0.023879122832820628,0.00472110168448912,0.07384948327835114,1.894929687234935,0.6127227538003118,0.3233485431823022,-3.7347507234263264,12.749496429332332,25.708591521641452,0.4959235677535981,1029.724837446856,2.0164397601221777,3.7196912982168557,207.35930448391102,0.6625,0.6710526315789473,0.9215686274509803,0.3,48.191681735985526,48.21148453424382,48.17223397921868,48.68421052631579,0.44018441169516914,0.5598155883048308,8.462208598171896,9.543087174521293,0.4530673751421795,0.5469326248578206,17.304524856575355,19.012761438433404,0.4505227351768054,0.5494772648231946,13.620858175438299,15.042533203142565,1.255332782242312,0.522281602966741,1.33587574855484,1.3532578095486096,0.5820408393515422,-0.0017269712545600058,-0.46671898666345235,3.515050067805393e-05,0.01405565193657307,0.48101850772656496,1.652923024373839,5.414063213848729,1.363060404217601,0.0,0.8423534010059989,1.0430155350603216,2.0970492395360347,1.744264361138798,2.7908465534735027,1.0273133154191965,Relax
81.93375562505562,732.375,20.465701471214242,,,,,,,17.53080471410399,17.624560184972825,0.027944292843439824,0.023936923999459278,735.0,20.0151,0.027231428571428573,28.5,1.1674136929235799,711.4,750.0,0.0,23.75,690.0,772.0,6.153846153846154,70.3125,,,0.061167428286065875,0.03358832170011255,0.004469026226196619,0.09922477621237503,1.8210921293474724,0.6164531745090219,0.3385074069426171,-3.3935768408779228,12.462446022224716,25.825620504769006,0.48256133942351465,1011.1228570051658,2.0722754151723723,3.711774037934339,214.0711938144173,0.6375,0.6493506493506493,0.9,0.23809523809523808,52.8978840846366,52.91128346601538,52.88476459541205,44.15584415584416,0.48581078298117736,0.5141892170188227,8.695342107069415,8.945705172072294,0.48808941727573324,0.5119105827242667,18.04265565597432,18.47769605054383,0.4876583018606752,0.512341698139325,14.162386759989229,14.516385437875437,1.3333008429084194,0.6937958592905469,1.426782171346832,1.477915806923971,0.40040954841927245,-0.06850633065867928,-0.426298730538077,8.127437852207487e-05,0.0248940548247493,0.49734727433151926,1.7491998548092589,5.5390632138487295,1.333353479472206,0.7838735539822874,0.7119530358693421,0.7504907058261567,2.006590796476812,1.734900773952095,2.5766914102842056,1.0273133154191965,Relax
81.41626847560325,737.0,20.323958549929205,,,,,,,18.829010743255214,18.94314080549371,0.02757660590221059,0.02554818282666922,740.0,20.7564,0.028049189189189187,29.5,1.0793959824580535,718.6,756.0,1.25,27.500000000000004,689.0,772.0,6.666666666666667,70.3125,,,0.057527312275546735,0.04021788429951213,0.00831265855629961,0.10605785513135847,1.4303913116644122,0.5424144416676728,0.3792070304429604,-3.213443499215854,13.394823320536197,25.36798949994005,0.5280206900341019,1067.5123585470908,1.8938651815621386,3.7353430214974823,192.17420816068153,0.6375,0.6493506493506493,0.88,0.21052631578947367,51.62950257289879,51.65225849067422,51.60654253527679,46.75324675324675,0.49450157097972014,0.50549842902028,9.422422792575764,9.526615886893428,0.4442868690211963,0.5557131309788036,16.908994705417303,18.9108643197829,0.4552402917088507,0.5447597082911494,13.687515355788312,14.972928898142277,1.1093257165184598,1.6451716915470338,1.4112971129620346,1.7233561256558956,-0.5320557364565079,-1.1005776757538674,-0.3103182699427457,0.0013387873824253361,0.21102465834347003,0.48312338499830876,1.969440646465507,5.453378801695312,1.3429553582291096,1.310829229735218,1.1565423243402513,1.309719767466398,2.0880268487659297,1.8028586983496266,2.8883065967125465,1.0273133154191965,Relax
81.10073859930672,739.8875,19.366546747197663,,,,,,,20.998794419885336,21.132969545655236,0.02617498842350717,0.028381063904830577,744.5,20.0151,0.02688394895903291,28.25,0.9222694579484061,722.0,757.2,2.5,32.5,701.0,775.0,5.333333333333333,70.3125,,,0.046268045770076316,0.03697140332394781,0.010341795609946155,0.09358124470397028,1.25145495194408,0.4944157979137602,0.3950727887933218,-3.2976105483026124,14.943266072341608,23.07173803050247,0.6476870555909379,1083.1178518347815,1.543955512724611,3.741645823851101,142.4869484813294,0.7,0.7142857142857143,0.9090909090909091,0.2777777777777778,49.961089494163424,49.964866054195255,49.95724226438517,48.05194805194805,0.4444380651643462,0.5555619348356537,9.962107695843773,11.138118885507208,0.47913357903914944,0.5208664209608506,15.970136056608297,16.651121586294217,0.46888015482608875,0.5311198451739113,13.309561138710963,14.165407554836634,1.058810516069265,1.7430408743964803,1.3496451627400863,1.6772029012174579,-0.5879478706897192,-0.978071562776683,-0.3120768461090811,0.0016467547112006293,0.23285765349990123,0.4053097291632235,1.824549292051046,5.403378801695312,1.363255997365038,1.3532061272352511,0.6294241181527478,0.8027109132927341,1.9335714898344873,1.8341825889162122,3.7597075965630493,1.1063374166052884,Relax
80.81589093500155,742.5443037974684,20.568707542230406,,,,,,,24.65895582874714,24.818398023500237,0.027700310186260072,0.033208733408414855,744.0,20.7564,0.027898387096774193,29.0,0.8341272714496546,724.2,758.0,5.063291139240507,35.44303797468354,701.0,811.0,6.583333333333333,78.125,,,0.051411562918175065,0.030106404698395706,0.009277086929351322,0.09079505454592209,1.7076619886437205,0.5662374803924178,0.3315863936528456,-3.5030173491843066,17.549257540603826,23.35861279859726,0.7512970779522361,1287.821489644649,1.3310313980265145,3.8168257777719585,124.36418819710778,0.6962025316455697,0.717948717948718,0.9107142857142857,0.25,49.756097560975604,49.76023566911799,49.75183830482762,47.43589743589743,0.4240443610449302,0.5759556389550696,11.427922059473568,13.318525326894,0.5491268467187157,0.4508731532812844,17.30945468389342,15.684628475709328,0.5039971264565932,0.49600287354340666,14.666537151815396,14.54975407531256,0.9300368889900201,1.8389741430739264,1.2143990038322106,1.4236425676328732,-0.681549040109207,-0.5861568953688434,-0.386217234435443,0.0008128564475823693,0.1982376378917471,0.45432606636454986,2.2246235515243336,5.520561723102076,1.3991136974449665,1.583414692011811,1.202509356383845,1.511039838000321,2.0823993176769156,1.8926157783367568,3.0713014726438925,1.1969203952235006,Relax
80.61088836582755,744.2658227848101,21.55179144244043,,,,,,,25.054044148702385,25.199559827858415,0.028957115566317908,0.03366276319790956,746.0,23.7216,0.03179839142091152,31.5,0.860212080513822,723.6,760.4,6.329113924050633,35.44303797468354,701.0,811.0,6.076923076923077,78.125,,,0.017150548825922696,0.04467007679991607,0.014538097963603277,0.07635872358944204,0.3839381987799699,0.22460497006387972,0.5850029269752292,-3.108451424346786,17.818779637194794,24.28967740087192,0.7335947424544699,1359.7202847001215,1.363150445509176,3.8404196864897946,132.4419382810909,0.7468354430379747,0.7692307692307692,0.9333333333333333,0.35714285714285715,52.429842573579734,52.454456633401605,52.40532674583201,47.43589743589743,0.4640836584220092,0.5359163415779905,12.146828991364558,13.053088404018295,0.5597961185372592,0.44020388146274075,18.173421034845653,16.115681683647693,0.5262801410596745,0.4737198589403256,15.456692509318172,14.664554425753526,0.774150328293539,2.6173904446014573,1.1795237495361,1.5210692097851326,-1.4031081186994019,-0.9806026541216273,-0.3695091666764915,0.0019491960426761764,0.4216341842799127,0.4661576064901971,1.5686159179138452,5.52676710279414,1.3627797064775318,0.9678002527269727,1.133725608138435,1.4992187916059434,1.9464624807019313,1.8661617951892364,2.5135755153992445,1.0373310091937005,Relax
80.1922454790249,748.746835443038,20.602133543006076,,,,,,,26.302481115296192,26.443727597877142,0.027515486634164765,0.03512867082734695,747.0,22.238999999999997,0.029771084337349395,28.0,0.7832771917104397,729.6,765.4,6.329113924050633,43.037974683544306,701.0,817.0,6.076923076923077,85.9375,,,0.03633597580722886,0.05891200062440452,0.01817562289648187,0.11342359932811524,0.6167839391313515,0.3203563986901442,0.5193980879938582,-2.831710463332534,18.69853910430878,20.94952944299188,0.8925517470543419,1230.6422530667842,1.1203832195727204,3.7971019321055803,93.88600498349098,0.759493670886076,0.7792207792207791,0.95,0.4,53.116883116883095,53.048302879639266,53.18928975424208,48.05194805194805,0.5052073681479559,0.49479263185204403,13.305110823513422,13.167255726863642,0.5761888739312269,0.4238111260687732,15.90218151805667,13.63830659757877,0.5446766926800036,0.4553233073199961,14.66126445875657,13.404850432328292,0.6682177226269781,2.729871840056516,1.059344939762452,1.4740016495285895,-1.508127096719166,-1.0609482667248844,-0.34810396455917403,0.0027616541564950306,0.48033122323911903,0.6143817992028207,1.774952350911674,5.450817735705531,1.425111764962354,1.316727478421566,1.0633072129298504,1.4809411953257636,1.8660737489539607,1.9107516972439702,2.7547616801258408,1.0373310091937005,Relax
80.03479489527504,749.7692307692307,19.589238416494442,,,,,,,26.404200767715317,26.573843774138712,0.0261270236395227,0.035216436850343605,750.5,18.5325,0.024693537641572283,24.5,0.7418985557951977,733.0,766.6,6.41025641025641,43.58974358974359,701.0,811.0,6.0,93.75,,,0.02989807885931378,0.06233093496077868,0.017869586624599816,0.11009860044469227,0.4796667798762676,0.2715573017145935,0.5661373960161324,-2.77529742810095,18.790545134885402,20.252823571321425,0.927798786609357,1195.569512428061,1.0778199049542871,3.784544941761387,87.31558550679041,0.717948717948718,0.7368421052631579,0.9464285714285714,0.2777777777777778,48.96291640477687,48.94780036637791,48.977969067675424,48.68421052631579,0.42935379915429467,0.5706462008457053,12.314144627002594,14.196459899714807,0.5325986399684874,0.46740136003151245,14.780380210711721,13.846198880482486,0.48483083532591054,0.5151691646740896,13.603267935829528,14.022423063117248,0.6594442260883407,2.652581961187767,1.0238113234217574,1.6516938861724582,-1.7364780769713484,-1.9025266567573382,-0.26329381261812207,0.004228482243360209,0.5427224517685982,0.41261792675023345,2.740840023925201,5.451818244392328,1.518390567264989,1.3893280790057603,1.2906001899228976,1.4006334173435244,1.9942330792883023,1.9396515890650394,4.012526211334956,1.208731195935048,Relax
79.91655495583852,750.7948717948718,19.086514566442933,,,,,,,26.5329983228432,26.70570735245193,0.025421743386198365,0.03533987686864809,751.0,17.7912,0.02369001331557923,22.75,0.71935008377891,736.2,767.0,5.128205128205128,44.871794871794876,706.0,811.0,4.875,78.125,,,0.027820103924873715,0.10336564623777614,0.022932529982671455,0.1541182801453213,0.26914264978209507,0.1805113831963448,0.6706903693728644,-2.269482613526372,18.8837867653022,19.39426175256131,0.973679070965839,1150.567793531742,1.0270324481844433,3.7678823231353613,79.67414451385181,0.717948717948718,0.7368421052631579,0.9464285714285714,0.35294117647058826,50.61124694376527,50.611849610302706,50.610434470316704,44.73684210526316,0.4293462219598583,0.5706537780401417,12.37410283829222,14.265803794204407,0.5862675038780687,0.4137324961219316,14.849819127564011,12.474785000371613,0.5098954316500569,0.49010456834994326,13.668129886235306,13.400250346546391,0.6594368235691442,2.66556561446674,0.9014832776757422,1.5758021735471368,-2.5662950980716914,-2.4653455946102416,-0.24702596244050984,0.002393639893973755,0.4222924280510437,0.42688561881085807,2.772588722239781,5.344580706230785,1.5705503098893507,1.1339791914157908,1.5727687670929682,1.675670312743966,1.9048729447972104,1.9552395166064733,4.184217415943699,1.289313275664051,Relax
79.78875327024438,751.6455696202531,21.207181883820024,,,,,,,27.460694521256077,27.617677259974226,0.028214337635934353,0.036534100154584546,752.0,19.273799999999998,0.02563005319148936,25.0,0.7722740540085214,736.8,768.0,5.063291139240507,41.77215189873418,683.0,811.0,6.076923076923077,109.375,,,0.03882378813676627,0.11034624120940051,0.022818863926656892,0.17198889327282366,0.35183607263152367,0.22573427503356638,0.6415893439953693,-2.2041322093026605,19.52864687114928,21.566416168670827,0.9055119180867065,1323.1223531368398,1.1043476955145342,3.8285701165341854,95.26728798551608,0.6455696202531646,0.6623376623376623,0.9019607843137255,0.25,47.467968273337405,47.38668871774655,47.545314039518765,49.35064935064935,0.3845696118601133,0.6154303881398868,12.119534515942306,15.33161575172172,0.49419786203815086,0.5058021379618489,15.161019722141804,15.337985113603857,0.44476572398127406,0.5552342760187261,13.724788448247383,15.334800763354819,0.5870707138251534,3.356918197734151,1.0255484662532968,1.8784458797237678,-2.0174431384214504,-1.9853379378781497,-0.24592844888321713,0.013119505992388265,1.0674502061693896,0.5268403580861323,1.9459101490553135,5.436320937886205,1.4991318623248948,1.1297750083305196,1.4890230862112759,1.610873161052722,1.968089877670159,1.9930088087815758,3.171495895927013,1.2767150882384006,Relax
79.66581733627682,753.3717948717949,18.84668765851537,,,,,,,24.418962186909464,24.572955531247555,0.025016449761996476,0.03241289673057771,752.0,18.5325,0.024644281914893616,24.5,0.7718054319531531,739.4,768.6,2.564102564102564,43.58974358974359,706.0,814.0,5.571428571428571,85.9375,,,0.02701027827118459,0.162087280608223,0.020061832147153454,0.20915939102656106,0.16664033210891138,0.1291372963873019,0.7749462255206108,-1.8196203196472005,17.375703489940626,20.132120847428077,0.8630836076150621,1098.9597799252265,1.1586363026442774,3.7479519082304407,93.30322425220739,0.6666666666666666,0.6799999999999999,0.9411764705882353,0.19047619047619047,51.33757961783439,51.34883027084233,51.32601666009455,48.0,0.49187611621727567,0.5081238837827242,12.189296426308658,12.388980672567987,0.5347206897972151,0.46527931020278485,14.721532528460036,13.732398546100411,0.5164248685380856,0.48357513146191455,13.514852336502386,13.077951137968896,0.6106332756505509,3.025772021946837,0.9397647051807572,2.036214910698532,-2.3518737797841798,-3.1656292785465534,-0.1376296040928098,0.014154362450527163,1.0241930949919313,0.43459477283918835,3.295836866004329,5.355539077670186,1.6718049912315942,1.4650297915911152,1.6548662091416022,1.8540598571989841,1.973037415865616,1.995499989552699,2.9939054308135784,1.208731195935048,Relax
79.45429484479345,755.2307692307693,18.58565504432312,,,,,,,24.363854428177053,24.52027074433022,0.024609239720533766,0.03226014540296411,755.0,17.7912,0.023564503311258277,23.75,0.762837222620597,741.0,770.0,2.564102564102564,41.02564102564102,706.0,814.0,5.571428571428571,85.9375,,,0.030060506192723782,0.15262046660541315,0.01534934206558853,0.19803031486372547,0.1969624838747387,0.15179749733473846,0.7706924402480444,-1.879801049823442,17.338449719846007,19.807079625248406,0.8753662855853017,1078.8984856758873,1.1423789292174573,3.739950693491018,90.50876165286476,0.6282051282051282,0.64,0.9375,0.125,50.98789037603571,50.99450789451087,50.980927104410526,48.0,0.4904719189620844,0.5095280810379155,12.144416087456126,12.378089725929357,0.5320879784106839,0.4679120215893163,14.448147641514948,13.548853568103668,0.5140307292846074,0.4859692707153927,13.346082053851555,12.97668174598332,0.6289398066702415,2.026425249454035,0.8481990279468472,1.4120923847619378,-1.6259040959066553,-2.029285644606523,-0.22172999869251714,0.0018746779224275013,0.2821263934187375,0.3912423508672469,2.0149030205422647,5.400536193110275,1.724545133304374,1.4467672686422772,1.306306527864749,1.7608197708356923,1.998561286540753,2.002445681622768,3.205619644489276,1.208731195935048,Relax
79.20430025830619,757.6025641025641,19.672209776632556,,,,,,,24.749918011145848,24.911799299948253,0.025966398094145488,0.03266873580406099,757.0,19.273799999999998,0.025460766182298544,24.75,0.7948393917011521,743.0,774.0,2.564102564102564,43.58974358974359,706.0,814.0,6.0,85.9375,,,0.019869932435449215,0.15046638717877786,0.009699870420682152,0.18003619003490923,0.13205562257463252,0.11036632374633351,0.8357563395981789,-1.8940155607423212,17.615302216551697,21.74969064290805,0.8099104720965556,1203.6301428919987,1.2347043709798857,3.7874631653406867,107.41775241703556,0.6410256410256411,0.6486486486486486,0.9166666666666666,0.18181818181818182,50.345260514752056,50.34449430407748,50.3458582750494,50.0,0.500646638539657,0.499353361460343,12.464159143636394,12.448049942397445,0.5179489416363863,0.4820510583636139,15.65296301650816,15.10078778958332,0.5110950354068448,0.48890496459315524,14.14868393798637,13.838131001592117,0.6034979480374905,3.1565566284353768,0.9658386744221996,2.048018666378307,-2.2718777019050744,-2.970814144333618,-0.15716439800019807,0.015378345953379474,1.1093493144712936,0.3456168674641411,2.0794415416798357,5.477459270033353,1.6917780991654954,1.345448329928668,0.5972531564093516,0.9202434863103743,2.0097536081095506,2.013241585874284,4.01718804388808,1.208731195935048,Relax
78.66136396966735,762.7792207792207,19.38842803040228,,,,,,,24.561148181630273,24.724315043817995,0.02541813869889631,0.032199550685897964,763.0,20.7564,0.027203669724770643,28.0,0.7893942044982749,746.2,779.0,1.2987012987012987,45.45454545454545,707.0,814.0,6.416666666666667,101.5625,,,0.037497049765734466,0.17169530605267602,0.0072588992562169635,0.21645125507462748,0.2183929813097534,0.17323553865652724,0.793228507700172,-1.762033849526505,17.482730827676274,21.261849121611597,0.8222582489265226,1167.7776947121715,1.2161629285027222,3.7743302856587557,103.43149077248876,0.6753246753246753,0.684931506849315,0.92,0.2631578947368421,49.90353697749196,49.90107138558926,49.906067976131965,52.054794520547944,0.5220407005910965,0.4779592994089036,12.631706139710502,12.08663173372411,0.4609247211518631,0.5390752788481369,14.434974891402483,15.610820861016734,0.4855777203622801,0.5144222796377199,13.563342141880446,13.960379554679413,0.6834360824227067,2.7258171989636,0.9348121623103819,1.980670298728738,-2.0419763905371617,-2.8590731239505485,-0.11631391246045103,0.013634515841076958,0.8840110401554083,0.34173394141804403,2.1594842493533726,5.500298878244852,1.6859705864966463,1.1402692460795987,0.7131578574783295,0.8530618044621852,1.9110276140893119,2.0014163809612597,3.9063586440981903,1.1394157346718001,Relax
78.82464266807143,761.3376623376623,20.594206127995772,,,,,,,25.229212391486517,25.396819112885606,0.027050029371674503,0.03313800648456172,762.0,23.7216,0.03113070866141732,31.0,0.816284147456985,743.2,779.0,1.2987012987012987,48.05194805194805,707.0,814.0,5.923076923076923,85.9375,,,0.023300196887333632,0.10139089872199736,0.008960083969590376,0.13365117957892136,0.2298056056413919,0.17433588660229374,0.7586232986602693,-2.2887719480467026,17.95826301528953,23.164512710670333,0.7752489007471055,1306.884988294212,1.2899083107841913,3.823207479373262,119.5203898430388,0.6753246753246753,0.684931506849315,0.9,0.2777777777777778,50.09276437847867,50.09135803313091,50.09412375923983,54.794520547945204,0.5401963824289407,0.45980361757105936,13.198989860339061,12.177301288326024,0.41064062221973124,0.5893593777802687,14.844108615729267,17.783337384395516,0.4592752315845223,0.5407247684154773,14.045655804000418,15.240304380062522,0.7739102913082266,1.8925772611954081,0.9187855577908508,1.3045949281246185,-0.9361100654872168,-0.725771853381159,-0.29614603945411505,0.002446472121234596,0.23684946610196828,0.4703044159364205,1.897119984885881,5.536076638013208,1.602057236360581,0.0,1.336236233972805,1.3947965187010551,1.9427931752042804,2.0102802731837754,4.31843232357454,1.1394157346718001,Relax
78.77934445886977,761.5454545454545,21.306995055087235,,,,,,,25.612753813183325,25.782909476097366,0.027978625475224974,0.033632600208310444,762.0,23.7216,0.03113070866141732,32.0,0.8318900501874249,743.0,779.0,3.896103896103896,46.75324675324675,709.0,831.0,6.416666666666667,39.0625,,,0.012619588188144841,0.05321251972769149,0.004296305033809693,0.07012841294964602,0.23715449395600938,0.17994971877099267,0.7587868809450947,-2.933461577093775,18.231270129267344,24.186053324976292,0.753792687227742,1385.2616292096852,1.3266247032426726,3.8485019146918704,128.34326325943252,0.6623376623376623,0.6756756756756757,0.88,0.3157894736842105,49.906774394033555,49.90427609266072,49.909352597648045,54.054054054054056,0.5540846821910664,0.44591531780893356,13.570801990548189,12.174289849241037,0.3945227851991441,0.6054772148008559,15.191513757968329,18.819752527067283,0.45233655556842545,0.5476634444315747,14.403970926886927,15.849233711971516,0.7092460782029942,1.1632804693978653,0.8327947569267757,1.2311574861253278,-0.9582754123283141,-1.839538513582208,-0.15755229312432983,0.0003288478463753031,0.08526629316859866,0.5202974760887122,1.8607523407150064,5.441984267911435,1.576412210880308,0.9850484705987106,1.0362435279007665,1.189225530107621,1.9107615843483101,2.005455411752473,3.9147932988304563,1.1394157346718001,Relax
78.88666952277812,761.2948717948718,25.157740785132543,,,,,,,29.940200139871884,30.129442775152956,0.03304598745794679,0.03932799398646043,761.5,25.9455,0.03407156927117531,34.25,0.8402662863842898,740.4,783.0,5.128205128205128,47.43589743589743,706.0,840.0,7.8,39.0625,,,0.04743499619952493,0.09740540366562131,0.006426748082892912,0.15126714794803917,0.4869852637987357,0.31358425701143666,0.6439296634261951,-2.3288735907594016,21.304733299682685,27.111620872413,0.7858155511963868,1814.602301341537,1.272563260522806,3.965751567290716,138.0050106218242,0.6025641025641025,0.6133333333333334,0.8043478260869565,0.2631578947368421,51.43348623853209,51.32024726014293,51.55284891489631,54.666666666666664,0.63602515067223,0.36397484932776997,16.99477473875581,12.856239525492752,0.448191038742629,0.5518089612573709,18.150436220387885,20.139554397729146,0.5199202567373127,0.4800797432626874,17.582103165028652,16.89503693508738,0.9669817818817306,0.3077120117329941,0.9669817818817306,0.9907383419200702,0.29789322966001475,-0.2700253283319505,-0.4227961238674248,0.00010752201418794091,0.005326079889317322,0.47274411818403417,1.7047480922384253,5.647268404621001,1.4280795844145378,1.4077414644817468,1.277542500285961,1.4945583251100736,1.99131415215634,1.9801095449302606,3.3141474721866624,1.208731195935048,Relax
78.46956961456097,764.4935064935065,24.351387822021763,,,,,,,24.405834073887032,24.56362665377336,0.031852968815541664,0.03192418753931474,765.0,28.1694,0.03682274509803921,37.0,0.9977691296392315,743.0,786.8,3.896103896103896,42.857142857142854,709.0,825.0,6.416666666666667,101.5625,,,0.03906683993891853,0.056488228918020376,0.00269331949350141,0.09824838835044031,0.6915925793250667,0.39763339220966926,0.5749532370600685,-2.873723000269215,17.36910697741776,29.60173507242854,0.5867597603626817,1615.267779943597,1.7042750160336329,3.915214640165497,201.797990060746,0.5974025974025974,0.6081081081081081,0.7777777777777778,0.2777777777777778,51.18805159538356,51.1460042051737,51.230454822256576,55.4054054054054,0.5771278358258412,0.42287216417415896,13.197474505879272,11.296902230257638,0.4118571877054562,0.5881428122945438,18.99723925367344,22.701709628064016,0.4541960727585003,0.5458039272414995,16.356473223079668,17.930248465051097,0.8864709112971582,0.6979975288576821,0.9752432293977202,0.9254033412439018,0.3109137653796248,0.11957441799788615,-0.5714041040165065,4.1356857584417124e-05,0.018407832871794153,0.4118454079027347,1.3862943611198904,5.604194982140954,1.381485560736779,0.991773758764621,0.9952103066317438,1.4931328910233794,1.8778408838075002,1.8933819848900386,3.72436465594694,1.302189411053486,Relax
78.48385225378294,764.3896103896104,24.221106413597997,,,,,,,23.714585784857565,23.872155842349123,0.03168685979555958,0.03102421260379273,764.0,31.1346,0.04075209424083769,39.0,1.0213590333533829,743.0,786.8,3.896103896103896,41.55844155844156,709.0,825.0,5.923076923076923,62.5,,,0.03459786911567341,0.04448701077800853,0.002451950671654224,0.08153683056533617,0.7777072118492694,0.4243219766550754,0.5456063286929053,-3.1125580250479095,16.880163277667126,29.84650057362215,0.5655659106845357,1582.7777421239994,1.7681405139670545,3.9063900443150095,211.091227457449,0.5324675324675324,0.5466666666666666,0.7560975609756098,0.2222222222222222,50.03489183531053,50.02975857334654,50.04003484180932,54.666666666666664,0.5610303923633047,0.43896960763669546,12.643575443678897,11.18391702401265,0.4241984720411702,0.5758015279588299,19.43918122002772,22.647998365995825,0.4573592359061011,0.5426407640938988,16.397282800895372,17.86073668674041,1.0268602425614604,0.7737621368937302,1.0898427322948727,1.1032511882909641,0.259257230595904,0.14751867909294925,-0.48267108797812247,6.66917341364299e-05,0.022965341579373345,0.4070228649497194,1.6341305250244722,5.474324852270825,1.3821749678275361,1.0118136765646,1.1878653280608367,1.3513368702294575,1.9570353966633556,1.8527715289249662,3.077961832113305,1.220802572862643,Relax
78.74796719618499,761.5384615384615,25.747874610403223,,,,,,,23.836564731139806,23.977354604596947,0.03381034039749918,0.031300539545941156,764.0,26.686799999999998,0.03493036649214659,34.75,1.0801839485186597,741.0,783.8,5.128205128205128,39.743589743589745,675.0,825.0,5.571428571428571,125.0,,,0.05307002559596801,0.06452439667265661,0.0047747069395317875,0.12236912920815642,0.822479997220298,0.43368802196584294,0.5272930933658698,-2.7407118837093316,16.95455003582499,30.829451148208832,0.5499465415170077,1642.1088214882668,1.8183585576182295,3.922372044112977,224.23598528807474,0.5128205128205128,0.5263157894736842,0.75,0.14285714285714285,47.69874476987447,47.528395522811635,47.85883992170591,53.94736842105263,0.5039085714285714,0.49609142857142857,12.04323352277994,11.9494549534366,0.3991687532569756,0.6008312467430243,19.47798656351527,23.896926528976763,0.42351466379023084,0.576485336209769,16.193076209489842,18.89249283730874,1.0023688651776936,1.0202682535800958,1.1785118238551564,1.141852678963075,0.31794290700602446,0.2373813885608036,-0.5359308885319576,0.00011060375257121307,0.05381779138087163,0.5650839171976871,2.2857779746776647,5.5640603918559615,1.322581659026052,0.9474638428634847,1.2474086690634512,1.2264197126267984,1.8892027890031078,1.8289729951040872,2.8835685940270883,0.9669849567480383,Relax
78.77178886246786,761.7662337662338,24.67093757093242,,,,,,,22.142184079026027,22.289211456855558,0.032386494015306126,0.029066901494902552,764.0,28.1694,0.03687094240837696,35.0,1.114205242033993,741.0,784.4,3.896103896103896,36.36363636363637,707.0,825.0,6.416666666666667,101.5625,,,0.05947273306134728,0.04951864370399935,0.0028668994853689993,0.11185827625071564,1.2010170031483312,0.5316793272233783,0.44269092429968987,-3.0054060398338796,15.76085256844345,31.27010090367979,0.5040230799699387,1548.3133623398737,1.984036127987716,3.896828971839909,248.1640396748881,0.4805194805194805,0.4864864864864865,0.6944444444444444,0.09090909090909091,50.18839487565939,50.18842699326601,50.188312994430085,54.054054054054056,0.5661147043825984,0.43388529561740175,11.8586114982601,10.381714694596457,0.4453713320285,0.5546286679715,20.868460515216775,23.287906008294396,0.4698313105744049,0.5301686894255951,16.972320273637134,18.02923412476462,1.019683516103971,0.6304355630228011,1.0782308898044095,0.8313585175480172,0.8458885855119718,1.1581898845210024,-0.8915901746923874,0.00032467307461863873,0.032096623440417596,0.41918267867396697,2.456735772821304,5.494267794521342,1.3221613737701317,1.0999784165354727,1.316525580557183,1.488437744862263,1.8831292987293913,1.8220684367439455,2.7998441864633765,0.9766420582901144,Relax
78.99801821018823,759.7922077922078,23.24035604307485,,,,,,,19.57139427031734,19.701398115852037,0.030587778875235255,0.025758877321455546,762.0,26.686799999999998,0.03502204724409449,32.0,1.1874655286221474,739.0,781.4,2.5974025974025974,29.87012987012987,707.0,811.0,6.416666666666667,39.0625,,,0.016534697228302225,0.019008942721126604,0.0010337070769522172,0.036577347026381046,0.8698378163834176,0.4520474712498077,0.5196916743966311,-3.962845741012879,13.930992206574844,29.505127416427968,0.4721549583554178,1291.3067357729683,2.11794874183497,3.8179995263805173,249.9613899572164,0.4935064935064935,0.5066666666666667,0.7105263157894737,0.1,49.87102321582114,49.858868579742754,49.883203841450495,56.00000000000001,0.6100786644223832,0.38992133557761677,10.881176406988354,8.699042092859036,0.3914605925421295,0.6085394074578705,18.46041751040199,23.01663592276883,0.4313130316436226,0.5686869683563772,15.152343294988343,17.398834192764554,1.1203427224690745,1.109079741263014,1.2042459604659834,1.4775084404879242,-0.4283092811464204,-0.8386846837290207,-0.2536133157470256,0.0005391548852638363,0.07410378655258237,0.49854396470836404,2.128231705849268,5.505368482472944,1.283116510672856,0.8786315167422896,1.2164526168145697,1.369630059940717,1.9257499577973016,1.814649712583394,2.5613277044416685,0.8952552200992716,Relax
79.1955759125162,757.4487179487179,24.768878375843663,,,,,,,21.2883725351377,21.381410851644826,0.0327004030621656,0.02810536479986359,756.0,22.9803,0.03039722222222222,30.75,1.16349327948678,737.4,778.6,2.564102564102564,37.17948717948718,707.0,837.0,5.571428571428571,85.9375,,,0.036522381545728205,0.022859924178280228,0.0016143492284443311,0.06099665495245277,1.5976597849099172,0.598760400454707,0.37477340677287413,-3.7783699374066146,15.118940604533691,30.321934067232263,0.4986139924653468,1440.2176623329024,2.0055594409928217,3.865398242617137,243.24976455079815,0.5128205128205128,0.5324675324675325,0.7317073170731707,0.10526315789473684,45.865237366003065,45.990466747225426,45.733259000614765,54.54545454545454,0.4494784502521779,0.5505215497478223,10.158286739095535,11.242248791711418,0.38191609026385853,0.6180839097361416,18.738761208452804,23.838592952398944,0.3954155802050043,0.6045844197949958,15.072026424822573,18.63688106745468,0.9877579833344216,2.405257632307972,1.1586913188253884,2.0441341019604353,-2.0635953675446306,-2.6500245947900956,-0.13187195781375916,0.006746222296200863,0.5454006806209748,0.49500344805799124,2.917770732084279,5.544704302056898,1.2604958089202019,1.1318021611295948,1.28559354628017,1.4780688807786675,1.857777589077922,1.8864667220883806,2.1328548705477672,0.8864028770190351,Relax
80.29232308174426,747.0253164556962,21.799185284437556,,,,,,,19.420779249728028,19.53164990433087,0.029181320638321902,0.025997484719622373,746.0,22.238999999999997,0.029810991957104554,28.0,1.1224670752973434,726.6,765.0,1.2658227848101267,35.44303797468354,698.0,804.0,5.642857142857143,85.9375,,,0.027590266628040132,0.02748286790018393,0.0015480291740471684,0.05662116370227123,1.0039078428148864,0.48727833947597604,0.4853815446940649,-3.594192453893536,13.810962095113938,27.25389223624108,0.5067519154841561,1182.5032427730268,1.9733521856441123,3.7797724503369685,215.12611124678173,0.5063291139240507,0.5256410256410257,0.7317073170731707,0.043478260869565216,47.65687053216839,47.60665743890715,47.70662032763758,50.0,0.45202080288249097,0.5479791971175091,9.292505009449785,10.23141330324497,0.5128905296883318,0.48710947031166835,19.518249910969978,19.021371202875,0.5004381784578277,0.49956182154217244,15.28582233538204,15.272432363893127,1.0187603815797994,1.1747173094633037,1.1390638180285109,1.4067513836122505,-0.2791055435321095,-0.7160494912486097,-0.27212597156158463,0.0007402337157782429,0.0937168667898971,0.6011833304885825,3.1354942159291497,5.540936918981022,1.3754494565318842,1.3595198272307987,1.3482598597561684,1.5987106452502189,1.8986647759821678,1.8787634161385778,3.1992973601537713,1.1171257022086005,Relax
80.61802259359386,744.2025316455696,18.194377651461064,,,,,,,19.1863332769809,19.305236108168717,0.024448153396132537,0.02578106424141875,744.0,19.273799999999998,0.02590564516129032,26.0,0.9482988431817793,727.0,760.8,0.0,32.91139240506329,698.0,782.0,5.642857142857143,78.125,,,0.06318010111141464,0.07870627438440705,0.006957888017500629,0.14884426351332233,0.8027327122973517,0.42447118632663794,0.5287827191093759,-2.5420324013947817,13.650863364493492,21.71669408231377,0.6285884634535996,931.3302429915727,1.5908659769315296,3.676073815945917,138.19339898793305,0.5569620253164557,0.5769230769230769,0.7555555555555555,0.09523809523809523,48.59663191659984,48.62060088247631,48.57272964955403,51.28205128205128,0.49315640998850696,0.506843590011493,9.588954684847142,9.72111104761179,0.4726627874605549,0.5273372125394453,14.93033043361983,15.770226219294614,0.4784692176146904,0.5215307823853097,12.54716738561191,13.099618983156098,0.9164249964130807,2.362963415480683,1.0958638292815535,2.0410342743930605,-2.1802814451972203,-3.064292069487144,-0.10000631456275136,0.006505453007244459,0.5521895923397309,0.5056832375960387,2.538973871058276,5.341260494793461,1.5329819046200386,1.2103897410130804,1.3473585525896397,1.602463789172777,1.865593049501884,1.9051508243921198,2.771411006318679,1.0373310091937005,Relax
81.07698299955628,739.85,18.023964356912174,,,,,,,21.653192824469812,21.78224236484311,0.024361646762062813,0.029267003885206207,740.0,19.273799999999998,0.026045675675675672,24.25,0.8323929178954004,724.0,753.4,1.25,40.0,697.0,783.0,5.714285714285714,70.3125,,,0.03467911105258949,0.0729599007324532,0.0065493243002015845,0.11418833608524427,0.4753174100353993,0.3037009929516857,0.6389435491728939,-2.617845293791915,15.402371285629462,19.907828832279016,0.7736841327797485,963.2995532802117,1.292517136686166,3.6907314688486164,102.9248396797423,0.5625,0.5822784810126582,0.782608695652174,0.09523809523809523,48.24929971988795,48.20187594186556,48.2957331942876,53.16455696202531,0.4853941684665225,0.5146058315334774,10.735455276791942,11.053772995493324,0.45309480213574976,0.5469051978642501,13.400420853543794,14.722444422147712,0.4651956900489928,0.5348043099510075,12.141278331627428,13.017992687029858,0.8682094626461504,1.4360219439254505,0.8898562909733511,1.5862204346088757,-1.3582572895747749,-2.348498373678881,-0.015074162632938452,0.0014861116897520418,0.1763606550589881,0.38120603270432163,2.169053700369523,5.305875438448058,1.6327420238373545,0.9763221924139099,1.0810903023176388,1.2830804646468243,2.0120585063233243,1.9460428678103585,4.294547867082118,1.0273133154191965,Relax
81.60642705401989,734.8395061728395,21.35910624893014,,,,,,,24.668552855812194,24.805289222617855,0.02906635540074832,0.03356998725380175,737.0,19.273799999999998,0.026151696065128897,26.0,0.8658435042288136,722.0,751.0,1.2345679012345678,41.9753086419753,670.0,782.0,5.4,101.5625,,,0.0519527231887283,0.06440278295366979,0.019328439450407603,0.1356839455928057,0.806684444461075,0.3828951388592503,0.4746529345995418,-2.7425984332392073,17.53998821860667,23.730606672354053,0.7391293640647039,1307.6394404324187,1.3529431363688311,3.823458121062418,128.4246456769192,0.5555555555555556,0.5750000000000001,0.8043478260869565,0.043478260869565216,47.52729608220938,47.44822784639085,47.603088485168755,51.24999999999999,0.41127292894850365,0.5887270710514965,11.257065291955172,13.468434733747467,0.43768548811615887,0.5623145118838412,15.699647983183763,17.79502026529019,0.42834473307350723,0.5716552669264928,13.660169577703414,15.780707848815018,0.803220758994866,0.34742088830713413,0.8343032984814793,0.9692801008509111,0.33998755023104366,-0.6325715661499629,-0.11148909892226512,3.038134893418517e-05,0.007585184125121608,0.5444478797529486,2.5649493574615367,5.439409299556877,1.5204088281623103,1.111265453749722,1.4775100078981407,1.8291482805480683,1.9118639576071514,1.9242539977465918,3.12787795810607,1.0957765437084537,Relax
81.65453356403,734.9,21.483346508753936,,,,,,,22.735963815789983,22.877380831649543,0.029233020150706134,0.030937493285875608,734.0,20.7564,0.028278474114441416,28.0,0.9449059069065675,720.8,753.2,1.25,38.75,670.0,782.0,6.153846153846154,70.3125,,,0.05041415874804698,0.06404825913795101,0.01219389720976141,0.1266563150957594,0.7871276975610206,0.3980390453482797,0.5056854771870386,-2.7481184307441167,16.17675112184653,25.806406693299888,0.6268501970887135,1311.5012651087595,1.5952774756142853,3.8247388238202933,164.67351729745215,0.575,0.5949367088607594,0.8297872340425532,0.09090909090909091,51.1141120864281,51.11258469250802,51.11488020895896,48.10126582278481,0.487915370864657,0.5120846291353429,11.301520206342108,11.578051738150165,0.49528608050344186,0.504713919496558,18.16166240436102,18.333702439224133,0.4932063391903141,0.5067936608096859,15.125646106271617,15.33257850430408,0.8858461785312054,0.60389209179319,0.9438786847966891,0.9549128568190568,0.31863174101080993,-0.001990702259563548,-0.48172823891499733,3.615224337600679e-06,0.012267213716525619,0.450572759117172,2.1517622032594614,5.429104070322104,1.5177497844356778,0.7831478640677969,1.5756551729908082,1.9726813454325274,1.8190479808022046,1.874232920225629,3.703396124436433,1.1853615177913803,Relax
80.30379042870592,747.3291139240506,27.284691640602286,,,,,,,33.81795153692556,34.03683779387161,0.03650960618587003,0.04525175174744016,748.0,22.238999999999997,0.02973128342245989,30.0,0.8068108918664201,731.6,769.0,8.860759493670885,53.16455696202531,669.0,809.0,5.266666666666667,117.1875,,,0.01134463559257977,0.09065748091751388,0.01766893420138417,0.11967105071147782,0.1251373353612358,0.09479849575258797,0.7575556525870696,-2.400666819896573,24.067678814193183,30.428613444429498,0.790955488594542,2300.733112382555,1.264293647897825,4.068836352905965,153.8828107685223,0.6329113924050633,0.6538461538461539,0.9411764705882353,0.08695652173913043,50.024142926122636,50.034012930264204,50.014141337661535,48.717948717948715,0.46228350428787635,0.5377164957121237,16.363961035740118,17.648626744708096,0.5150655971010052,0.4849344028989949,21.838028807728833,21.18964402587551,0.4947525902933472,0.5052474097066528,19.29609705337345,19.49967999631465,0.5831877967107183,0.9879985979667776,0.7109768482769683,1.0568534299872976,-0.585158222327423,-1.544490890913804,-0.14992199136505277,0.00039780987292584554,0.06699866292268282,0.5083305751684795,1.85238409104449,5.56290321636722,1.4646880550247265,1.6865705050001936,1.1397402949569455,1.3090695982502845,1.9495984608755736,1.9695201571644885,4.307681354371151,1.0373310091937005,Stress
78.82900654920589,761.0,29.45960660043904,,,,,,,28.381100086241602,28.548521330805183,0.03871170381135222,0.0372944810594502,756.0,26.686799999999998,0.0353,35.0,1.0380008706822563,736.0,780.8000000000001,6.493506493506493,54.54545454545454,711.0,851.0,5.923076923076923,23.4375,,,0.02264899120576907,0.08978773349477023,0.00883963175992079,0.1212763564604601,0.25225039461641247,0.18675520824335903,0.7403564562400409,-2.4103069110581306,20.186853025861144,35.23191709879182,0.5729706098381288,2234.3683409254168,1.7452902170366336,4.056124879119651,245.95968095986822,0.5584415584415584,0.5789473684210527,0.9090909090909091,0.04,52.2347872913301,52.10205897680491,52.37554598659593,50.0,0.5317803878007742,0.46821961219922575,14.731824960495107,13.823410095438343,0.42655075376927026,0.5734492462307296,23.010265634307732,26.679873648402776,0.45258784753106845,0.5474121524689316,19.319666032673418,21.24738012745811,0.8660909144218444,0.5974007541027597,1.316864510327152,1.0652176885934048,-0.46262441959925305,-1.462624419599253,-0.9212361969842123,0.0007575968959452731,0.05845709154734635,0.501573107705565,1.9459101490553135,5.6105615405263185,1.458778959139541,1.438885001646385,1.465479309827012,1.7302933102221725,1.9959016381855599,1.9136418242598898,3.5414897344292506,1.220802572862643,Stress
77.9247977119685,770.1558441558442,31.611567226281412,,,,,,,30.017977069889653,30.215762123463882,0.04104567597085543,0.03897649715661366,764.0,34.099799999999995,0.044633246073298424,41.0,1.0530878597408968,741.0,796.0,10.38961038961039,55.84415584415584,711.0,850.0,8.555555555555555,23.4375,,,0.005201661276907076,0.02491835926842629,0.005902076505242635,0.036022097050576005,0.20874814512759793,0.1444019560994409,0.6917520441255887,-3.6921504271812204,21.365770296220944,39.457465439981924,0.5414886652747641,2648.4855785313666,1.8467607248853057,4.129967722430198,291.47398991231165,0.5454545454545454,0.5657894736842105,0.9069767441860465,0.0,50.624349635796065,50.63914583691827,50.60913371218441,48.68421052631579,0.4971671388101984,0.5028328611898017,15.065855435387663,15.15145757564818,0.4735719612672832,0.5264280387327169,27.153272335440942,28.628506430212976,0.47892216243689534,0.5210778375631047,21.957688841526814,22.903690173107613,0.7922529766516772,0.42155611402085225,0.9243524000967924,1.0030310336621033,0.21107891261266687,-0.7886172631515024,-0.31336142224373237,0.0001082308076392553,0.013889546309601623,0.5244868248913477,2.005333569526114,5.701724527651695,1.4762520696924992,1.2535472461535095,1.27270002174647,1.6581078050013889,2.03813856636811,1.9325920923640119,2.9643073241094084,0.8952552200992716,Stress
77.36061115893808,775.76,31.82377149918646,,,,,,,30.58837440349926,30.7769561400803,0.041022702252225506,0.03943020316012589,773.0,34.099799999999995,0.044113583441138415,42.5,1.0403877982984893,748.6,804.0,10.666666666666668,54.666666666666664,711.0,850.0,9.375,125.0,,,0.025107783090164225,0.025641796776760043,0.005471165542590936,0.05622074540951521,0.9791740925472192,0.44659285299897145,0.45609136965338487,-3.6635315722882273,21.76259439093173,38.95238171750379,0.5586974000399162,2663.143435605763,1.7898776688929552,4.132364667919515,278.879992745417,0.5333333333333333,0.5540540540540541,0.8780487804878049,0.0,52.19251336898396,52.26936667991551,52.11711328805313,45.94594594594595,0.47644357144920424,0.5235564285507958,15.031473829250812,15.757146671681289,0.515430197796703,0.48456980220329693,27.96526551505378,27.115161185924514,0.5061464690659027,0.4938535309340974,22.449958583557656,22.17565824695565,0.8528392541063766,0.5324009380530668,0.9277466588279788,0.9392123148436575,0.4539622823850902,-0.07561785137720634,-0.4784642452779903,6.974388239812844e-06,0.011689772418405575,0.48895052013710316,2.327277705584417,5.665289857076006,1.4524155514991743,1.454034560133427,0.9612098618153022,1.5029679405527874,1.9895109694354265,1.9300899905051905,2.524607394924873,0.8305091587327841,Stress
76.82937056215746,781.2933333333333,29.15836226693965,,,,,,,28.82847691226647,29.022390467766982,0.03732063365053627,0.036898403816236075,775.0,31.1346,0.04017367741935484,40.0,1.0114430379266002,755.8,809.2,8.0,53.333333333333336,730.0,850.0,6.25,39.0625,,,0.02836347801744148,0.061549666954297796,0.002516828861821062,0.09242997383356033,0.4608226075130851,0.3068645033754516,0.6659059220889856,-2.787910837344416,20.521929106001853,35.492827961816985,0.578199323200711,2288.2773385912506,1.72950738590344,4.066478769645913,245.54043242625045,0.5333333333333333,0.5540540540540541,0.9024390243902439,0.0,50.85324232081911,50.90034429354353,50.80739894514811,44.5945945945946,0.4608130081300813,0.5391869918699186,13.932321739074787,15.07061006300783,0.5701077535261206,0.4298922464738792,26.79903017744531,23.27128742196086,0.5427197345198539,0.45728026548014605,21.35764040680431,19.604541641501676,0.9517284491076795,0.4641367489245425,1.254562144178582,1.1413680556842967,-0.017686597895786527,-1.0176865978957865,-0.7438809009555237,0.00033287378458220885,0.028354235253969517,0.5302823847449285,2.8622008809294686,5.5752246903804945,1.483264085882585,1.264856364566422,0.958762106470939,1.1628607883923843,1.9701783774711172,1.8995378879092921,2.6574458513508348,0.9135600746060626,Stress
76.47420397825279,784.8933333333333,27.856084459978245,,,,,,,29.21981001473653,29.41855705918715,0.03549028036927936,0.03722774646415207,785.0,29.651999999999997,0.03777324840764331,40.0,0.9533287330044065,763.8,810.0,9.333333333333334,52.0,733.0,850.0,5.769230769230769,39.0625,,,0.05773585581694969,0.08202713273067007,0.0036537285798039173,0.14341671712742368,0.7038629035897309,0.40257409996110993,0.5719495911888023,-2.5007051994895098,20.80206118927461,33.437372040051756,0.6221200985638946,2185.1858499427185,1.6074066764735708,4.046458489562118,214.98982024363957,0.5333333333333333,0.5540540540540541,0.926829268292683,0.0,50.4254112308565,50.44283033273087,50.40808691730844,45.94594594594595,0.4839904401639733,0.5160095598360266,14.472221857042271,14.943271725529643,0.5281946890803617,0.47180531091963807,24.301280169926756,22.967490743386833,0.5158596473210219,0.48414035267897815,19.99996779218316,19.375332266964786,0.8819476683214496,0.8212129654428661,1.0352341530284412,1.2012829352848886,0.05940401483042912,-0.7638466847045171,-0.2978005837171603,0.00021685085566013475,0.04612549316899058,0.4740280072629388,2.7408400239252013,5.558623190409341,1.540948496781928,1.0875694840898253,0.9730331426055561,1.031783596261273,1.9748186875679477,1.8902136066861888,3.0004711190009052,0.9135600746060626,Stress
75.97057054796512,789.76,26.155377722062887,,,,,,,29.30109305220633,29.49768595144692,0.03311813427125062,0.037101262474937106,787.0,29.651999999999997,0.03767725540025413,40.5,0.8926417071015521,765.8,814.4,8.0,54.666666666666664,738.0,850.0,7.5,101.5625,,,0.023490176350362168,0.07319162197370936,0.0032012226105336554,0.09988302093460519,0.3209407814298733,0.2351768712095874,0.7327734112250063,-2.614674318476294,20.85801376557927,30.495490104235397,0.6839704393759647,1998.2896541735474,1.462051489991836,4.0076285498536155,178.3439069797146,0.5333333333333333,0.5540540540540541,0.9024390243902439,0.0,49.05768132495718,49.083446873499035,49.03187167970404,45.94594594594595,0.4758629373711299,0.52413706262887,14.39011266341419,15.102390267133938,0.5578166643579365,0.4421833356420635,22.776204819257316,20.278545577253787,0.5316926192272007,0.4683073807727995,19.050339215280573,17.878780754145136,0.8456655657962052,1.2042431497587387,0.9993107033605766,1.2527357360697966,-0.648322051219731,-1.183327606034124,-0.2895565918228459,0.00017791296525428572,0.07586314211108532,0.47428463339420857,3.4011973816621555,5.63862319040934,1.6146329769616967,1.8202179525317752,1.082383615602067,1.3661646545431496,1.9299207575332946,1.960460140107473,3.1953390903947665,1.0796619063526194,Stress
76.39426150932644,785.3333333333334,25.680644374615984,,,,,,,29.55617647070689,29.750760290702843,0.032700311173110334,0.037635199241137805,783.0,28.1694,0.03597624521072797,36.5,0.8688757289045169,763.8,810.0,8.0,57.333333333333336,738.0,848.0,7.5,93.75,,,0.04756055781493821,0.08907284802304867,0.010711738259366386,0.14734514409735328,0.5339512418265928,0.3227833404778796,0.6045183814418534,-2.418300726939541,21.036964347011445,29.620898543211332,0.710206826316307,1957.6325261232553,1.408040535440625,3.998701282181339,166.82970338006285,0.5733333333333334,0.589041095890411,0.9302325581395349,0.0,48.64712514092447,48.633680661416676,48.66083753064785,43.83561643835616,0.43303322814182293,0.5669667718581772,13.846764124239597,15.844060293224793,0.64476730359385,0.35523269640614985,23.7848124735465,17.654470428348915,0.5737542825141839,0.426245717485816,19.460860478330627,16.773708186933337,0.7180767120242478,0.9011329199431248,0.8750782870025787,0.9719084131455418,0.15782501072263777,-0.3725270004689536,-0.39254623374643277,0.00016629849883742292,0.048182740268753035,0.5085687232716007,3.465735902799727,5.575224690380495,1.6490171447165776,1.5782704949843775,1.4968675771192994,1.8052762745456241,1.942077094317197,1.9145360984402349,4.315024391159163,1.245763738099176,Stress
76.83910943901886,780.9605263157895,24.47771274144362,,,,,,,27.705354476466578,27.89166299927032,0.031343085747135194,0.035475998520908124,778.0,20.7564,0.02667917737789203,29.0,0.8835011572306511,760.0,800.0,5.263157894736842,51.31578947368421,738.0,848.0,5.846153846153846,62.5,,,0.042051146810494947,0.08847851522264535,0.007140834448096208,0.13767049648123653,0.47526958047022355,0.305447774834067,0.6426831999890719,-2.4249955222864665,19.72238404535396,28.722383524271017,0.6866555496234541,1779.6301753459854,1.456334257472144,3.957299870982025,167.3175643305975,0.5657894736842105,0.5866666666666667,0.9090909090909091,0.037037037037037035,49.73262032085562,49.735742171693545,49.729484018234196,44.0,0.4405322308881516,0.5594677691118483,13.090382275094495,14.752003986632515,0.5969502598275943,0.4030497401724059,22.19164772676488,18.23474942209205,0.5468302468418879,0.4531697531581122,18.21849797509302,16.585049112199034,0.7515686222963487,1.262839427156075,0.9536894832987214,1.2301371810705783,-0.6256272985099578,-1.3140443652747575,-0.2810903810673543,0.00033214736690030704,0.09756693146295826,0.4008257452056836,3.295836866004329,5.6391819541476575,1.6381524267425946,1.4381431597064083,0.8958797346140276,1.355353128825968,1.884538362770623,1.8943055428573254,4.248286481894281,1.3153531607249653,Stress
77.28061980251175,776.6842105263158,28.422625037724572,,,,,,,28.681236607464005,28.873766889936864,0.03659482792686636,0.03692779667559911,777.0,26.686799999999998,0.03434594594594594,36.0,0.990983248969393,754.0,795.0,7.894736842105263,53.94736842105263,717.0,848.0,7.6,85.9375,,,0.031072927289145614,0.04150137189193953,0.00889701923052406,0.0814713184116092,0.7487204849529481,0.3813971333096519,0.5093985552346949,-3.1820287946547787,20.416836366273966,34.307465108372,0.5951135212636761,2200.5282640038645,1.6803516711846502,4.049497061057567,230.59442531584787,0.5789473684210527,0.6,0.9111111111111111,0.037037037037037035,50.39863325740319,50.38228634545226,50.415226250264844,45.33333333333333,0.48879992219917,0.5112000778008299,14.274575773504218,14.597991346461038,0.5868950526624213,0.4131049473375786,26.282632020898248,22.050519635968133,0.5612389517386577,0.4387610482613423,21.148761895906098,18.69928832292245,0.9887457473408063,0.7745311840318445,1.0902020561931822,1.2247670082637447,0.009909044136005463,-0.6056504154919233,-0.32626270595061035,6.284123535722973e-05,0.029962249495671535,0.3846071408813567,3.258096538021482,5.629249223856034,1.512224196935416,1.3638302788394254,0.9878109296453569,1.1277148766292124,1.8807454415692333,1.832202856430551,3.1549448384235226,1.0687244430890344,Stress
77.59320492662307,773.2368421052631,27.543356571559503,,,,,,,27.58912829358695,27.769462779518495,0.03562085388555495,0.03568004884308287,773.5,25.9455,0.033542986425339365,35.0,0.9983409507708845,750.0,793.0,6.578947368421052,53.94736842105263,717.0,848.0,6.909090909090909,93.75,,,0.04400582544079312,0.035967069917093274,0.005175267162896402,0.0851481625207828,1.2235032084134116,0.5168147396023052,0.42240570850033904,-3.3251514836669904,19.63597544130496,33.74990690677852,0.5818082845544431,2081.972228739338,1.7187792380196407,4.025445042155664,232.03455710586638,0.5657894736842105,0.5866666666666667,0.8863636363636364,0.038461538461538464,48.799062683069714,48.78366520771446,48.81536608785091,46.666666666666664,0.4522395641739802,0.54776043582602,13.207542889924271,14.535604004780254,0.568541191522237,0.43145880847776313,25.447993602215053,22.168803256780414,0.5391204007740242,0.46087959922597566,20.273622857885655,18.744860917350408,0.977398627470265,1.085506590970756,1.1175017236273699,1.3164020417430347,-0.4998068711278698,-0.9810871212094754,-0.3167672865645242,8.92777450839602e-05,0.055949816144179466,0.4449655512320554,2.3671236141316165,5.514053335669672,1.4993814777632621,1.0944714486685907,0.9277358040131645,1.654432933144541,1.8888047656739968,1.8029689386161956,3.8927785911105635,0.9043052979984136,Stress
77.55856400547647,773.8026315789474,30.72459155653317,,,,,,,31.15188597821968,31.361179882198368,0.03970597966801886,0.04025818045443207,771.0,26.686799999999998,0.034613229571984434,36.5,0.9862835135572446,747.0,795.0,11.842105263157894,55.26315789473685,717.0,861.0,6.909090909090909,78.125,,,0.03577013570901895,0.03020549250265647,0.005381063154979264,0.07135669136665468,1.1842262034255224,0.5012863548454056,0.42330287355183677,-3.4997315001889393,22.175702960713597,37.65220642470569,0.5889615793183077,2623.1172254814637,1.697903624133594,4.1257878093367975,255.71927098053592,0.5789473684210527,0.6,0.8666666666666667,0.08333333333333333,50.34519383961762,50.355515716126234,50.33411817473501,48.0,0.47225313603451347,0.5277468639654864,15.239528970517535,16.110052258878113,0.5826175457272669,0.4173824542727333,28.73969869502951,24.32526192186977,0.5541935305801552,0.44580646941984475,23.00232079947939,20.630707105566586,0.9003792070432873,1.4883967686097366,1.0769185598618563,1.2145545852562631,-0.5770070851473985,-0.38235095957328546,-0.40752732853419976,0.0002063087275644837,0.0995667152684696,0.464574819274989,2.772588722239781,5.5830679737991,1.4486005378633384,0.9581801225849567,1.3836696349585342,1.5001832876384942,2.0420695850602386,1.8315238504385138,3.037794461650091,1.0687244430890344,Stress
77.54123832398862,773.6447368421053,30.456396787262243,,,,,,,31.0919067711626,31.291929708230924,0.03936741935527204,0.04018886872813846,773.0,29.651999999999997,0.03835963777490297,39.25,0.9795602762938366,747.0,793.0,11.842105263157894,51.31578947368421,717.0,861.0,7.6,46.875,,,0.055964017436580256,0.0419818191505367,0.0049667366922141794,0.10291257327933112,1.3330536543904103,0.5438015555658059,0.4079367351605063,-3.1705186317853973,22.12673569310287,36.205370165609814,0.6111451310093292,2516.750786253761,1.6362725468309995,4.107810322922425,236.96741299936585,0.5921052631578947,0.6081081081081081,0.8888888888888888,0.125,48.484848484848484,48.56321433790419,48.4036989486037,51.35135135135135,0.4768354412920845,0.5231645587079157,15.28380170620499,16.009076817247788,0.5069120813917792,0.49308791860822077,25.77741201071143,25.42349029655171,0.4987297163996095,0.5012702836003905,21.190440823217486,21.2443451228721,1.0581208650886473,1.1723726114877437,1.1679223799725085,1.2261074645339105,-0.13273536389381313,0.08846473192919779,-0.45036980223585654,0.0001623616721223076,0.05656857902027519,0.48628114052807403,2.302585092994046,5.4928738557428725,1.4402140373752939,1.0007959459562807,1.1299869845787087,1.3172968298125243,2.0586143706836153,1.8200664569054077,2.611710497014871,1.0687244430890344,Stress
77.646985058806,772.7763157894736,28.759971573565238,,,,,,,29.62093854016108,29.819897825215737,0.037216424709113724,0.038330546543601206,771.5,27.428099999999997,0.035551652624756964,36.5,0.9709338390669656,749.0,793.0,10.526315789473683,47.368421052631575,717.0,861.0,6.333333333333333,93.75,,,0.05468984971542944,0.04107136074524968,0.0055677293223677995,0.10132893978304691,1.3315811485928153,0.5397258654094736,0.4053270549675802,-3.1924442192214166,21.085851966500027,35.03865304499029,0.6017883147341707,2321.071016894616,1.6617138876179944,4.072658538558,232.89686547315557,0.5921052631578947,0.6081081081081081,0.8888888888888888,0.125,50.36373810856184,50.3602400895703,50.36662937073656,48.64864864864865,0.5092318212901754,0.4907681787098244,15.047222963687316,14.771914549558545,0.5556305303105353,0.44436946968946484,26.118032211608263,23.35713168607397,0.5432943802409015,0.4567056197590987,21.31396872388535,19.541814911364554,1.0347745862123687,1.157891708190605,1.1681153499928323,1.200226138822344,-0.2295966018010649,-0.0950436238111525,-0.47226788256417335,2.0792412403281477e-05,0.050906816850981,0.4441475755267317,1.791759469228055,5.496356257144062,1.488245434621145,0.9344174045708421,1.1945063128187032,1.4627459648910535,1.8073602670725009,1.796362391449579,3.426546873354828,1.1509340156343446,Stress
77.38082876189905,775.5526315789474,28.61999055990625,,,,,,,30.34666373755112,30.547809228300622,0.03690270575401029,0.0391290835745968,776.5,31.875899999999998,0.0410507405022537,42.0,0.9431017131709185,750.0,798.0,11.842105263157894,50.0,717.0,861.0,7.6,46.875,,,0.03434116190111067,0.054920157452199914,0.006322779847572801,0.09558409920088339,0.6252924881178591,0.3592769319187483,0.5745742012672788,-2.9018748311491147,21.60056305572436,34.43625001819036,0.627262348377487,2336.8497876032625,1.5942292767717652,4.075600906859082,219.5971118449252,0.6052631578947368,0.6216216216216216,0.9130434782608695,0.13043478260869565,50.89527943570265,50.90380692546071,50.885715359287545,47.2972972972973,0.5163242554546903,0.4836757445453097,15.522868918452525,15.024079771252977,0.5593070487357714,0.44069295126422875,25.753781016321398,22.860404167001917,0.5471685577702885,0.45283144222971133,21.262839604531845,19.343229456991555,1.104869169345041,0.8717153267746909,1.1727503958594867,1.0550921579918535,0.3655788707226355,0.7807095934481829,-0.6349732352452303,5.8050711961980393e-05,0.026491136128555942,0.48910580112401325,2.302585092994046,5.675430473912967,1.5236588332914727,0.9613868326322953,1.1121255773932115,1.4337421725611768,1.8267058042172661,1.835985135505609,2.9535882526559036,1.1509340156343446,Stress
77.19337957412021,777.3684210526316,25.414873390864734,,,,,,,29.032625326231408,29.226502843625827,0.032693472879243735,0.037347317616682245,778.0,28.1694,0.03620745501285347,37.25,0.8753901207791229,754.0,798.0,10.526315789473683,48.68421052631579,730.0,861.0,5.846153846153846,54.6875,,,0.038266477176142975,0.04929056943115953,0.007454789557924692,0.09501183616522721,0.7763447981583357,0.4027548431923462,0.5187834634144148,-3.0100225056604617,20.666258351095735,29.1971953484614,0.7078165592430706,1895.6268981552,1.4127954297500278,3.984722972490472,164.99865659930012,0.6710526315789473,0.684931506849315,0.96,0.23809523809523808,49.34398174557899,49.31544431314509,49.371587002364066,47.94520547945205,0.4869734406884226,0.5130265593115776,14.422439348347309,14.803213675926422,0.5488353990695469,0.4511646009304532,21.630282576155224,19.611402088884205,0.5281856178796589,0.47181438212034105,18.383088438576923,17.374438509301914,1.0229284209103282,0.649225168940986,1.0229284209103282,1.1507264962865693,-0.004623713230643922,-0.3773728826100555,-0.3031529252251497,0.00030865986192337905,0.02217164947850061,0.5455837227839577,2.3978952727983707,5.530436394851731,1.5544539667063526,1.3077771542136467,1.2039779226914133,1.5111264405830263,1.9081619946748618,1.8662232412786526,2.911058874887544,1.1509340156343446,Stress
77.2117867030339,777.2763157894736,24.91189739018181,,,,,,,28.97585201508318,29.170965448973835,0.03205024633341489,0.03727870182903055,778.0,28.1694,0.03620745501285347,37.25,0.8597468463468855,753.0,798.0,10.526315789473683,46.05263157894737,733.0,861.0,6.333333333333333,54.6875,,,0.018323259014388023,0.03834628532843362,0.003348047744868827,0.060017592087690474,0.4778366107029772,0.3052981363800181,0.6389174239514083,-3.261097618221908,20.626987482727877,28.47069933669914,0.7244987992317911,1844.9466520921,1.380264537443446,3.972953922713245,157.18838660264186,0.6842105263157895,0.6986301369863014,0.9607843137254902,0.3,49.94158878504674,49.93976281040808,49.94312272255974,47.94520547945205,0.49240908369064634,0.5075909163093536,14.474348232537338,14.695789064089624,0.5913734942115796,0.40862650578842047,21.89419907539787,18.199581521770426,0.5573080792723368,0.44269192072766306,18.558861898159456,16.540722230056698,0.9701175984793414,1.2428778398866172,1.0010312995526032,1.1330032923368298,-0.6055589175783496,-0.22963904841979055,-0.39381740622532463,0.0004717603656416765,0.06062100133014208,0.48808895060667057,inf,5.550301855434981,1.524383202526425,0.8971097524969646,0.44793986730701374,0.7611306094308559,1.9555939530993929,1.8890690923702382,2.7298217273206085,1.233143588179655,Stress
78.06372081414891,768.9350649350649,26.214368128515073,,,,,,,24.80343779228576,24.961443952835065,0.03409178398013209,0.03225686917318611,771.0,26.686799999999998,0.034613229571984434,33.0,1.0568844669051536,748.2,793.2,6.493506493506493,42.857142857142854,696.0,841.0,7.0,109.375,,,0.026656086388991973,0.027238557333844556,0.0070099128685385875,0.06090455659137512,0.9786159399811953,0.4376698211241361,0.4472334888930444,-3.603121760415933,17.650406287257614,32.67788564956913,0.5401330574608441,1812.0013966214397,1.8513956629519812,3.9651286380403064,241.9987830642123,0.6883116883116883,0.7027027027027026,0.9423076923076923,0.25,51.44546649145861,51.4410298617896,51.44887988196305,50.0,0.51422277354778,0.48577722645222005,12.660437064598783,12.305283418109473,0.5036022732798923,0.49639772672010746,23.18984199881113,23.02336722976227,0.5060019533435748,0.4939980466564252,18.682283567547238,18.45935316575978,0.9372647448510469,0.4147216402232957,0.9358190553795567,1.1362813747294997,0.4223166985888831,-0.5609949209447269,-0.016634050632106916,0.00010529349058021452,0.014377812136178024,0.5314326019414235,2.9444389791664403,5.706794131879789,1.376914406167846,1.4292569253515555,1.0826833350715828,1.285415889125665,1.88168137692798,1.827760081186518,2.86081260953441,1.0580288964809574,Stress
78.4434350643214,765.1168831168832,23.519853889837762,,,,,,,24.546143442397156,24.70881297425053,0.03074021029835875,0.032081560326316004,769.0,22.238999999999997,0.02891937581274382,28.0,0.9581893768783758,748.2,783.8,5.194805194805195,41.55844155844156,696.0,807.0,6.416666666666667,101.5625,,,0.010614955813849079,0.01391696134167434,0.003232691997692614,0.027764609153216036,0.7627351656185603,0.3823196557629022,0.5012482352938978,-4.274646942325505,17.471769209162694,28.548701079617143,0.6119987441963508,1567.0148435051806,1.633990280998297,3.9020432202924487,186.59320039687998,0.6883116883116883,0.7066666666666667,0.9433962264150944,0.2631578947368421,50.36544850498339,50.368342347910215,50.36226621147327,48.0,0.4567709811971786,0.5432290188028215,11.80847153530041,12.877629181387903,0.5717590083780318,0.42824099162196816,21.58702831949471,18.682305576846414,0.5404256814756739,0.45957431852432584,17.398847543252206,16.044654483659034,0.9045815150232125,1.2229486964974225,1.0203704662223771,1.355254396998778,-0.8168063701604211,-1.392352301611027,-0.22616681980566902,0.0003551980364812847,0.08499977810894697,0.3966195414622309,2.268683541318364,5.571854397781564,1.4070343531200544,0.8803616274534329,0.9137444756095636,1.0151107526366048,1.9783036085190622,1.8369565546409066,3.7420365618847873,1.0580288964809574,Stress
78.72572350347122,762.1558441558442,24.21997051970528,,,,,,,25.10975905897944,25.26148166953694,0.031778238932919374,0.03294570165868208,763.0,25.2042,0.03303302752293578,34.0,0.9645640351552492,739.2,782.8,5.194805194805195,44.15584415584416,696.0,807.0,6.416666666666667,101.5625,,,0.014320321171824264,0.011508612000118608,0.0030821202207683956,0.028911053392711265,1.2443134907734033,0.49532339680969717,0.3980696186953891,-4.464659654300311,17.862564991349238,28.96033585149831,0.616794124313482,1625.1643564095898,1.6212865210300802,3.9178673986442334,187.8120086421536,0.6753246753246753,0.6933333333333334,0.9230769230769231,0.2777777777777778,47.88461538461537,47.905091831865484,47.864615414438994,48.0,0.4368921908259945,0.5631078091740056,11.813833698959312,13.412183515992712,0.5597182091059246,0.4402817908940754,21.666477589912976,19.216263983339157,0.5258391499450042,0.47416085005499575,17.44997016932791,16.57032691506182,0.9002297020283976,0.831042901970878,1.0466945820264768,1.194171384146901,0.19741306918939827,-0.5133339086834776,-0.32254008575168336,0.00027805548387175384,0.04932748323189858,0.3179439922849254,2.995732273553991,5.665946767883339,1.3938082980936422,1.3310274767221213,1.144488880743647,1.4208602268442359,2.1917426454240685,1.8635971779763079,2.6229047688617113,1.1394157346718001,Stress
79.07644619600693,758.8571428571429,23.131042189705912,,,,,,,24.071713034619133,24.231601810771604,0.030481418548181736,0.03172100738748756,759.0,22.238999999999997,0.02930039525691699,32.0,0.9609221477690275,738.4,777.4,2.5974025974025974,42.857142857142854,696.0,807.0,6.416666666666667,78.125,,,0.02652775284081879,0.038823792508163174,0.006277473941766714,0.07162901929074868,0.6832859730342163,0.370349239784231,0.5420120628843721,-3.248722011315429,17.134329959408824,28.02250348834639,0.6114489366210414,1508.425725680343,1.6354595455282825,3.885494040501091,183.3186832784628,0.6493506493506493,0.6710526315789473,0.8823529411764706,0.21052631578947367,50.13192612137205,50.13206182201021,50.13175551634892,46.05263157894737,0.4588310095826332,0.5411689904173667,11.606320117361346,12.604761005270984,0.5988710291107399,0.4011289708892603,21.68570691907162,17.747980650612483,0.5607619473845971,0.43923805261540266,17.392190075527253,15.392706343825882,0.9817533868311566,1.05585319109754,1.1054928682787533,1.4365284530224367,-0.5250696947275362,-1.3754721516882067,-0.18647574536420347,0.00038926409686317336,0.07666702322566424,0.33215620759878295,2.3978952727983707,5.558613488578267,1.4683027351361273,0.8741268903666202,0.9772718625996829,1.3610360447653571,2.1449222111040944,1.834529994181187,3.2699812274213276,1.1394157346718001,Stress
79.32418721753874,756.5512820512821,21.50363752732144,,,,,,,23.752238445435648,23.907188393231152,0.02842323850012832,0.03139541100377862,756.5,20.7564,0.02743740912095175,28.25,0.9053309891916183,738.8,772.6,3.8461538461538463,34.61538461538461,696.0,805.0,6.5,93.75,,,0.01570146267743808,0.032233574163249144,0.0056165643004260375,0.053551601141113264,0.48711516128856663,0.2932024877475338,0.6019161607943484,-3.4347466937634032,16.90493503195807,25.470802712924804,0.663698558011283,1352.7140807219505,1.506708110073971,3.8381761206859,153.50826007063162,0.6282051282051282,0.6493506493506493,0.86,0.15789473684210525,49.480249480249476,49.48825871747428,49.472606054691596,48.05194805194805,0.43774314587601576,0.5622568541239843,11.185046408392534,12.676387082827826,0.6097687945026349,0.39023120549736523,19.889562466789645,15.911225462559782,0.557161829966115,0.44283817003388515,16.135364239431073,14.385024942524343,1.0308262635713343,0.48404288433830045,1.0393586529556433,1.2526295816337847,0.4108888058043796,-0.5486749459822207,-0.05939662459930921,0.0001418085833997693,0.019541910653697588,0.4010970809331864,2.0149030205422647,5.631305423879506,1.4771045821048459,0.8722964742350777,0.0,0.0,2.0698026199023567,1.8291489156335323,3.162832405425782,1.0475670364770413,Stress
79.24741665714659,757.1298701298701,21.51764921208845,,,,,,,23.632604596192948,23.776355644196155,0.028420024174184988,0.03121340938792873,758.0,20.7564,0.027383113456464377,31.0,0.9105068857097028,736.4,774.8,3.896103896103896,36.36363636363637,696.0,805.0,6.416666666666667,93.75,,,0.053983565587653486,0.09384631515616067,0.01462763497460756,0.1624575157184217,0.5752337265221826,0.3322934328333575,0.5776668117886223,-2.366096779840727,16.812422307914144,25.12750642119842,0.669084390074242,1327.1791667007446,1.4945797792249187,3.829899665725293,150.22025199786984,0.5844155844155844,0.6052631578947368,0.8260869565217391,0.047619047619047616,52.060439560439555,52.06471476943526,52.055894497124854,42.10526315789473,0.43688451208594453,0.5631154879140554,11.118752927674338,12.623258955858692,0.6424894356085874,0.35751056439141266,20.141063010822183,15.024285664931256,0.5788597952127995,0.4211402047872008,16.26789915558515,13.875803155279437,0.9542634300527199,0.07508610163654983,1.0044995552392861,0.9808331515835457,0.9940330649029123,0.015979723477810515,-0.8151902035119148,3.569933813755487e-05,0.0012450654493532836,0.45375550400872333,2.4277482359480516,5.623802449729616,1.5108536731059032,1.0788065537334273,0.8815901311540403,1.0548769262940265,1.9749272828119115,1.9053309498328446,3.084581223889806,1.0580288964809574,Stress
79.05069716591258,759.2435897435897,20.37644801479477,,,,,,,25.867544725579776,26.036772723104267,0.026837826871447496,0.03407015228711475,759.0,21.4977,0.02832371541501976,28.75,0.7877225392267324,740.0,775.6,7.6923076923076925,37.17948717948718,721.0,811.0,6.0,54.6875,,,0.0476760713724756,0.10557540680751262,0.00964136149262673,0.16289283967261495,0.4515831178315955,0.2926836530586357,0.6481279779989104,-2.248329824913455,18.410778552719957,21.0837481508916,0.8732213276765683,1219.4664228658532,1.1451850387813582,3.7931399567887985,96.57917177534075,0.6025641025641025,0.6233766233766234,0.8125,0.1,49.656035021888684,49.68124660985711,49.62988383314005,44.15584415584416,0.42381072530714436,0.5761892746928557,11.985737137816852,13.975307171089865,0.6379495943298603,0.36205040567013946,16.83995794749706,12.686222937374078,0.5453052852010429,0.4546947147989572,14.615780485665338,13.346337755037371,0.724492483292172,1.4448992001899525,0.9451795210051901,1.1790282267860823,-0.5442017608804655,-0.8789775570650256,-0.33815569573977927,0.00047287724038118573,0.12399954771054736,0.46418602196174463,2.4849066497880004,5.59598635333895,1.5658547337373006,1.5600231228440962,1.4644547139264896,1.6237604715494047,2.006621424681495,1.9557149545318615,2.962059718602795,1.208731195935048,Stress
78.91206954982377,760.8461538461538,21.034342310696488,,,,,,,27.749107859767076,27.926418060693265,0.027645986254074852,0.036471378240518854,760.0,21.4977,0.02828644736842105,27.5,0.7580186871951222,741.8,778.2,8.974358974358974,41.02564102564102,721.0,820.0,6.5,70.3125,,,0.056605270407099825,0.0773012066015485,0.010272409577031162,0.14417888658567948,0.732268911388065,0.39260443569497033,0.5361478953828072,-2.560045714176193,19.74695958496668,21.319811144372636,0.9262258211972432,1322.615059414034,1.0796503154137898,3.828403573273941,92.07176330633737,0.6410256410256411,0.6578947368421053,0.84,0.15789473684210525,51.162790697674424,51.107805431107046,51.220444482598516,44.73684210526316,0.48486279536523236,0.5151372046347674,13.752511732311607,14.175358530692767,0.6392215630989323,0.3607784369010677,17.045473179692316,12.805709324832634,0.5679326554919115,0.4320673445080884,15.486764266091521,13.507904737334167,0.8595713753493867,0.4951788908354866,0.9040198469631919,1.0951251308930114,0.23984181810114968,-0.7360868021506131,-0.11406819340101806,0.00010547761507075653,0.01794637091880635,0.41261792675023345,2.70805020110221,5.5127783405739095,1.5590181991981988,1.1424418559117047,1.2573886846756148,1.5106929769663504,2.1239052938790044,1.9525051691200306,4.286417906257292,1.3698953553930542,Stress
78.38246447372225,765.6363636363636,20.552185881253788,,,,,,,25.04653563605995,25.210785077234828,0.0268432729391821,0.03271335692194959,764.0,19.273799999999998,0.025227486910994763,26.0,0.8205600239445664,751.0,783.0,5.194805194805195,40.25974025974026,721.0,813.0,5.923076923076923,85.9375,,,0.026472223151466745,0.065260465403509,0.016990415184237048,0.10872310373921279,0.4056395091237483,0.2434829603003607,0.60024468727498,-2.729368856314519,17.826717087149365,23.022938599457426,0.7743024206114801,1289.3831789137764,1.2914850494852934,3.8173521101376546,118.93512398566858,0.6363636363636364,0.6533333333333333,0.8571428571428571,0.15789473684210525,50.815394651011104,50.83499790206306,50.79569829682797,42.66666666666667,0.4186295278645886,0.5813704721354113,11.535163631262451,13.593625957288463,0.6324545576644348,0.36754544233556524,18.309455054440633,13.957777665653088,0.5522996064542592,0.44770039354574076,15.30189766647558,13.776905023089745,0.7307369870530783,0.985874520842072,0.8665808429637706,0.8759191577328067,0.27100916335163383,0.21223486085526577,-0.49052788709757916,0.00011756631698149259,0.04679106085182759,0.5221636389522293,2.890371757896165,5.519906345833512,1.5647712406129972,0.0,1.2056961966249748,1.4255553730053518,1.9584132835532309,1.944664163605984,3.4035472370798727,1.1394157346718001,Stress
78.26973527618536,766.5,21.67794578213843,,,,,,,27.00469095052438,27.17890676559624,0.02828172965706253,0.03523116888522424,766.5,20.0151,0.02611232876712329,27.25,0.8027474123608692,752.0,784.0,7.894736842105263,46.05263157894737,721.0,813.0,4.75,78.125,,,0.03215807489385592,0.0496835082912732,0.013672097519849715,0.09551368070497884,0.6472585370849188,0.3366855371555126,0.5201716437327427,-3.0020822260709803,19.218389279190035,23.682612316341423,0.811497862756002,1429.869703703746,1.2322891358010588,3.8622665743215174,116.73530345926355,0.5921052631578947,0.6081081081081081,0.8,0.1111111111111111,51.458080194410684,51.43543653227341,51.48099069346615,41.891891891891895,0.4209054009580575,0.5790945990419424,12.471860217998648,14.62896977769647,0.6383880979450379,0.36161190205496196,18.922216029298983,14.2413435695747,0.5520060373768937,0.4479939626231065,16.024942382997146,14.436457727285863,0.6972873462777671,2.1634022901068124,0.9649849716925183,1.4558906721259943,-1.767308080990471,-1.9617365809336857,-0.2730862620057415,0.0010811088417867925,0.2746546382610823,0.45253832101683544,2.456735772821304,5.4450386975402445,1.5329317028321081,1.1898302164538375,1.1173529045472197,1.1122914843778775,2.0858394667303863,1.943730978582033,4.699470894325979,1.3153531607249653,Stress
78.40864737145381,765.1558441558442,21.95213988793811,,,,,,,27.57048383593165,27.750441754030867,0.02868976307977722,0.036032507686520644,762.0,20.7564,0.027239370078740156,26.0,0.796218884607627,747.2,783.8,7.792207792207792,50.649350649350644,721.0,813.0,5.133333333333334,31.25,,,0.020130787019433494,0.04760770880201414,0.015004022216074926,0.08274251803752257,0.4228472137390871,0.24329434850296028,0.5753717669122025,-3.044760581235041,19.622525545197536,24.097535726089834,0.8142959416365836,1485.5162559685125,1.228054751188107,3.878847518601504,118.3723729613991,0.5974025974025974,0.6133333333333334,0.8260869565217391,0.10526315789473684,49.083619702176385,49.0750723116603,49.09239069277541,41.333333333333336,0.40292539380301184,0.5970746061969879,12.457126474432215,15.164212255614641,0.6259365808189241,0.37406341918107566,19.06504345155782,14.738227378500701,0.5370083786812088,0.4629916213187913,16.10366234447599,14.952736866435538,0.7207951745888966,1.1269451008002505,0.8496821718389173,1.0724418802972935,-0.5026762901200774,-0.95378432881229,-0.3023331320219652,0.000163762345867117,0.06385841196924467,0.41734836497104366,1.88706964903238,5.453420430524893,1.52281198538322,1.4938130855017944,1.092994074705095,1.1943603517321362,2.040822082203122,1.9439425800550543,5.877347967125105,1.220802572862643,Stress
77.84386500617802,770.8552631578947,23.69568396557675,,,,,,,27.008887426178813,27.18074305078492,0.030739472243472447,0.03503755985985474,768.5,22.9803,0.029902797657774885,36.25,0.8773291395412799,753.0,795.0,6.578947368421052,47.368421052631575,721.0,818.0,5.428571428571429,31.25,,,0.02726674156482297,0.04910754895091915,0.0213807331661705,0.09775502368191263,0.5552454184197808,0.27892931266168847,0.5023531998796436,-3.0137425095448718,19.219687728899142,27.348929850434082,0.702758310252278,1651.340138211763,1.4229643184738967,3.9248066471458,155.66620530245336,0.5921052631578947,0.6027397260273972,0.8409090909090909,0.15,51.665657177468205,51.66616672217991,51.66471742991753,41.0958904109589,0.44387783078357174,0.5561221692164281,12.809677507175495,14.338098935391715,0.6165195204599474,0.3834804795400528,21.474039777936152,16.93604379952944,0.5594164522159459,0.440583547784054,17.680811947167783,15.690931467899867,0.8448644628840878,1.381305461824176,1.0422809319799269,1.2994911154858786,-0.595239374012035,-1.0159044618163913,-0.3137919594075336,0.0004042279786306221,0.11172986442472693,0.39763531303475563,1.9459101490553135,5.440242276795504,1.4046928183799912,0.8330511275438011,1.0063379226837874,1.1277148766292124,1.9867859825582914,1.8759159136464845,3.6014748902207936,1.1509340156343446,Stress
77.44391192774417,774.8157894736842,21.445565525342396,,,,,,,25.415743152620976,25.586722345004656,0.02767827632928068,0.03280230410622549,771.0,23.7216,0.030767315175097273,36.5,0.8437906142095569,756.0,795.0,5.263157894736842,47.368421052631575,728.0,818.0,5.846153846153846,46.875,,,0.04691949770710491,0.08166629679679663,0.017634391436269978,0.1462201859401715,0.5745270637635345,0.3208824924234662,0.5585158866520098,-2.5051138861345925,18.092544878490152,24.54615068627897,0.7370827756143323,1395.188626435754,1.356699726386274,3.8516030372002796,133.2070236796437,0.5921052631578947,0.5972222222222222,0.8604651162790697,0.2,49.77433913604128,49.78113298837514,49.767634035685596,41.66666666666667,0.4282618118768963,0.5717381881231035,11.840151569519252,13.680475335506637,0.6320510922711164,0.36794890772888345,19.514592599496517,14.889398550283659,0.5603096956088913,0.4396903043911089,16.140144260717026,14.2977200034585,0.823477425539816,0.820388751843501,1.0245838021195977,1.2336718014615664,-0.5442235243975189,-1.5392577743324445,-0.24513546306903186,0.00035592157897571273,0.052210423351159434,0.44703073374765445,1.8458266904983307,5.346225868535942,1.5105517500859915,1.1163094924029913,1.548593017636052,1.781867776954464,1.8129610384723895,1.880097349363205,4.11828504234062,1.233143588179655,Stress
77.38020364483174,775.25,22.826957747365284,,,,,,,25.820921749620016,25.962842471293264,0.029444640757646287,0.03330657433037087,773.5,25.2042,0.032584615384615385,32.5,0.884048910752042,755.0,795.0,5.263157894736842,46.05263157894737,728.0,859.0,5.428571428571429,85.9375,,,0.05189192728768539,0.0759507409264179,0.01857712296325037,0.14641979117735365,0.6832313504085362,0.35440514475826795,0.5187190906072334,-2.577670294538066,18.358501970329566,24.921577900386747,0.736650867120443,1437.350383530973,1.3574951780196565,3.8645327591574743,135.32368731366498,0.5921052631578947,0.5972222222222222,0.8604651162790697,0.18181818181818182,46.870925684485,47.01341708741684,46.72054572880707,43.05555555555556,0.36663066954643636,0.6333693304535639,11.129762873557622,14.62850789531329,0.5662696766464889,0.43373032335351125,18.753709703086148,16.41290399098884,0.495931272670882,0.5040687273291181,15.420331534199406,15.546328516094414,0.8760137778693913,0.5655724234863211,0.8872642692298025,1.1405039241073407,0.2066339049864112,-0.7567739640031665,-0.052241862648624994,0.00016480515397887456,0.02507858583958238,0.415469085559232,1.8458266904983307,5.371227638666075,1.4595428108659911,0.8080302629045553,1.2511497508697804,1.7065223681734834,1.8570002785586384,1.8881458206222161,2.324915716445476,1.1509340156343446,Stress
77.51814127287089,774.3552631578947,22.824959406969917,,,,,,,26.469101483301873,26.612149227119676,0.029476082223406804,0.03418211606822216,771.5,22.238999999999997,0.028825664290343483,32.5,0.8623246777518732,756.0,795.0,5.263157894736842,46.05263157894737,728.0,858.0,5.066666666666666,46.875,,,0.04411315420511679,0.06663771516104637,0.007045244342880275,0.11779611370904343,0.661984794924414,0.3744873478090826,0.5657038510255239,-2.7084845680101624,18.81763118044466,24.525783454439406,0.7672591261111573,1449.8988799569197,1.3033406393854012,3.868307824329116,127.8618011557478,0.618421052631579,0.625,0.8888888888888888,0.19047619047619047,53.21563682219421,53.0891250185997,53.349686722814425,41.66666666666667,0.5282609523084535,0.4717390476915464,13.695037570377602,12.941657022440616,0.6482083678932711,0.3517916321067288,19.746048800791595,14.546738837650548,0.6036879657057479,0.39631203429425216,16.992064284502003,13.767608675752252,0.8428390661289965,1.0465155461546987,0.9556499838026891,1.247954578174069,-0.45513845159396027,-1.1864140000599077,-0.22068776670789103,0.0003379570446671143,0.06914474569304442,0.3969505627966021,2.0794415416798357,5.4450386975402445,1.541985904398516,1.368624492724832,1.461705717549651,1.6045202112653727,1.9202947402287933,1.9121736980141713,2.7438920323737617,1.233143588179655,Stress
77.42588887457866,774.9736842105264,21.775199155130913,,,,,,,22.168446043870553,22.31669677517161,0.02809798525909113,0.02860541782970834,773.5,21.4977,0.027792760180995472,30.25,0.9822609628134774,758.0,794.0,1.3157894736842104,39.473684210526315,730.0,827.0,5.428571428571429,70.3125,,,0.046852651422302306,0.05157852745674085,0.004817781194591306,0.10324896007363446,0.9083751268703404,0.45378327674088165,0.4995549342090845,-2.9646498276619195,15.780287623407801,26.610751061780874,0.5930042179858616,1319.2342552230496,1.6863286460195839,3.8272920296306965,179.49788723030858,0.631578947368421,0.6388888888888888,0.8695652173913043,0.3,49.41520467836257,49.42342693988969,49.4071808445408,44.44444444444444,0.4504856476205979,0.549514352379402,10.591939821826273,11.698348231752693,0.5644070841029212,0.43559291589707866,19.991867295426854,17.56295288708918,0.5347666036432125,0.4652333963567876,15.997874032932422,14.921606238362301,0.9873899487465367,0.5474632030380566,1.0129787866936648,1.0621294642033605,0.18493541059341823,-0.2743988550258103,-0.4102210390818193,5.124393778410566e-05,0.010300773763228136,0.4419238662940712,2.639057329615259,5.57016731601823,1.4609264571936587,1.3813612506717088,1.5151378524400103,1.6170132607195908,2.0899742544840616,1.8287183843454737,3.5287508883230183,1.0687244430890344,Stress
76.82733576964479,780.8133333333334,22.092981234315566,,,,,,,21.970188647100624,22.119952512346483,0.02829483090407724,0.02813756849323862,777.0,22.238999999999997,0.02862162162162162,28.0,1.0055890547499302,763.0,799.2,1.3333333333333335,38.666666666666664,730.0,827.0,5.357142857142857,62.5,,,0.03557520391221792,0.04233646329368598,0.0017325013846962293,0.07964416859060013,0.8402970192723578,0.4466768194302756,0.531570158153207,-3.16210654785347,15.641168421004608,26.66790325560581,0.5865166177890909,1310.412225196003,1.7049815293717663,3.8243780460496835,181.8731299115244,0.64,0.6527777777777778,0.8723404255319149,0.2631578947368421,49.73900074571216,49.75159705997296,49.72601688469913,45.83333333333333,0.4589434194686301,0.54105658053137,10.596264526605978,11.505210255084373,0.5193792335953188,0.48062076640468127,19.219016584545646,18.4880086968097,0.5039102713934605,0.49608972860653944,15.51856018441867,15.397667495224882,1.0230071093620723,0.7320043789189166,1.0545680481496398,1.32387603401664,-0.30766833399953875,-1.0897095354650927,-0.1320951163369595,0.00023428762552023968,0.03405491984785952,0.44111173661645475,2.427748235948052,5.575224690380495,1.4607947366131318,1.2481743983523972,1.4017634742054408,1.6274943490178821,1.989747544456492,1.8239367838308713,2.7043558874867304,1.1627128222258978,Stress
76.25770412230209,786.8918918918919,29.310135498613047,,,,,,,23.502841565305154,23.66419049365389,0.037247982601706434,0.029867942226216408,780.0,25.9455,0.03326346153846154,38.75,1.2470890133506498,763.0,812.0,4.054054054054054,37.83783783783784,730.0,871.0,6.166666666666667,62.5,,,0.020464457578407598,0.026780564169525026,0.0031828066396663484,0.050427828387598975,0.764153340790899,0.4058167530259967,0.5310671711596211,-3.620078872117823,16.733109569352898,38.1892168831617,0.4381632024701408,2007.5542049132478,2.2822546356300797,4.009637390227281,348.63006905071313,0.6486486486486487,0.6619718309859155,0.8723404255319149,0.29411764705882354,50.65028901734103,50.66012525865937,50.63960387629305,45.07042253521127,0.4782015673048308,0.5217984326951691,11.571936839709341,12.08793016010415,0.5677766530032229,0.4322233469967773,28.7759399088051,25.107002380093103,0.5533479390095647,0.44665206099043536,21.931306844980583,19.7038019690307,1.0022781562294973,1.7560330407276994,1.1915861081964816,1.5131849980943002,-1.1478226647720327,-1.155888665921387,-0.31686057013793534,0.0005722031844388934,0.15955267123576353,0.4308859084227077,1.7676619176489945,5.675537487192098,1.268112358207454,0.7884890696922213,1.1985156967804451,1.5561013135950783,2.0022303329380713,1.8012953857450926,2.580112150380692,1.0069383836155055,Stress
76.04448268831474,789.1756756756756,29.412213523156144,,,,,,,25.115623037224164,25.289300232321317,0.03726953887418543,0.03182513578579408,784.5,31.1346,0.03968718929254302,42.0,1.1710724229123821,764.2,812.8,4.054054054054054,45.94594594594595,730.0,871.0,7.4,54.6875,,,0.027674686798482357,0.026468830505086076,0.0022289047472464295,0.056372422050814865,1.0455575962513557,0.4909259845804748,0.46953509432727075,-3.6317874456199664,17.882235685736934,37.870277458239975,0.47219711303821044,2127.5029660922396,2.117759665165677,4.0348402841974265,320.80058443877437,0.6621621621621622,0.6805555555555555,0.8979591836734694,0.2222222222222222,49.80237154150197,49.801778664843695,49.80306379678164,50.0,0.49821924947880475,0.5017807505211953,12.622180653296184,12.667214900416482,0.5430144387042921,0.456985561295708,27.906423187125473,25.600575377618853,0.5348473741268549,0.46515262587314515,21.657422509885365,20.197125946511274,1.0973722782375608,1.2184004143584262,1.255942925316348,1.2587286025277213,-0.1276047787305039,0.08684458460688527,-0.4977136603217259,3.9818200054382955e-05,0.06052353113116861,0.3875800927900812,2.0149030205422647,5.912156068331652,1.3077272188459603,0.7783788273025936,0.6770125502755525,0.7783788273025936,2.211122075301269,1.7537384175159645,3.214409175446283,1.0069383836155055,Stress
76.15895190893782,788.1486486486486,31.07995981751622,,,,,,,27.729861259650256,27.92176229648208,0.03943413450090359,0.03518354222543626,783.5,33.3585,0.04257626037013401,45.25,1.1208119480475256,761.0,814.0,9.45945945945946,50.0,717.0,871.0,6.7272727272727275,70.3125,,,0.013441225766357577,0.015035798844829456,0.002543341174623131,0.031020365785810165,0.893948230158704,0.4333032646734965,0.484707335453387,-4.197321331606629,19.743667462521344,38.926769439492844,0.507200256964827,2414.493625748789,1.971607833923766,4.089796173164388,306.99329430499336,0.6891891891891891,0.7123287671232877,0.9038461538461539,0.29411764705882354,49.970149253731336,49.9673982606685,49.97276960748918,49.31506849315068,0.5107690663246219,0.4892309336753781,14.110427586245098,13.809718799936997,0.5498100716861853,0.4501899283138146,28.863879873140434,26.118380839254797,0.5418217115271537,0.4581782884728463,22.718139536477764,20.891124323473896,0.9806454391312083,1.3719270649243884,1.1030037811836753,1.4243095686128504,-0.8288169581550555,-1.15234081758005,-0.26579965827346413,0.0005321860752697277,0.10470229102145404,0.47107496511958713,1.8718021769015913,5.793846777761875,1.3093270838708584,1.2849221040112553,1.3203597069729611,1.5946691360413332,2.130342304366308,1.7856486713040434,2.5190979914448417,1.0908499155834641,Stress
