Subject_id,PPG_Rate_Mean,HRV_MeanNN,HRV_SDNN,HRV_RMSSD,HRV_SDSD,HRV_CVNN,HRV_CVSD,HRV_MedianNN,HRV_MadNN,HRV_MCVNN,HRV_IQRNN,HRV_SDRMSSD,HRV_Prc20NN,HRV_Prc80NN,HRV_pNN50,HRV_pNN20,HRV_MinNN,HRV_MaxNN,HRV_HTI,HRV_TINN,HRV_LF,HRV_HF,HRV_VHF,HRV_TP,HRV_LFHF,HRV_LFn,HRV_HFn,HRV_LnHF,HRV_SD1,HRV_SD2,HRV_SD1SD2,HRV_S,HRV_CSI,HRV_CVI,HRV_CSI_Modified,HRV_PIP,HRV_IALS,HRV_PSS,HRV_PAS,HRV_GI,HRV_SI,HRV_AI,HRV_PI,HRV_C1d,HRV_C1a,HRV_SD1d,HRV_SD1a,HRV_C2d,HRV_C2a,HRV_SD2d,HRV_SD2a,HRV_Cd,HRV_Ca,HRV_SDNNd,HRV_SDNNa,HRV_DFA_alpha1,HRV_MFDFA_alpha1_Width,HRV_MFDFA_alpha1_Peak,HRV_MFDFA_alpha1_Mean,HRV_MFDFA_alpha1_Max,HRV_MFDFA_alpha1_Delta,HRV_MFDFA_alpha1_Asymmetry,HRV_MFDFA_alpha1_Fluctuation,HRV_MFDFA_alpha1_Increment,HRV_ApEn,HRV_SampEn,HRV_ShanEn,HRV_FuzzyEn,HRV_MSEn,HRV_CMSEn,HRV_RCMSEn,HRV_CD,HRV_HFD,HRV_KFD,HRV_LZC,Labels
01,60.24742448453163,997.5084745762712,102.91381946700908,113.10926971982325,114.02012775900698,0.1031708723183786,0.1133917882430729,1013.0,97.85160000000016,0.0965958538993091,121.0,0.9098619390075742,909.8,1080.6,52.54237288135594,86.4406779661017,782.0,1246.0,11.8,242.1875,0.0055796147269116,0.0464537110569856,0.0135787797474928,0.0656121055313902,0.1201112806696336,0.0850394097510293,0.7080051871641465,-3.069298923329421,80.62440553015034,119.72783021204268,0.6733973662377524,30325.747189288133,1.4850072930741698,5.188781620116629,711.1868041953173,0.7288135593220338,0.7543859649122807,0.9534883720930232,0.4166666666666667,52.528856243441766,52.870823549715794,52.19977540109616,50.877192982456144,0.4651842568072936,0.5348157431927065,55.02654861638679,59.0013380758169,0.4824800567087613,0.5175199432912386,83.16388998991061,86.13083494910383,0.4770789516944282,0.5229210483055717,70.5129550185125,73.82302697589218,0.5461467691778351,1.79573932936697,0.8319596012468342,0.909895149491404,-0.6719203165003407,-0.3507379620542441,-0.4565997430862956,0.0002553616376677,0.1569285133868249,0.3639143302573626,1.421385680931161,5.814846439192349,1.1523194707153677,0.6299994923998176,0.9213587938586364,0.9976223120664994,2.00194570252294,1.920874470972458,2.4065952445971424,0.9970581439596342,Relax
01,58.2630710634705,1031.107142857143,83.76779128724152,109.46290363738429,110.36310745994555,0.0812406274823443,0.1061605521750808,1024.0,79.31909999999999,0.0774600585937499,98.75,0.7652619152579537,967.0,1096.0,55.35714285714286,89.28571428571429,806.0,1246.0,11.2,195.3125,0.0049857004571797,0.0458088298850429,0.0169753176311477,0.0677698479733703,0.1088371056342488,0.0735681221999913,0.6759470657665211,-3.08327841419419,78.03850167774715,86.39111790297225,0.9033162618105474,21180.09427932392,1.107031991205014,5.032897998920179,382.5509250982181,0.7321428571428571,0.7592592592592592,0.951219512195122,0.3636363636363636,53.00607971177661,53.26404421517429,52.7556008033982,50.0,0.4627771362498996,0.5372228637501004,53.14010133948157,57.25503374279757,0.5536507596438985,0.4463492403561016,64.2816541526901,57.71736473470693,0.5127739494767852,0.4872260505232146,58.97457685722056,57.4866640222238,0.3572829779991946,2.06575950247348,0.7523868449970861,0.7151711459743788,-0.4423330780888275,0.1787958933788426,-0.5180155042143804,0.0006263617442696,0.2370186682968884,0.3500457382968451,1.5686159179138452,5.700212064914747,1.3216854463630854,0.840093846785475,1.0593512767826485,1.0871134767536177,1.8733550598784496,1.990814873465,2.5404578560443563,0.9333248981878292,Relax
01,58.02282112409341,1033.2105263157894,87.2798734863283,110.4029955597738,111.35901925228676,0.0844744331027577,0.1068543077599563,1030.0,71.1648,0.0690920388349514,83.0,0.7905571134532641,977.2,1094.4,59.64912280701754,87.71929824561403,741.0,1246.0,11.4,265.625,0.0075298742930422,0.0603866972630776,0.0132362357098757,0.0811528072659956,0.1246942560915025,0.0927863686632733,0.744111008571119,-2.8069864422874176,78.74271765957525,86.3973604695415,0.9114018904239,21372.766782548308,1.0972108029476353,5.036830856768553,379.1844690133676,0.7719298245614035,0.8,0.9545454545454546,0.6666666666666666,48.12227074235807,47.79267671597695,48.37366715046845,47.27272727272727,0.3849838991816272,0.6150161008183729,48.87646765989837,61.776282592181694,0.5055947006930214,0.4944052993069784,61.433001010633866,60.74940561792645,0.4508447698461514,0.5491552301538488,55.51091200872867,61.26499560858731,0.4557873640845284,1.804487739879136,0.774561262077726,0.710409176349821,-0.3862731805757704,0.1829040640796089,-0.5355514112454995,0.0003183991718777,0.1615044432567444,0.4407060868153487,1.7346010553881064,5.69253913697176,1.2358377333638522,0.8482072829979097,1.1634077423416398,1.2658978798089953,1.8528578417412291,1.9631267394471148,2.866978125331709,1.0233140375727616,Relax
01,58.577160978913625,1025.8245614035088,85.21949031073851,90.660571836462,91.47158915956706,0.0830741371547423,0.0883782424866318,1030.0,68.19959999999999,0.0662132038834951,79.0,0.939984036990872,962.8,1090.8,57.89473684210527,82.45614035087719,800.0,1187.0,9.5,203.125,0.0117632675239358,0.025059135482229,0.0064672797705657,0.0432896827767306,0.4694203250657978,0.2717337427628111,0.5788708503934565,-3.686516828025121,64.68018098063975,102.06261685720318,0.6337303801560803,20738.999372045768,1.5779581211708862,5.023757908413924,644.2021405511053,0.7192982456140351,0.7454545454545454,0.926829268292683,0.4166666666666667,49.10385465259023,49.07628815280502,49.13445100965369,47.27272727272727,0.4534688441676101,0.54653115583239,43.56019868057204,47.821543262425145,0.4169170809255138,0.5830829190744861,65.90093001043857,77.9348778372016,0.4273920551752095,0.5726079448247904,55.85885554382417,64.65580091337334,0.7448086117685611,0.821321702016403,0.8565286153814223,1.0916742781273394,-0.142006460338588,-1.013788417325206,-0.2136984665465215,0.000195663383681,0.0450524354656986,0.3902953827746258,1.475906519809578,5.69253913697176,1.3373648945050027,0.981829160280792,1.04733625829906,1.297637466339349,1.801963398728876,1.895246891641712,3.9599277789964074,1.125645441330038,Relax
01,58.74470223812367,1022.4561403508771,86.17674325300437,90.1256067940738,90.93622533359344,0.0842840488232884,0.0881461837210399,1030.0,72.64739999999999,0.0705314563106796,103.0,0.9561848881628936,955.6,1085.4,57.89473684210527,82.45614035087719,800.0,1187.0,11.4,226.5625,0.0068391069416319,0.0178173647916002,0.0048922555537357,0.0295487272869679,0.3838450310483686,0.2314518278642821,0.6029824776736962,-4.027581747133934,64.30162158889182,104.56153271340574,0.6149644130135037,21122.42315153807,1.626110355068695,5.031713848680401,680.1143643484927,0.7368421052631579,0.7636363636363637,0.9285714285714286,0.4545454545454545,50.65805810777253,50.66161359819807,50.6515614441053,45.45454545454545,0.4570434874369871,0.5429565125630129,43.47350290171537,47.383637375248966,0.4235163748864078,0.5764836251135922,68.04669617073156,79.38993175223649,0.4327171526868642,0.5672828473131359,57.09771586629936,65.37572314909357,0.8167448310081272,0.9432843791611444,1.012877913083884,1.1369347631554203,0.1821156949301698,-0.5121052488486559,-0.3684841466559011,0.0003455113808107,0.0653271174610144,0.3905710195837062,2.079441541679836,5.727626856270007,1.3273526153289614,0.9878109296453568,0.8958797346140276,1.0789817827253791,1.90390497169486,1.854542497747282,3.5427548548929355,1.125645441330038,Relax
01,60.24211180351972,998.6101694915254,98.1538231463586,120.05695487473062,121.09516513867804,0.0982904301849206,0.1202240459216047,1007.0,78.57780000000017,0.0780315789473685,106.5,0.8175604924243988,930.4,1073.0,61.01694915254237,83.05084745762711,737.0,1187.0,14.75,250.0,0.0158039363990368,0.0303606833286098,0.005238751983956,0.0514033717116026,0.5205395487309168,0.3074494118343913,0.5906360286820811,-3.494606819178031,85.62721243846404,110.25890514851534,0.776601330505929,29660.28736202398,1.2876619711023858,5.17914546431217,567.9047965405131,0.711864406779661,0.7368421052631579,0.9285714285714286,0.3076923076923077,49.14841849148419,49.1983072511644,49.09700991469901,49.122807017543856,0.4784107043958501,0.5215892956041498,59.23103738306197,61.84622979900131,0.4307790525043442,0.5692209474956558,72.36706579954081,83.1867414442604,0.4487005770544476,0.5512994229455525,66.12604631273804,73.29730585930533,0.6467187244398972,1.520540324865027,0.9327982422878304,1.2660187850872398,-0.6691679259499992,-1.3899024014332553,-0.2808538600717555,0.0010349424804629,0.1750725730002414,0.3159131555784005,2.833213344056216,5.780948134107604,1.325779567928076,1.1106628141225792,0.9515421046459682,0.9829564081810817,2.1365599816337384,1.933423218556188,3.095531307439265,0.9970581439596342,Relax
01,61.27957261806869,980.9666666666668,94.95546978946422,128.389040664349,129.48092882459997,0.0967978556418473,0.1308801257239617,1001.5,79.31909999999999,0.0792002995506739,116.75,0.7395917073460258,901.4,1055.2,55.00000000000001,76.66666666666667,779.0,1168.0,15.0,250.0,0.0224550273173606,0.0398291202333076,0.0101580675720574,0.0724422151227256,0.5637841656010865,0.3099715722292478,0.5498053885546205,-3.223156970074015,91.55684280620731,99.21083259654807,0.9228512694630177,28536.438857165664,1.0835982276774383,5.162369885286336,430.01872947209023,0.7,0.7241379310344828,0.9047619047619048,0.3,49.12183398040304,49.19614754082435,49.05204543368971,51.72413793103448,0.4759768482768334,0.5240231517231665,63.17101856236684,66.28270175335446,0.4949386217028524,0.5050613782971476,69.79668023682036,70.50682755889204,0.4862165565641256,0.5137834434358745,66.56633592998733,68.42736763950326,0.8086338619608826,1.417807664188907,1.0910858993738002,1.4064824022883935,-0.0970695281638462,-0.8763450713315684,-0.2775463408183618,0.0021259490222509,0.2068736226641814,0.2890681446434118,2.70805020110221,5.873557262275184,1.2677204710585246,0.0,1.0793720283840775,1.1968729356955117,2.32558010658296,1.8578123325744256,3.617516565942055,1.0829299425282284,Relax
01,62.107000275787584,967.5,90.2535975150397,127.11625534478804,128.1950748130056,0.0932853721085681,0.1313863104338894,974.0,82.2843,0.0844808008213552,108.0,0.7100083090886946,901.4,1046.4,48.333333333333336,73.33333333333333,779.0,1170.0,15.0,164.0625,0.0387994268430024,0.0784965350417583,0.0328234367496766,0.1501193986344373,0.4942820319694622,0.2584571161085228,0.5228940147362889,-2.5447007947633904,90.64760671499302,86.40728486562466,1.049073661508548,24606.881268170844,0.9532219106159036,5.098026683686811,329.4612686829736,0.7,0.7241379310344828,0.9285714285714286,0.1666666666666666,51.01167315175098,50.88918026559258,51.15400206372343,51.72413793103448,0.511052557601898,0.4889474423981018,64.8083381182944,63.39123185316774,0.4675334930519606,0.5324665069480395,59.08220875907848,63.05165728192939,0.4903367618554799,0.5096632381445201,62.01140250593636,63.22167255720125,0.9056658334034574,1.552709367625258,1.2763729718044845,1.4565493259257922,0.0502335171835994,-0.4945066916029184,-0.3839600263397181,0.0019172595901234,0.225707916560309,0.3450220111975035,2.03688192726104,5.806890595608518,1.2221214361137465,0.0,0.9571603491222738,1.1086943000148528,2.091752922383152,1.8337395574781044,3.420146613059596,1.1813781191217037,Relax
01,62.53332433376032,962.0491803278688,88.87039743910009,135.62183944090026,136.7663220100555,0.0923761479728227,0.1409718361744042,974.0,83.0256,0.0852418891170431,109.0,0.6552808736813146,891.0,1030.0,52.459016393442624,77.04918032786885,779.0,1142.0,15.25,195.3125,0.0261643047323653,0.0624577562051963,0.0148319847383843,0.1034540456759461,0.4189120186515532,0.2529075065302041,0.6037246373219242,-2.773264851480508,96.7083937312532,78.64370325809239,1.2297029479127686,23893.40246496791,0.8132045236594302,5.085248108457748,255.8136609872424,0.7049180327868853,0.728813559322034,0.9069767441860463,0.2727272727272727,49.95672494374242,49.99431798657663,49.918000417627866,52.54237288135594,0.4831292582346635,0.5168707417653364,67.21959964378831,69.5272779050162,0.4941982808041114,0.5058017191958887,55.28592381587868,55.93119603559136,0.4875354182323802,0.5124645817676198,61.54270041380345,63.09651758557324,0.6427296925338258,1.8786413076180903,1.0429299631560125,1.3993709083450174,-0.3754346761610421,-1.0133656670924087,-0.3102666305996791,0.0032115753677875,0.3462470369078755,0.3785393260160599,2.120263536200091,5.799589796579279,1.2768243359279308,1.1968729356955117,0.8432566261738648,1.0165434213138511,2.14884971385692,1.867822283412196,3.59211315010342,1.36115283157181,Relax
01,63.20501026691189,952.2786885245902,95.15060538387569,138.00712541990964,139.16493892496305,0.0999188646459126,0.1449230430996314,966.0,105.2646,0.1089695652173912,142.0,0.6894615411658213,856.0,1037.0,50.81967213114754,80.32786885245902,768.0,1142.0,15.25,289.0625,0.0239294381941065,0.0670687550332358,0.0210694302393393,0.1120676234666817,0.3567896583475922,0.2135267747622122,0.598466827068709,-2.702036991242923,98.4044720172531,92.42032757544492,1.064749223453284,28571.44541678504,0.9391882876953092,5.162902321666027,347.2003568152867,0.6885245901639344,0.7118644067796611,0.9047619047619048,0.25,50.69280162216966,50.66218749245439,50.71761316371074,55.932203389830505,0.5081793345572728,0.4918206654427272,70.15273893199763,69.01436843764823,0.4259847712915679,0.574015228708432,60.32044548963309,70.02114541397296,0.46965909719681,0.5303409028031899,65.42156725319569,69.51957945763266,0.6324167771717197,1.1647753823467366,0.6273724224476918,1.143132995378356,0.0100378760460984,-0.8466191780204375,-0.0572016881988583,0.0013108701606864,0.1350823947030716,0.371884424792094,2.9957322735539917,5.897950452316984,1.1831374224621567,1.133732460554052,1.1968729356955117,1.2168836126138958,2.3489531157817325,1.866542146720354,5.596419625090839,0.972252022551293,Relax
01,63.868533565609305,941.758064516129,88.92134772616973,130.30871289264468,131.38753215795393,0.0944205853674925,0.138367504141944,946.0,91.1798999999999,0.0963846723044396,118.75,0.6823898859274891,856.4,1007.8,50.0,80.64516129032258,779.0,1142.0,15.5,210.9375,0.0192528300455247,0.0467813164049921,0.0152562339096225,0.0812903803601394,0.4115495570678336,0.236840201266487,0.575484038796936,-3.0622713778844526,92.9050149522548,86.11033873559242,1.0789066251095107,25132.999806216285,0.9268642686279718,5.107214437851388,319.25038453388714,0.6451612903225806,0.6666666666666666,0.9,0.1333333333333333,50.4395218002813,50.46819315240947,50.40481613359679,56.66666666666666,0.4949565650578006,0.5050434349421993,65.3628972226089,66.02556323122128,0.422169173431462,0.577830826568538,55.94980235762577,65.4569328131183,0.4613223165789978,0.5386776834210022,60.83867485896911,65.74186281700985,0.6579167457667894,1.3291754448537751,0.8893009790299908,1.213901267960686,-0.4907799556766949,-1.2778167676955252,-0.2557882293210697,0.0008024029550794,0.1358939610270168,0.3710068599510352,2.3978952727983707,5.857422116838488,1.2597119512770725,1.0474136855066063,1.106048193531495,1.3144721664925096,2.3165685136940297,1.9004478803614384,5.123874178466758,1.152425092332943,Relax
01,63.22113995492419,949.6612903225806,72.97808868294626,88.75154120111814,89.4706014542775,0.0768464392795847,0.0934559954222953,950.5,71.9061,0.0756508153603366,92.25,0.8222740438678359,885.4,1005.2,45.16129032258064,83.87096774193549,792.0,1127.0,12.4,195.3125,0.014060537040157,0.054944280839014,0.0090098193972772,0.0780146372764482,0.2559053795126413,0.1802294739938725,0.7042816932458017,-2.901435682911942,63.2652690051586,80.27396225672084,0.7881169338923693,15954.74736009003,1.2688472446102357,4.909860041588312,407.4215832935452,0.5806451612903226,0.6,0.8888888888888888,0.0555555555555555,51.32919254658387,51.212340854610815,51.44857344460608,55.00000000000001,0.5343287123272846,0.4656712876727155,46.25454932580506,43.180724866542015,0.4111450853703978,0.5888549146296019,51.47214317146857,61.59973614983495,0.4583537348173974,0.5416462651826028,48.9329380683272,53.1935263623746,0.7329697090604405,1.2125387590226475,0.9228359950060364,1.1983896284076965,-0.4676766148466118,-1.186771319153888,-0.2727465358519619,0.000394997447193,0.0958340383838586,0.3395277633788294,1.9459101490553128,5.825164052322358,1.3679419888876585,1.0438997104319372,0.6597643324038146,0.833051127543801,2.169496061064392,1.900157464155279,3.775918432409168,1.248460516694022,Relax
01,63.801467642398286,941.904761904762,70.74162763312935,97.62461019706572,98.4123048997676,0.0751048625023112,0.1036459461141749,947.0,75.6126,0.0798443505807814,93.5,0.7246290406725292,878.4,1000.4,53.96825396825397,88.88888888888889,792.0,1124.0,12.6,195.3125,0.0196247539803733,0.0539148524001067,0.0058212745839392,0.0793608809644193,0.363995320523857,0.2472849814907154,0.6793630784451468,-2.920349284292454,69.58800814682375,72.25464052735055,0.9630939637777676,15796.105405158276,1.038320286088667,4.905520133021098,300.0938360943697,0.6190476190476191,0.639344262295082,0.9230769230769232,0.1052631578947368,50.89536138079828,50.86778922326349,50.91570244877608,52.459016393442624,0.4954568916643397,0.5045431083356602,48.98669943271821,49.43384385249427,0.469500334663239,0.5304996653367611,49.50894795069672,52.62696220144052,0.4819920226488434,0.5180079773511566,49.248515959855446,51.05537223732991,0.711600247273382,0.7195077732628257,0.8954561788206528,0.8944478061363966,0.5740639599490436,-0.0679894564484144,-0.5014014757334495,0.0002438164374748,0.039999166192485,0.3159859124548347,1.6094379124341007,5.774821391719543,1.465758128616462,1.0357680164036986,0.7489330683884978,0.8888370153723535,2.3661622638058906,1.9658673052934363,4.582249526949762,1.328284427444426,Relax
01,64.49131986451985,932.6984126984128,74.76514517423011,105.34704552098268,106.20703069283148,0.0801600433283951,0.1129486703169147,947.0,84.5082,0.0892378035902851,108.0,0.7097032935711389,860.0,1002.6,61.90476190476191,88.88888888888889,781.0,1077.0,12.6,171.875,0.0241008639370487,0.0718897041925667,0.0321310475859645,0.1281216157155801,0.3352477828047699,0.1881092726035457,0.5611051951776527,-2.632622220717777,75.09971161258892,72.39313683794508,1.0373871736032467,17079.908401340806,0.9639602507582714,4.939455647222335,279.13642535793355,0.6666666666666666,0.6885245901639344,0.9523809523809524,0.1666666666666666,49.9808355691836,49.98504453601739,49.97614723326922,54.09836065573771,0.4936867439061964,0.5063132560938035,52.76719671519729,53.43772229366092,0.482868908002517,0.5171310919974832,50.305099956765375,52.05922761218499,0.488476272612396,0.5115237273876041,51.55084931812706,52.752977847282274,0.5835162312440774,0.7061195055010256,0.7362574928437235,0.8345338396705839,0.3676031261343597,-0.4296947306962499,-0.3608219344441865,0.0002147782033377,0.0373060831615589,0.3206259458814764,1.7047480922384255,5.711329328227482,1.54282975331328,0.7271802241410904,0.7008400952266338,0.772760613339579,1.9364454750505664,2.001428457721897,3.5072708568302486,1.2334069683412527,Relax
01,64.18893250373364,936.190476190476,70.44097440819537,100.50252765237364,101.32239464858776,0.0752421395001069,0.1073526490691681,947.0,75.6126,0.0798443505807814,95.0,0.7008875901294979,876.0,1003.6,61.90476190476191,87.3015873015873,781.0,1072.0,10.5,171.875,0.0390196129650787,0.08469160965438,0.0403827713681723,0.164093993987631,0.4607258395998703,0.2377881847888955,0.5161164500680253,-2.468738741801335,71.64575234207595,70.34511228823972,1.0184894161303897,15833.402329730705,0.9818462363598854,4.906544357373692,276.2723349860868,0.6190476190476191,0.639344262295082,0.9487179487179488,0.1,49.79318495174316,49.80181455740495,49.78518487462408,52.459016393442624,0.4855049205824539,0.514495079417546,49.9217420355986,51.39058088092299,0.4781649003743458,0.5218350996256541,48.64327131345762,50.81601104740912,0.4819021604506672,0.518097839549333,49.28665220900837,51.10410346561758,0.4955708298495745,0.7723665658181491,0.6822951249676956,0.6739922651264314,0.6443925317645651,0.120186734210586,-0.5107498954624857,0.0003070029703957,0.0465708328646388,0.2261810159782684,1.223775431622116,5.711329328227482,1.5334544328636266,0.9753783304540272,1.069455380418721,1.2715006482754927,2.237229012053806,1.987207006347148,5.561028688384794,1.1385295092380794,Relax
01,63.50483838079236,946.4354838709676,73.2323096677295,114.39541719583802,115.34363484111576,0.0773769696041041,0.1208697466920356,955.5,74.13,0.0775824175824175,94.24999999999989,0.6401682118293273,886.8,1013.2,67.74193548387096,88.70967741935483,781.0,1123.0,12.4,210.9375,0.042675236361126,0.0968579732514268,0.0361679848089089,0.1757011944214618,0.4405960080369263,0.2428852945572991,0.5512653090968154,-2.334509566741494,81.56026636285787,65.11792161799234,1.2525010678523016,16685.108639989234,0.7984025129134044,4.929299148737693,207.9612490220128,0.6612903225806451,0.6885245901639344,0.9523809523809524,0.1666666666666666,49.73113616652212,49.75494464497008,49.71002132215233,45.90163934426229,0.4630479853181586,0.5369520146818412,55.50037537410594,59.76551402495143,0.6243338894853836,0.3756661105146163,51.45279666713616,39.91182069233795,0.5258347103301045,0.4741652896698953,53.51486686677041,50.817664732079145,0.5051075749302257,0.6164865543436898,0.6434593764357971,0.729312722864401,0.56505798298255,-0.2658658854982461,-0.3607376822354169,0.0002546056221597,0.0335168541329636,0.2898349814186454,1.504077396776274,5.748472318416495,1.636904170568735,1.2166985644675914,0.981017338575026,1.4289919208724744,2.1817610933843223,2.022435451707911,5.7996935758788135,1.248460516694022,Relax
01,63.07448327960286,953.5645161290324,82.48469723306792,117.66059830479624,118.63276669341118,0.0865014331362833,0.1233902859372704,959.0,89.69729999999991,0.093532116788321,121.74999999999989,0.7010392469651887,879.6,1022.0,70.96774193548387,88.70967741935483,781.0,1133.0,10.333333333333334,242.1875,0.0191144243207426,0.114356408096115,0.0389522415805104,0.1724230739973681,0.1671478200388839,0.1108576936810346,0.6632314657483754,-2.168435320764601,83.88603379983265,82.16452241186214,1.0209520038264346,21653.288833790422,0.979477973746162,5.042493978960201,321.9133597031674,0.6451612903225806,0.6666666666666666,0.95,0.1052631578947368,50.507403094327074,50.51895932521757,50.493572447911625,41.66666666666667,0.4472358893289994,0.5527641106710006,56.10139629872563,62.3699313237824,0.6979777855925833,0.3020222144074167,68.6444035087606,45.154785018820014,0.5700030508386217,0.4299969491613782,62.68740224215792,54.44705200205602,0.6377229093074537,1.0948572945381556,0.867260469816741,1.1851515565765314,-0.9108334584580478,-1.9015080115170544,-0.2096506655747435,0.0006858731529048,0.0949762549193118,0.3367143098298992,1.5260563034950494,5.857422116838488,1.6408818198019317,0.91653061674783,0.5548008710137486,0.9571603491222738,1.9808843171023165,1.9917850584111083,6.312045096866486,1.3444959410551007,Relax
01,63.539234895288615,945.516129032258,92.24410629100214,135.37470766509463,136.48046358322026,0.0975595269701158,0.1431754610084246,955.5,98.5929,0.1031846153846153,150.7499999999999,0.681398378485929,850.6,1022.0,74.19354838709677,87.09677419354838,776.0,1133.0,12.4,242.1875,0.0491200636966268,0.0702730603367041,0.0109933347909813,0.1303864588243122,0.6989885378731837,0.3767267256089307,0.5389598043412832,-2.655366763613444,96.50626129917868,87.2692711271276,1.1058447040149482,26458.59097797736,0.9042861048837492,5.129536822572803,315.6655570543762,0.6612903225806451,0.6833333333333333,0.951219512195122,0.1111111111111111,49.03971119133574,49.00067159747932,49.07749616053282,41.66666666666667,0.4412539527061783,0.5587460472938219,64.11448094359547,72.14712976503868,0.7056401600314227,0.2943598399685772,73.30827386988427,47.34788976584015,0.5601748958655015,0.4398251041344982,68.86497543907434,61.02061536321754,0.7502046385285285,0.7675547428065398,0.9596900296158944,1.1339820099317983,-0.7679794737109891,-1.786917511464264,-0.2729256682349315,0.0003200590433645,0.0455213873926927,0.3720648684942746,2.3513752571634776,5.889680181354617,1.556953213330017,0.8624968864578968,0.0,0.0,2.141193951461792,2.003127035207481,7.1338594141469285,1.152425092332943,Relax
01,63.87022211594126,940.1428571428572,93.0287602326009,129.12303460078735,130.1238487874844,0.0989517279483674,0.1373440574693073,949.0,105.2646,0.1109216016859852,143.0,0.7204660308690859,852.2,1022.6,71.42857142857143,85.71428571428571,774.0,1133.0,15.75,125.0,0.0382531413003118,0.0879632331297945,0.0141630639503219,0.1403794383804283,0.434876481221049,0.2724981788048318,0.6266105217732395,-2.430836357152146,92.01145587172311,92.74002331737606,0.9921439803485964,26807.664271169768,1.0079182253856374,5.135229085886761,373.8974388970892,0.6349206349206349,0.6557377049180328,0.925,0.1052631578947368,48.273782602140805,48.21083326337803,48.33514816319246,47.540983606557376,0.4517935864085804,0.5482064135914195,61.871363115503534,68.15405644447044,0.6335112967700249,0.3664887032299752,73.81495894934534,56.143243228494704,0.5433318490768423,0.4566681509231578,68.10548340061918,62.43812605311749,0.7973620447949888,0.7283599649163611,0.9873856037634424,1.1615420272531694,-0.5042308347532609,-1.5058984932818666,-0.2608923720708269,0.0002356526993286,0.0386033011638625,0.3291059381467955,2.833213344056216,5.9137878600078535,1.62542402692058,1.4836500411109528,0.0,0.0,2.3356294456693973,1.9654510820564983,5.42299108055157,1.1385295092380794,Relax
01,63.16188486046912,953.6612903225806,97.14784128924444,145.1349852186792,146.33254104369954,0.101868286230202,0.1521871409602738,966.0,120.0906,0.1243173913043478,155.0,0.6693619814882602,862.4,1044.6,75.80645161290323,88.70967741935483,725.0,1133.0,15.5,296.875,0.0362058592943182,0.0802792442652281,0.0189686983565228,0.1354538019160691,0.4509990051064831,0.2672930459106076,0.5926688149733244,-2.52224416883488,103.47273208025872,90.62465225107576,1.141772459369966,29459.280937406504,0.8758312497323708,5.17619225203637,317.4876097504848,0.6451612903225806,0.6666666666666666,0.95,0.1111111111111111,50.58503401360546,50.50426249675921,50.66451384108087,45.0,0.5034656015889003,0.4965343984110998,73.42286201631387,72.91570475556001,0.6334323276834092,0.3665676723165908,72.12676688138352,54.86854376477447,0.5598804668946574,0.4401195331053428,72.77769976932531,64.52618497504315,0.6295211893046708,1.2828174568951438,0.8142697747800591,1.2709299177522428,-1.6155359728954144,-2.623443036748923,-0.1440178292572841,0.0010329700720987,0.130325828143218,0.3575975989887761,inf,5.889680181354617,1.5428420299416266,0.0,0.4479398673070137,0.7489330683884977,2.26774820999669,1.9875321591878976,5.241005674901271,1.056389667971865,Relax
01,62.87383120328207,958.2295081967212,105.63181235508914,163.47344330706034,164.84185538914437,0.1102364427848565,0.1705994669426312,959.0,124.5384,0.1298627737226277,163.0,0.6461710857626926,862.0,1048.0,78.68852459016394,91.8032786885246,725.0,1226.0,15.25,164.0625,0.0431798720439518,0.0799627550509395,0.0291153640000941,0.1522579910949855,0.5399998038642424,0.283596753992467,0.5251793648128139,-2.526194314579083,116.5607937690362,93.79845565085746,1.2426728453068157,34347.731313192366,0.8047170289241334,5.242868166911943,301.92485819612045,0.6885245901639344,0.7118644067796611,0.9761904761904762,0.2352941176470588,50.69580078125,50.665932995805086,50.71640158670837,45.76271186440678,0.4750756822629713,0.5249243177370286,80.34580980077537,84.45593575791912,0.6517611089199582,0.3482388910800416,75.7251093400164,55.35212821498769,0.544515369868018,0.4554846301319821,78.06965267342942,71.40260213281515,0.5127502850906296,1.191686926213546,0.6396666605804822,0.9611400768012952,-0.8212869834123957,-1.4403878159339656,-0.2302366845273201,0.0002475326572199,0.077789726169019,0.3429945584127489,2.03688192726104,5.83237668182518,1.6117090038382105,0.888786465544228,0.7838735539822873,0.911579959923785,1.8296689082266904,2.0082594616115563,6.68071426037232,0.972252022551293,Relax
01,62.676570919263376,960.7540983606556,108.57895065154278,167.9264223799618,169.32298808426845,0.1130142987022508,0.1747860588536612,972.0,127.5036,0.1311765432098765,171.0,0.646586458001616,857.0,1056.0,75.40983606557377,90.1639344262295,725.0,1226.0,20.33333333333333,179.6875,0.0282867781015594,0.1297320462360337,0.0498553430099307,0.2078741673475239,0.2180400211224195,0.1360764469318098,0.6240893127386422,-2.042284138487043,119.72943308515518,94.871285833524,1.26201971474542,35684.99051376926,0.7923806485081133,5.25945569560516,300.69668397426534,0.6721311475409836,0.6949152542372882,0.926829268292683,0.2666666666666666,50.93955715140635,50.83701525560477,51.04278229168074,44.06779661016949,0.4924049488255314,0.5075950511744685,84.02622673701953,85.31243675107856,0.6709567481024266,0.3290432518975735,77.71091980064172,54.42034380123342,0.5612619683063147,0.4387380316936856,80.93019781244448,71.55342648626697,0.490268264937495,1.260457932406253,0.6450946254386681,1.051051100180063,-0.9184123572861562,-1.779479002918194,-0.1779293744723303,0.0005012943876576,0.1074163407455813,0.3507425693677026,2.9444389791664407,5.799589796579279,1.5024101493710054,1.136998617702687,1.0107628169586376,1.0826833350715828,1.9576995656461371,2.008257865441775,6.218245319481476,1.2639276293166808,Relax
01,64.35181740881671,938.015873015873,110.45265984377316,170.61657636065806,171.9609589145121,0.1177513760920164,0.1818909266557485,950.0,134.9166,0.1420174736842105,172.0,0.647373556542904,831.2,1038.6,76.19047619047619,85.71428571428571,686.0,1226.0,21.0,125.0,0.0337914857081638,0.1566195633132393,0.0575721769001301,0.2479832259215333,0.2157552032026855,0.136265207384858,0.6315732152093093,-1.85393557785606,121.59476014779278,97.1984217130134,1.2509952117001617,37129.91423745395,0.7993635712169934,5.276694056057233,310.7875099886789,0.6984126984126984,0.7258064516129032,0.9333333333333332,0.2857142857142857,51.45743816049239,51.48119127672768,51.415142059317766,43.54838709677419,0.5127982220951551,0.487201777904845,87.09844627926662,84.89685158965594,0.5519972918771561,0.448002708122844,72.21504505442064,65.05782390526744,0.5280753250393357,0.4719246749606641,80.00360015797507,75.63066792355087,0.47443647385311,1.4134790347764936,0.7102771626248692,1.0332145576000586,-0.5326190664206614,-1.2089619277429,-0.2715301132667639,0.0009174029099999,0.150206431514382,0.4177037033619659,3.1780538303479458,5.818549764769758,1.5714856929329704,1.1442212525609734,0.9917737587646211,1.6215223608985585,2.0211473406096063,1.973038410264446,3.517359527361956,1.1385295092380794,Relax
01,65.29972307359351,920.25,110.0236626785636,156.2308527950845,157.44603509855042,0.1195584489851275,0.1697700111872692,900.5,129.7275,0.1440616324264297,184.4999999999999,0.7042377399224264,817.8,1025.8,65.625,85.9375,725.0,1226.0,16.0,164.0625,0.0173597550804173,0.0627292789513888,0.0164149662576306,0.0965040002894369,0.2767408675918318,0.1798863780605117,0.6500173957892917,-2.768926971417645,111.33115908912016,107.66831332292897,1.034019719016172,37657.76257571559,0.967099545211246,5.282824622937008,416.5039073930661,0.65625,0.6825396825396826,0.9069767441860463,0.2857142857142857,48.5462439152743,48.44828251134512,48.62686719619554,39.68253968253968,0.4424465227165869,0.5575534772834131,74.07243621247794,83.15138739555974,0.689060357687183,0.3109396423128167,89.37510032133815,60.03796412566918,0.5615988315820021,0.438401168417998,82.08116216252323,72.52141188008405,0.5607466181403042,2.241010646545164,0.8860630782940143,1.535479360778245,-1.450858916937371,-2.142970833930004,-0.2102127633862879,0.0037957660174938,0.4433487991114,0.4152928481626414,2.4849066497880004,5.812500000000001,1.398030351412618,1.5377678907400092,0.9678002527269728,0.9678002527269728,1.897990839858673,1.9587452697225007,5.006806338737752,1.3125,Relax
01,64.45516783276963,933.2857142857144,103.6453986609848,135.68916090497711,136.79608821693057,0.1110543074585785,0.1453886616156191,955.0,126.021,0.1319591623036649,158.5,0.7638443481389608,823.2,1026.8,57.14285714285714,82.53968253968253,745.0,1226.0,15.75,242.1875,0.0085279110790202,0.0297578188506012,0.0113517602689618,0.0496374901985834,0.2865771554640661,0.1718038330484255,0.5995028904876123,-3.514663363013626,96.72944161798478,109.2652616744152,0.8852716786256897,33204.019757986985,1.1295967375262883,5.228160773576526,493.7027324495024,0.6507936507936508,0.6774193548387096,0.9047619047619048,0.2,50.21868166198063,50.29462842374814,50.13685524584157,38.70967741935484,0.420038790520676,0.5799612094793238,62.691084941541256,73.66489254348113,0.7061312505982805,0.2938687494017193,91.81736523133998,59.23232943885579,0.580430175898785,0.4195698241012149,78.61488627853132,66.83930447048266,0.6168853199795219,1.5537536485671988,0.9383566843599068,1.0776629530131585,-0.2481197266486017,-0.5023041806863444,-0.4103421132547535,0.0008803431419755,0.1666831071158092,0.3812423957965318,1.5755363607584192,5.67958329648145,1.2794058493136111,0.5909984302806723,0.6463535756254107,0.8598425498690881,2.1825311291026166,1.889138519160295,3.8575714243514,1.1385295092380794,Relax
01,64.23759327304364,935.7460317460316,96.90966333086811,115.64412875770664,116.57102133153916,0.1035640655082896,0.1235849523635418,961.0,106.7472,0.111079292403746,168.4999999999999,0.8379989920103053,823.2,1020.8,49.2063492063492,77.77777777777779,745.0,1088.0,15.75,242.1875,0.0077425371166498,0.0197379110234272,0.0054628816204488,0.0329433297605259,0.3922673026269172,0.2350259422144785,0.59914741973284,-3.925214075124374,82.42815967337302,109.17752040806629,0.7549920474955488,28272.14131747976,1.3245172625555317,5.158328812938298,578.4300418539704,0.6031746031746031,0.6290322580645161,0.8717948717948718,0.1176470588235294,51.17031398667934,51.12428012436983,51.21755505584588,40.32258064516129,0.4423857369075485,0.5576142630924512,54.83275615488412,61.56111184671114,0.665596018265843,0.3344039817341568,89.07146269939258,63.13481998900795,0.5845415208214156,0.4154584791785847,73.96065377939229,62.352930912859726,0.7133512059970737,0.890220535459944,0.9506721650630694,1.0239617875571358,0.440510205893128,-0.2935778401269371,-0.4176725097043504,0.0006261116143376,0.0735563504461001,0.401536068512573,1.5198257537444135,5.723311669531665,1.1427830574836253,0.6763294863418711,0.8762492286712971,1.101237014829466,2.0171291096855906,1.8407170789849516,4.411794344058418,0.8538971319285595,Relax
01,65.49213042523124,915.8153846153846,98.301178195459,120.94187653579716,121.78441383190606,0.1073373300414063,0.1320592322071431,930.0,109.7124,0.1179703225806451,166.0,0.8127968658263971,815.8,1004.4,52.30769230769232,81.53846153846153,713.0,1118.0,10.833333333333334,273.4375,0.0086975440686717,0.0356381157137445,0.0070609547835353,0.0513966145659515,0.2440517377106254,0.1692240654783032,0.6933942247891467,-3.334339547761916,86.11458486336954,106.19194959473228,0.8109332693487088,28728.845857781933,1.2331470884196647,5.165288289115424,523.8011738254075,0.6153846153846154,0.640625,0.926829268292683,0.1,47.130584192439855,47.08343753697288,47.15999536715511,45.3125,0.4127861266242504,0.5872138733757494,55.37885390938909,66.05102645105598,0.6025451959647202,0.3974548040352799,82.43021038025641,66.94767042546607,0.5271787886849,0.4728212113151001,70.21950243219753,66.50085965848457,0.6486491064679697,1.308247768741048,0.929942513910174,1.0187596088616189,0.0140143757755843,-0.3124802834280511,-0.4321098823375672,0.0006397781447693,0.1188809676541509,0.3119579342918035,1.5686159179138452,5.868521659182301,1.2437829208308675,0.577622650466621,0.7911116247102985,1.028964350650323,2.0452046586533528,1.8626365979363189,3.196759160210441,1.0191699375894308,Relax
01,66.62204657332411,902.876923076923,97.76126976151964,115.0586806807726,115.96439998332272,0.1082775151992566,0.1274356202268001,889.0,130.4688,0.1467590551181102,170.0,0.8496644423792395,800.4,994.8,50.76923076923077,78.46153846153847,744.0,1118.0,13.0,125.0,0.0071599830767411,0.0390827563855296,0.0091058262138994,0.0553485656761702,0.1832005656436278,0.1293616734105144,0.7061204912552295,-3.2420739224235287,81.99921360443666,110.52227204978924,0.7419247911180906,28471.435501144133,1.347845512067317,5.161379474351775,595.867793463166,0.5846153846153846,0.609375,0.8974358974358975,0.1,50.54904831625184,50.52857278734838,50.56719689406015,45.3125,0.4646603656003321,0.5353396343996676,55.897440098128,59.998280398638514,0.6037912040621808,0.3962087959378194,85.88022929337195,69.56837525460456,0.5543938907017261,0.4456061092982737,72.45666840604096,64.95980482713571,0.4442923913862035,1.5177035267914605,0.7859543871349993,1.025934291426151,-0.2550374728126066,-0.906623885005042,-0.3418795897519676,0.0014449337493369,0.1968818219046089,0.3611982525782142,1.83258146374831,5.764600312995171,1.378382799582868,0.6872180489056163,0.8047189562170501,0.8605048440456026,1.7454719893450763,1.883910755560461,3.914850786246356,1.111821750097561,Relax
01,66.14848207167238,908.4153846153846,90.4528351386256,106.9079627530148,107.75087006609272,0.0995721083884137,0.1176862089343397,914.0,103.782,0.1135470459518599,135.0,0.8460813657781057,816.0,988.8,47.69230769230769,75.38461538461539,744.0,1118.0,16.25,132.8125,0.0112754809550815,0.067431814963357,0.0108400192829753,0.0895473152014138,0.167213072363672,0.1259164602503184,0.7530300022025934,-2.6966383403386947,76.19137090248473,103.91739698830702,0.7331916802251882,24873.90207096885,1.3638998190662308,5.102714030131592,566.9316758007426,0.5692307692307692,0.59375,0.868421052631579,0.1578947368421052,49.56452889944576,49.56503398484837,49.56252631643284,50.0,0.5032783030475368,0.4967216969524633,54.052884157224064,53.6996349489528,0.531939099784515,0.4680609002154849,75.79127562138969,71.09506267321196,0.5219183529879623,0.4780816470120376,65.82564753206664,63.00062987843348,0.7012627004639591,3.671301641468595,1.399151793077548,2.2873403395885585,-1.3507661548519057,-1.7869637241701684,-0.2580725766364113,0.0339824837281017,1.8768149138880827,0.3836196977897188,1.8718021769015916,5.764600312995171,1.3483014539692262,0.8348390021215469,0.9544280814892262,1.0172566885594527,2.2534832174272146,1.8186630056991908,4.547477154191779,1.204473562605691,Relax
01,65.47805225666298,917.65625,84.73585825731142,104.18695040608796,105.02331928408078,0.0923394334831931,0.11353592416124,920.0,94.1451,0.1023316304347826,126.5,0.813305869180715,846.8000000000001,989.6,46.875,71.875,744.0,1118.0,12.8,218.75,0.0079969900557177,0.0547474127096183,0.0073441130929889,0.0700885158583251,0.1460706480895085,0.1140984362100438,0.7811181623574853,-2.9050251678474743,74.26270124849343,94.7277744617717,0.7839591046073066,22100.288807013018,1.2755767413415149,5.051368059052899,483.3301834499229,0.546875,0.5714285714285714,0.8333333333333334,0.1578947368421052,49.79053204859655,49.77836587825502,49.80247675920717,50.79365079365079,0.5230003217032725,0.4769996782967274,53.70611486780204,51.28989399293442,0.5088809468808588,0.491119053119141,67.57490276037747,66.38511709265725,0.5142554957703699,0.4857445042296301,61.03570372031446,59.31962996012477,0.6634460921691256,3.542570137860029,1.3715595765710105,2.043782450510093,-0.9194523295923638,-0.9819032892423772,-0.310244300668905,0.0299187615294395,1.6525093304255645,0.321310528513143,1.9459101490553132,5.738204882778696,1.4238859650339457,0.7611306094308558,1.0063379226837874,1.0621238105123396,2.309301443890408,1.866401876906636,3.606933505008057,0.9375,Relax
01,66.56831065402473,901.878787878788,84.37854542322312,105.9642900661858,106.73833029350868,0.0935586317776481,0.1174928288483345,887.5,83.76689999999999,0.0943852394366197,121.25,0.7962922732792327,835.0,986.0,50.0,71.21212121212122,744.0,1118.0,13.2,125.0,0.0250873932211953,0.1118835345104533,0.0223684066110158,0.1593393343426645,0.2242277501418353,0.1574463287718026,0.7021714692860715,-2.1902968191697987,75.47539716306947,91.42116717528992,0.8255790151787692,21677.14293888541,1.211271097756115,5.042972151313268,442.9432700902349,0.5454545454545454,0.5692307692307692,0.8108108108108109,0.2105263157894736,47.9117415287628,47.954765429878485,47.87128434923657,52.30769230769232,0.501997676228475,0.4980023237715251,53.50102218649657,53.287692059236335,0.5000607060174475,0.4999392939825524,64.64845144632841,64.64060282271525,0.500846244130628,0.499153755869372,59.337094845502335,59.23675235140775,0.6622550218951019,3.6297593935048,1.367732152280933,2.1314054303971885,-1.080881540236078,-1.2701683220187,-0.2896077410853195,0.0331795529370361,1.785262763719962,0.3828332683527207,2.4849066497880004,5.851138248113551,1.4287714850194924,1.1303653426677984,1.170532806781055,1.2624640018123845,1.934370041238026,1.8814572351088064,3.071353295275354,1.2821442071366418,Relax
01,69.78413923027831,861.3970588235294,86.82202411725599,97.71127129105132,98.445853950832,0.1007921065296356,0.1134334860911906,856.0,87.4734,0.1021885514018691,117.25,0.8885568979922525,788.4,933.4,44.11764705882353,69.11764705882352,698.0,1060.0,11.333333333333334,171.875,0.0243651290036274,0.0666627756383912,0.0116141073102867,0.1026420119523054,0.3654982675158149,0.2373796902475877,0.6494687152992221,-2.7081085682296697,69.61173090833375,102.07693797521208,0.6819535566911104,22323.37934415996,1.4663755180808422,5.0557300493057165,598.7324912300305,0.5882352941176471,0.6119402985074627,0.8048780487804879,0.2941176470588235,50.532141336739045,50.5353835630328,50.52953308006776,50.74626865671642,0.5349814439049403,0.4650185560950596,50.91719361925404,47.47120339232144,0.5120240931448603,0.4879759068551395,73.04202962518501,71.30612298133232,0.5193118362320215,0.4806881637679786,62.95910854605157,60.57259415834871,0.6581032606442097,1.790041562357738,0.9689461465148748,1.422998612663197,-0.7521348328724375,-1.4997354047052724,-0.2463452940443064,0.0023629127769272,0.2874534940825409,0.5002627259357864,1.7917594692280552,5.881580488309165,1.2912725739893574,1.028688889870557,0.9009824839290594,0.9222198635284842,1.8579103827950425,1.845204816878529,3.3179573897185115,0.9847366360846136,Relax
01,69.80031192554296,860.7205882352941,84.0798919273478,85.79279098545882,86.43764402642773,0.0976854661972637,0.0996755418170684,852.0,84.5082,0.099188028169014,116.5,0.9800344639865912,788.4,933.4,38.23529411764706,66.17647058823529,698.0,1060.0,17.0,62.5,0.0076257902577598,0.0151080543905079,0.0025999014576342,0.025333746105902,0.5047499870367755,0.3010131318866899,0.5963608511489836,-4.192527274025355,61.12064424087591,102.58757386777398,0.5957899376746626,19698.47270871881,1.6784439225391223,5.00140266506304,688.7499595455942,0.5441176470588235,0.5606060606060607,0.7567567567567568,0.25,50.56603773584906,50.57945980915027,50.556393280826015,46.96969696969697,0.5456993553646275,0.4543006446353723,45.15209985385088,41.19769411022902,0.5215798323343437,0.478420167665656,74.08924247165686,70.95769487555256,0.5278988039207251,0.4721011960792749,61.35115309118519,58.01829221052623,0.9429237992022408,1.431492968733227,1.1907961944011287,1.4041593433010215,-0.5724832932102846,-1.0218484502893816,-0.3509506134083882,0.0003765504906261,0.121074515212306,0.4614400753818097,2.110213200346589,5.8227569588974,1.2669802988134011,0.0,0.0,0.0,1.866221061852456,1.812679197659828,2.761313549881277,0.8952151237132852,Relax
01,68.81911861942868,871.9411764705883,85.62498630185159,75.2038026983909,75.74538092712696,0.0982004160515062,0.0862487111834746,868.0,88.2147,0.1016298387096774,109.5,1.1385725618856726,799.8,947.0,38.23529411764706,70.58823529411765,698.0,1120.0,13.6,171.875,0.0071954761841637,0.0184809397810026,0.0047703824263422,0.0304467983915086,0.3893457946094409,0.2363294850131262,0.6069912357733108,-3.991015360111256,53.56007249712965,108.91961836827528,0.4917394432657134,18327.24307153985,2.0335972916039724,4.970067249835748,885.9945636650514,0.5147058823529411,0.5303030303030303,0.7142857142857143,0.2352941176470588,48.20652173913044,48.20858245477566,48.21914477068973,48.48484848484848,0.4893145363474662,0.5106854636525336,37.47868080858123,38.28837943815329,0.4957559659798055,0.5042440340201945,76.6902380109008,77.34397623165047,0.4945009822288688,0.505499017771131,60.35745240365985,61.024956613348415,0.805179246640553,1.8120917090923,1.0789399495906866,1.2340964640359149,-0.4825489999273262,-0.2381532375184911,-0.4143771180748086,0.0008056124731289,0.1900425122586739,0.4788478769276545,1.8191584434161696,5.910992253015046,1.1926574975697024,1.1024914981688183,1.0227744261587466,1.4568027712612164,1.949335508167104,1.793915176729364,2.671759063176578,0.9847366360846136,Relax
01,68.24792252377178,880.1492537313433,91.91386839851808,79.72176996317006,80.28822931725277,0.1044298657402189,0.0905775578689569,874.0,97.8516,0.1119583524027459,120.5,1.1529331127618032,799.4,959.8,43.28358208955223,71.64179104477611,698.0,1120.0,13.4,195.3125,0.004296031545135,0.0100085218616394,0.0013364556713846,0.0156410090781591,0.4292373643705337,0.2746646027546857,0.6398897802326103,-4.604318362728611,56.77235139969,116.79300768178138,0.4860937527559363,20830.68720431856,2.057216317491107,5.025673707519739,961.0739246872996,0.5671641791044776,0.5846153846153846,0.7631578947368421,0.3125,52.24186523187292,52.18843273422057,52.284687265238496,47.69230769230769,0.5238195138115752,0.4761804861884247,41.11194847842057,39.19791988201571,0.5189936302686795,0.4810063697313204,84.13909888335345,81.00134988044279,0.5199168101618254,0.4800831898381745,66.21774787998697,63.63055714643253,0.8619729332540388,1.603335216656117,1.0762650654722894,1.3963300883011251,-0.9260885786408082,-1.2646028564489535,-0.3003754801217697,0.0005463624542518,0.1489544937529729,0.4127219543778664,2.602689685444384,5.946686205383145,1.2382560556411115,0.9972460116410686,0.0,0.0,1.927883880663334,1.8426163748071136,2.658164479535745,0.905386446336981,Relax
01,68.33468431372346,879.1363636363636,100.61654342695743,103.2866809493773,104.07243686675456,0.1144493022797716,0.1174865302148958,873.5,100.8168,0.1154170578133944,129.5,0.9741482880669916,798.0,962.0,45.45454545454545,75.75757575757575,698.0,1175.0,13.2,132.8125,0.0051967377573562,0.0111314197612857,0.0019767372083966,0.0183048947270385,0.4668530941066585,0.2838988060215401,0.6081116514067268,-4.497983560169089,73.590325843091,122.14682015131184,0.6024743480995206,28239.22437156842,1.6598217055289688,5.157822874020954,810.9677733939626,0.5757575757575758,0.59375,0.7894736842105263,0.3333333333333333,48.64218987616772,48.71241563430548,48.592389602714015,48.4375,0.4608070905601006,0.5391929094398993,49.96381503148052,54.04656557081124,0.5264411170814898,0.4735588829185101,88.62516698330134,84.05608514711398,0.5089576063785477,0.4910423936214523,71.94026353620775,70.66277909995783,0.7746357133882859,1.9254888130498533,1.110968057415727,1.1212623662715795,-0.5236816205715744,-0.02658552068669,-0.4946536646766868,0.0003984362208609,0.1919650284253228,0.4649738739076174,2.6741486494265287,5.953485028449361,1.1314281920914833,0.9431902345236596,0.6685371623566322,1.0445565115507007,2.0341790978042,1.8390593001104687,2.884788675564652,1.0989807489742642,Relax
01,68.05112289026242,883.2835820895523,102.67598432287458,111.65429601310385,112.48750979615409,0.1162435104703041,0.1264082094099012,875.0,106.7472,0.1219967999999999,127.5,0.9195883005775652,793.2,975.0,47.76119402985074,77.61194029850746,698.0,1175.0,13.4,132.8125,0.0102266362545433,0.044946947417217,0.0100488840192691,0.0652224676910295,0.227526825339557,0.156796217876772,0.6891328863872299,-3.1022724309997485,79.54068097564874,121.81666122107002,0.6529540391137479,30440.085615528784,1.531501361653718,5.190415979555051,746.2495301287136,0.582089552238806,0.6,0.8205128205128205,0.3125,51.41318977119784,51.54287406795748,51.28811106939123,47.69230769230769,0.5103931570331102,0.48960684296689,56.83660792130368,55.66721172771689,0.532460821068744,0.467539178931256,88.88951177478744,83.29437944716842,0.525862750297563,0.4741372497024368,74.6047763335568,70.84063843948378,0.6936753530405744,2.028005977546043,1.0423693970924426,1.252546824881709,-0.6412674566401471,-0.4968489832439799,-0.3963625205663405,0.001439051031956,0.2687957245170551,0.483986482145744,3.4011973816621555,5.946686205383145,1.157333607436268,1.347221434797729,1.023586140555525,1.1968729356955117,2.1812420854275585,1.9003385073810608,2.5255398552884256,0.905386446336981,Relax
01,96.399419845791,622.8105263157895,101.238531763108,56.81006054145168,57.09826486711352,0.1625510929655933,0.0912156396545018,597.0,78.5778,0.1316211055276381,108.5,1.7820528758148204,539.8,714.4,29.47368421052631,70.52631578947368,479.0,904.0,15.833333333333334,46.875,0.013436298724771,0.0014317850962881,0.0004903857540359,0.0153584695750951,9.38429849535656,0.8748461986446212,0.0932244641490787,-6.548833294130135,40.37457028152157,137.26629313932938,0.2941331725228434,17410.918856720116,3.399820535109268,4.947791801462409,1866.7230487736813,0.6736842105263158,0.6881720430107527,0.890625,0.4,48.44130540672188,48.64224614979324,48.25188836997784,48.38709677419355,0.4503912662258466,0.5496087337741532,27.10364416239485,29.940532458040348,0.5722324191453962,0.4277675808546037,103.83652248872568,89.77756863304258,0.5625256149934722,0.4374743850065281,75.88356518190666,66.91953120551443,1.433852964879049,0.9038664755107826,1.6495610043758857,1.6860493602550348,-1.0548938819801563,-2.0548938819801563,-0.4596308117761207,0.0024912204715199,0.1165302846090951,0.6262515358869938,0.9604619501872924,6.3303304767292286,0.8016961005443894,1.0188744086469,0.9380638368718084,1.116105108870415,1.729074485931206,1.6853019282396358,2.387108494575332,0.5532509985962903,Stress
01,96.6244484166787,622.021052631579,94.70098282391976,53.077322159841245,53.332020331012295,0.1522472308988082,0.0853304272183192,602.0,83.0256,0.1379162790697674,109.5,1.784208000146084,539.8,701.2,29.47368421052631,68.42105263157895,479.0,856.0,15.833333333333334,46.875,0.0147529930618656,0.002017185348322,0.0006513645824461,0.0174215429926339,7.313652696385723,0.8468247082421699,0.1157868363999094,-6.206052131162019,37.71143323043761,128.1208849660868,0.2943425909087321,15178.988804744204,3.397401636347197,4.888212950615634,1741.1124169361372,0.6421052631578947,0.6595744680851063,0.8709677419354839,0.375,52.16489499611098,51.91887163023357,52.41486573430607,46.80851063829788,0.5312725391496771,0.468727460850323,27.502688040669145,25.833107872758774,0.5535467892858298,0.44645321071417,95.32286739737124,85.60672938289619,0.5517690314511511,0.4482309685488487,70.15285774050545,63.229192537948855,1.404103535538034,0.5282644664040173,1.7416255209803984,1.4874443252925744,-0.2028632046774028,-1.2028632046774028,-0.9811627732943632,0.0013915458028418,0.0686065244377416,0.658141126055833,1.1939224684724346,6.39348837146607,0.8228934051870535,0.820674405912541,0.9708639010426496,1.1900433410667732,1.883865160215296,1.6903771556748055,2.590676264851971,0.5532509985962903,Stress
01,91.69144502000825,655.4333333333333,113.89153621965026,58.17650400271168,58.25521935609513,0.1737652487712713,0.0887603682083787,632.0,133.434,0.211129746835443,204.25,1.9576895891568464,545.8,777.4,31.11111111111111,63.33333333333333,479.0,958.0,15.0,78.125,0.0134766398075376,0.0030676986409529,0.0009414363058174,0.0174857747543081,4.39307812952292,0.7707201995277531,0.1754396750534122,-5.7868276268489405,41.19266064620469,152.08822989678015,0.2708471304726308,19681.82301068303,3.692119603611788,5.00103543204556,2246.1117403220733,0.6,0.6136363636363636,0.8518518518518519,0.1666666666666666,56.38496400959745,56.16025153165028,56.73241715045815,44.31818181818182,0.5856530587176855,0.4143469412823142,31.659678255988755,26.629827773996723,0.6002494216697988,0.399750578330201,117.83152012107124,96.15904813949352,0.5992438217981079,0.4007561782018921,86.27456856256988,70.55391649783222,1.4411851527495485,0.9431370268090644,1.4411851527495485,1.7614476252975977,-0.6367453864094514,-1.1789153047434136,-0.1604284812869663,0.0008122805320952,0.0613550924625751,0.5591663913350078,0.9236708391717774,6.336297540774121,0.6983912529524424,0.6669091341338081,1.144373628450971,1.4448684259086988,1.8047314129157424,1.6512040318692909,1.8467504672276325,0.6491853096329675,Stress
01,87.18914312711058,689.2558139534884,101.92594613351422,75.6407142156843,76.07430762164086,0.1478782537195867,0.1097425842254681,659.5,114.9015,0.1742251705837756,167.75,1.3475011069155085,597.0,795.0,39.53488372093023,68.6046511627907,532.0,954.0,14.333333333333334,85.9375,0.0294349179109112,0.0060723487866349,0.0057023079016968,0.041209574599243,4.847369435645208,0.7142737627641504,0.1473528626705707,-5.104009798734358,53.79265879333371,133.6347021302677,0.4025351045486403,22583.545930118016,2.4842553822014923,5.060762243165363,1327.930912064043,0.6395348837209303,0.6547619047619048,0.8909090909090909,0.1875,51.39459459459459,51.63591004144011,51.16661663524622,47.61904761904761,0.4986480345609659,0.5013519654390342,37.99334214857976,38.09621278515003,0.5139640607908684,0.4860359392091314,95.80443761391416,93.16514019163502,0.5118276484703191,0.4881723515296807,72.87655423432635,71.17255361267586,1.3661260092446506,0.7457764617873801,1.3709577797771937,1.7211129996170604,0.0594836962956151,-0.9047138226618244,-0.0304823391708284,0.0004002827094004,0.0478664165570866,0.5203795995258713,1.0340737675305385,6.1704508012137245,0.9014745101797764,0.6243746143027684,1.03903680521298,1.5409200113430237,1.8064527861922264,1.650709577669891,2.189268627081185,0.7472400877560579,Stress
01,80.59405377629238,745.379746835443,115.23023817418184,82.89304198939988,83.31951267344998,0.1545926605376643,0.1112091418385427,745.0,136.39919999999998,0.1830861744966442,183.0,1.3901074856067794,633.6,839.4000000000001,40.50632911392405,72.15189873417721,555.0,997.0,13.166666666666666,78.125,0.0395066096317004,0.0079548160145182,0.006028309592972,0.0534897352391908,4.966376288225595,0.7385830095258132,0.1487166832841208,-4.833977745741658,58.91579241655497,150.62959776974685,0.3911302512180504,27879.944981876884,2.5566930629523514,5.152262022354375,1540.454590772859,0.6075949367088608,0.618421052631579,0.8936170212765957,0.1875,53.49620893007582,53.65192855890223,53.34673063392788,44.73684210526316,0.5183241970452908,0.4816758029547092,42.47229807646513,40.9432613423827,0.530767586430934,0.469232413569066,109.73938269390712,103.18208958068216,0.5291127581647335,0.4708872418352663,83.20645473139662,78.49488601044837,1.3366714484098103,1.4533946824658412,1.5227932581476775,2.010328242701995,-0.9252344307011492,-1.8248428781880293,-0.1645543083127553,0.0013456407387094,0.176447702653726,0.4537776200057788,1.0001722158548572,6.126565558303684,1.011210706034514,0.697982921270728,0.792590235206271,0.98657049135821,1.782900489068125,1.6182434486711992,2.1975389802430256,0.7979469301490004,Stress
01,78.12816469317916,769.7922077922078,120.44755767141518,95.24138308861112,95.86233184450847,0.156467623927843,0.1237234959311511,775.0,143.8122,0.185564129032258,188.0,1.2646556965615738,636.2,873.8,44.15584415584416,75.32467532467533,569.0,1023.0,15.4,70.3125,0.0155675045999084,0.0047798235512681,0.0039469549583854,0.024294283109562,3.2569203513335534,0.6407888032629885,0.1967468449145881,-5.343351647120758,67.78490490760706,156.85867703574294,0.4321399758596784,33403.45672035344,2.31406501564834,5.230761521590586,1451.9247077171774,0.6883116883116883,0.7027027027027026,0.9423076923076924,0.1666666666666666,51.05204872646733,50.98441735304594,51.10684742808685,45.94594594594595,0.4974049522041227,0.5025950477958775,47.81255065356794,48.06134968280992,0.5224929146787977,0.4775070853212024,113.38321062451682,108.39230650687328,0.5185442735451041,0.4814557264548958,87.01089716674441,83.84147375617063,1.182474279348472,1.6137897690469396,1.3852031925978276,1.9893691638719415,-0.6983336429588753,-1.7013860580241271,-0.1256228767450186,0.0046142326980875,0.3170258546278577,0.4519282202388925,0.9946225751440622,6.084968358876722,1.021771099441637,1.1463611474487134,0.7616288773216094,0.9093973629727996,1.7208046420494796,1.670920655465146,3.5080598743129108,0.9766420582901144,Stress
01,77.25088774034953,777.8026315789474,115.4149637596838,98.8257726169309,99.49083528801188,0.1483859260354908,0.1270576475375424,775.0,123.7971,0.1597381935483871,158.25,1.167863004795885,678.0,874.0,46.05263157894737,73.68421052631578,569.0,1023.0,19.0,132.8125,0.0239255515100178,0.0121069497069845,0.0061988387137014,0.0422313399307038,1.9761832739930485,0.5665354580100126,0.2866816380169431,-4.413975635309558,70.35064429806704,148.08825162810948,0.4750589160491741,32729.43872373606,2.1050020665152367,5.221908667629271,1246.9043028151953,0.6842105263157895,0.6986301369863014,0.9607843137254902,0.2,50.198771232381645,50.24489710907061,50.15390849015352,45.20547945205479,0.4780461166705349,0.5219538833294652,48.64126820892906,50.82601483279781,0.5455743320044365,0.4544256679955635,109.38243082402664,99.82792243304122,0.5331404742056338,0.4668595257943664,84.64776767861615,79.2114192559415,1.2735423905782093,1.1905080545086366,1.6143219937712168,1.868796417832528,-0.0962599327907902,-1.0936867314128556,-0.2862472050503336,0.0031449798979899,0.1912450065223675,0.5058160388873372,1.5141277326297755,6.09003277660148,1.038503873027751,0.9381819303424354,1.2131381752928587,1.5012428230240773,1.6799094118375046,1.6481225740461285,2.930341910755536,0.986514870543724,Stress
01,74.90324827955475,802.5342465753424,121.49852333256528,123.00287937009172,123.85209940645552,0.151393568375476,0.1532680753438029,809.0,115.6428,0.1429453646477132,166.0,0.9877697494137504,696.4,893.6,57.53424657534247,86.3013698630137,569.0,1184.0,18.25,164.0625,0.0128640020431263,0.0104792199882878,0.0033980196710914,0.0267412417025056,1.2275724774843717,0.4810547762230862,0.3918748465336218,-4.558361031457672,87.57665935449508,148.36343492376656,0.5902846573988699,40819.25998829739,1.69409790253836,5.317835237095587,1005.3687356709576,0.726027397260274,0.7428571428571428,0.9807692307692308,0.2352941176470588,50.96981187108064,50.95924125296389,50.94990643209966,47.14285714285714,0.4701741147613368,0.5298258852386631,60.05742557084163,63.7534865105707,0.5457789845924914,0.4542210154075088,109.60624110981745,99.9909032470218,0.5262394114009307,0.4737605885990691,88.37539945148937,83.85310898949662,0.9990540617009076,0.8552503235187858,1.0199341273326432,1.4145648068850467,0.1061803968614718,-0.8036018055740417,-0.0385787427372597,0.001168037163856,0.084974750420248,0.4342968485875396,1.845826690498331,5.960305552001065,1.2146306487456653,0.9892815348428052,1.02089879380436,1.1327481705931874,1.8996078399840428,1.7592931965157954,3.0904963389730744,1.017505406939181,Stress
01,80.1586868980371,751.1518987341772,148.8404832412096,120.34634846867432,121.04721560171636,0.1981496465522245,0.1602157282321712,751.0,180.8772,0.2408484687083888,241.0,1.236767755192441,614.4,882.4000000000001,56.9620253164557,83.54430379746836,400.0,1023.0,19.75,578.125,0.0244997959413336,0.0144571470103042,0.006962996741227,0.0459199396928649,1.6946494300619297,0.5335328422728839,0.314833754290636,-4.236566383910116,85.59330699572368,191.85437267977585,0.4461368578686892,51589.507370092695,2.2414646590224754,5.4195314907625685,1720.1391841625789,0.7088607594936709,0.7236842105263158,0.9636363636363636,0.3333333333333333,47.61837455830389,47.82365689231468,47.51716196190458,48.68421052631579,0.4379446451381038,0.5620553548618962,56.6799513330497,64.21099553855203,0.54711820539691,0.4528817946030901,141.909766362823,129.11126413756196,0.5289760961333816,0.4710239038666181,108.0532245522268,101.96266590093464,1.0869507223105928,0.6551120601874609,1.3960122228701222,1.1301456981592626,0.7850980679560076,0.58782466803126,-0.9058336594120732,0.0002917195547081,0.0261646242243914,0.4880809917051603,1.349926716949016,6.117010020301616,1.1120859316623284,0.7392118581987823,0.9908410945139344,0.9862901860655564,1.805547262088277,1.7075433427157245,2.514459804653008,0.8777416231639004,Stress
01,82.51157540321462,729.4691358024692,155.21662978074812,114.03694576758885,114.746829194216,0.2127802564394976,0.1563286781724355,716.0,182.3598,0.2546924581005586,245.0,1.361108268342129,587.0,879.0,49.38271604938272,82.71604938271605,400.0,1023.0,20.25,203.125,0.0052379325977343,0.0081489477009156,0.0029175920861154,0.0163044723847653,0.6427741089988607,0.3212574117165895,0.4997983073975354,-4.809866476517686,81.13826104288462,204.51234062607185,0.3967401712507752,52130.8837722633,2.520541332750271,5.424065197523833,2061.927230422066,0.6790123456790124,0.6962025316455697,0.9636363636363636,0.3157894736842105,49.10822249093107,49.43903859506851,48.85965621590171,46.83544303797469,0.4349029272728321,0.5650970727271679,53.51286370844379,60.99911806791383,0.5239799691589353,0.4760200308410648,148.03924505863856,141.1016633169956,0.5118640489473377,0.4881359510526621,111.30868038884056,108.6981411889966,1.0381538558819543,0.3929110151429178,1.093564826325831,1.232558210893317,0.5830553838066477,-0.2979180650652138,-0.1462471673976144,0.0003814832165785,0.0200684223376596,0.5768951433037923,1.1913940221190764,6.182382255944334,0.909362015325917,0.7092425611077141,0.995731352670274,1.0801262785970622,1.737738252153472,1.7812784640839954,2.446206025157661,0.6261580249762592,Stress
01,85.21389555241329,706.0963855421687,134.6548084020796,111.89825517940449,112.58519474816832,0.1907031549222367,0.158474476672876,704.0,158.63819999999998,0.2253383522727272,214.5,1.2033682579428064,587.4,829.4000000000001,49.39759036144578,83.13253012048193,400.0,1023.0,20.75,203.125,0.020488079596074,0.0190504421399125,0.0069402593780885,0.0464787811140751,1.0754647816361982,0.4408050104797099,0.4098739614783804,-3.960664968234536,79.60975466763789,173.7542765802636,0.458174361140764,43456.191376415,2.182575204579752,5.3450217708168,1516.927103015102,0.6265060240963856,0.6419753086419753,0.903846153846154,0.3,50.38109756097563,50.52991064367025,50.28489076110412,45.67901234567901,0.457255975222549,0.5427440247774509,53.8334766653292,58.65030285251184,0.5418314841569306,0.4581685158430694,127.89913905756896,117.61104904839247,0.5271571351364324,0.4728428648635676,98.12296617393888,92.93066469942724,0.8924137931040034,0.6731289625300554,1.054199335733884,1.015150588117758,0.7952035129339601,0.3568699924687126,-0.5580107970237312,0.0003521300592017,0.0374075917759867,0.6080758187774,1.2286654169163076,6.173173316863031,0.9900749871587826,0.9928074578059324,1.2617602917764537,1.3081870302990664,1.8030959785454503,1.7806961031400577,2.913771883249734,0.8448847439134477,Stress
01,87.17790561425211,690.6235294117647,118.43332225656886,99.46242410842302,100.04258057876302,0.1714875286068574,0.1440182963258429,698.0,114.1602,0.1635532951289398,157.0,1.1907343232200518,587.8,786.8000000000001,44.70588235294118,81.17647058823529,400.0,983.0,17.0,312.5,0.0150520272745229,0.0086384570147154,0.0028221911622047,0.0265126754514431,1.7424439629533537,0.5677294734773222,0.3258236623661914,-4.751531298374388,70.74078713464493,151.67924337722002,0.4663840981769372,33709.00350326073,2.144155437350737,5.234716024172712,1300.8954976820485,0.6352941176470588,0.6506024096385542,0.8888888888888888,0.3684210526315789,51.34338706881609,51.35827405962012,51.38055391938792,45.78313253012048,0.4642590250459388,0.5357409749540609,48.208632931837286,51.78715708121288,0.5356601180228887,0.464339881977111,111.01222569088826,103.35801187446104,0.5229003990886743,0.4770996009113257,85.57974801902999,81.74591199930258,1.005659798734559,0.6562500444775599,1.1583361180678762,0.9838522276920718,0.7545923918061543,0.5460078553715584,-0.7658801958858698,0.0002244884916205,0.0302893329482879,0.529106018950726,1.2809338454620645,6.212274612582834,0.983055324371748,0.737608030755675,1.091192345465794,1.39489639835521,1.8820994017321035,1.737550210328132,2.933624752767943,0.7540459924867884,Stress
01,90.1312185805518,668.7159090909091,131.71145307234457,124.1062762961324,124.80989982084982,0.1969617460595497,0.1855889393522125,657.5,128.9862,0.1961767300380228,169.5,1.0612795501016026,559.4,793.6,46.590909090909086,80.68181818181817,346.0,983.0,17.6,242.1875,0.0152143766676579,0.0128708286398632,0.0025359125878844,0.0306211178954056,1.1820821404253965,0.4968589559540775,0.4203252371068501,-4.352791874064995,88.25392652253656,164.64275072069128,0.5360328719984472,45648.50120986322,1.865557230234374,5.366396632752773,1228.601896050645,0.5909090909090909,0.6091954022988505,0.8301886792452831,0.35,51.19080587094989,51.42858357095972,50.97269503336154,42.5287356321839,0.4390823623177806,0.5609176376822195,58.48737689291556,66.10566770198741,0.5190311491972995,0.4809688508027006,118.6149211650588,114.18290520862828,0.5011831295561544,0.4988168704438457,93.51543396361656,93.29441340243308,0.999995717366172,1.42570455914059,1.237207659473445,1.4903061942940723,-0.3415936778363289,-0.8387549341234029,-0.3224747664598936,0.0007554873612285,0.1423543182457283,0.534498541498114,1.211940973975113,6.254886164091841,1.0278954471909865,0.973899023248152,1.1818936368477813,1.3491892067965965,1.7215571158395595,1.776248337844305,3.0156344262329333,0.9542342163896008,Stress
01,90.01679672158684,668.3522727272727,116.64604478888376,97.79852618591924,98.36515009531844,0.1745277895336525,0.1463278127069777,662.0,120.0906,0.1814057401812688,161.0,1.1927178183353662,574.2,776.6000000000001,42.04545454545455,79.54545454545455,346.0,939.0,17.6,242.1875,0.0305470741777358,0.0304249406838814,0.0039143235096815,0.0648863383712987,1.004014255775334,0.470778209165333,0.4688959409264384,-3.492492589695281,69.55466466483225,150.19415929111355,0.4630983321396543,32819.28974734363,2.159368606187152,5.223099288075967,1297.2982096236117,0.5568181818181818,0.5747126436781609,0.8,0.3,50.1906412478336,50.51729612527264,49.85928316261215,42.5287356321839,0.373681073311894,0.626318926688106,42.51853221120584,55.045963880514286,0.5895791064901577,0.4104208935098423,115.32516551166582,96.22053671057586,0.5514537185121327,0.4485462814878673,86.91294317214341,78.38510644378229,1.156825433879884,0.6524407046532867,1.210715256062592,0.9635329862957234,0.7956996730256858,1.0697978503034036,-0.8788578303038644,0.0005638500751182,0.0407763068258573,0.5758370323779967,1.2407867774486523,6.155398806112712,1.0736105330529842,1.2435750410591924,1.2530713700075036,1.5654854577426975,1.6934448627517804,1.7558025286815258,2.657627697274735,0.8074289523296622,Stress
01,88.1674657875213,682.9302325581396,112.34262620873116,100.02487925805376,100.61574156651828,0.1645008828909432,0.1464642718823235,672.0,109.7124,0.1632624999999999,145.5,1.1231468314887827,597.0,789.0,41.86046511627907,81.3953488372093,346.0,939.0,14.333333333333334,414.0625,0.045230375059725,0.0381748449210581,0.0070287561404706,0.0904339761212538,1.1848214486072437,0.5001480306370711,0.4221294535349564,-3.26557849020244,71.14607315579825,141.9194316153641,0.5013131207333276,31720.69326840208,1.994761275222932,5.2083127803901865,1132.381545551909,0.5697674418604651,0.5833333333333334,0.7959183673469388,0.3684210526315789,50.54887611082072,50.88601208731824,50.22770448443617,44.04761904761904,0.4191666970437065,0.5808333029562935,46.06342676912222,54.22363304826025,0.5785074615656057,0.4214925384343941,107.94346268921193,92.13758154353044,0.5465039598773033,0.4534960401226966,82.98683757997884,75.59608559192435,0.9959454118241666,2.069639625855794,1.3600255260316694,1.6476094784337836,-1.0133711212679142,-1.157625977286401,-0.3610463634299626,0.0009946440402326,0.268364465939297,0.5694351196254552,1.1913940221190755,6.083127836047133,1.0956179606670269,1.2505710111002235,1.0141315257837755,1.4192705215731607,1.6259133792445295,1.7034333400451545,2.490187308319041,0.9714121140828752,Stress
01,87.2439569329478,689.4069767441861,104.69118485358028,99.65617362299471,100.24076338624774,0.1518568688527029,0.1445534741955092,672.0,94.1451,0.140096875,113.0,1.0505238265482004,615.0,789.0,41.86046511627907,75.5813953488372,346.0,939.0,9.555555555555555,312.5,0.025234642765317,0.0328875904687538,0.0075398981267185,0.0656621313607894,0.7672998357630431,0.3843104425998893,0.5008608430336896,-3.414659881764204,70.88092354173196,130.74223148025646,0.5421425253280595,29113.5478835762,1.8445334082488425,5.1710652433418725,964.6336553373465,0.5697674418604651,0.5783132530120482,0.8125,0.3888888888888889,49.11654470819205,49.40625770445745,48.86418826501186,46.98795180722892,0.4133812702492996,0.5866187297507004,45.575813343315794,54.29214404277938,0.6006592069883908,0.3993407930116089,101.32811470966288,82.62048330663757,0.5581138193418617,0.4418861806581383,78.56380080074842,69.90629859527782,0.941071575909107,2.7400003250184843,1.4981760940602695,1.9474566214417248,-0.5567850926735574,-0.7634313812624485,-0.3360290240555267,0.012044941730632,0.8472270175675247,0.5402628104844869,0.9416085398584448,5.988943353836553,1.0841802652078434,1.0957068188393422,0.851879447278321,1.3182507642540666,1.519291943860291,1.7449203698611957,2.440471427673022,1.0461361228584811,Stress
01,84.57261271988668,710.6987951807229,133.42996106844154,101.69406534714436,102.23875499626249,0.1877447407723714,0.1430902458773476,675.0,97.8516,0.1449653333333333,152.5,1.3120722493782018,615.0,803.0,44.57831325301205,78.3132530120482,346.0,1062.0,9.22222222222222,312.5,0.0200669520796155,0.0221550900499398,0.0057183946837098,0.0479404368132651,0.9057490641826594,0.4185809186048754,0.4621378427617801,-3.809688009796412,72.29371695792722,171.3835897596498,0.4218240326236176,38924.1970391197,2.370656773110586,5.297189772304677,1625.1666714548796,0.5783132530120482,0.5875,0.8297872340425532,0.3333333333333333,52.94953802416489,52.57809329604396,53.42544151313832,41.25,0.4133119815852965,0.5866880184147035,46.514036113366416,55.41771789590513,0.6571564582827064,0.3428435417172936,138.9324279433274,100.349964148853,0.6202723870383375,0.3797276129616623,103.59965031259377,81.05935714483,1.18711903171959,1.6507127090882925,1.402802311428761,1.3384120973592193,-0.2133842611628615,0.5593037629863229,-0.5390075230626324,0.0003062040759807,0.1208586429711599,0.4834599279813338,0.8001193001121131,6.109979190383072,0.9519807937883435,0.8984044167349918,0.853368193303511,1.040450987738116,1.4958555341637934,1.6761052279558724,2.603231237407684,1.0753078558898426,Stress
01,82.6885381288784,731.0864197530864,156.79861267967777,140.47304011802407,141.35536509275596,0.2144734308327518,0.1921428661819033,675.0,127.5036,0.1888942222222222,230.0,1.1162185466188894,613.0,894.0,54.32098765432099,80.24691358024691,346.0,1062.0,10.125,312.5,0.0064945910248477,0.004063095231899,0.0014239922331165,0.0119816784898633,1.5984343595639243,0.5420435067041949,0.3391090184348089,-5.505810223437785,99.95333721418793,198.63052973239573,0.5032123578829987,62372.50296370452,1.9872325954135428,5.501963282287963,1578.9002525139026,0.6172839506172839,0.6282051282051282,0.8571428571428571,0.3333333333333333,50.5594033031433,50.79425500370132,50.330047164630166,42.30769230769231,0.4091867929715559,0.5908132070284439,63.9396471761665,76.83065382442484,0.6046400729076892,0.395359927092311,154.45233001426504,124.89421561840524,0.5651455677963014,0.4348544322036985,118.2027933846068,103.68585839454026,1.0602099133218783,1.399449513938985,1.2905911540847854,1.6125517576036938,-0.1370844910170259,-0.7691248045030363,-0.2699376788429499,0.0020954562802611,0.1903787761653512,0.4137863003853095,0.7519876805828787,6.092936422637711,0.9430432916150436,1.1846369833782826,0.7275556457386607,0.924847604904974,1.4772632096276477,1.8193927396754763,2.7875763829739,1.017506790586421,Stress
01,78.43661022900883,766.1298701298701,133.75894959230033,105.0229924700702,105.68927230661473,0.1745904380018837,0.1370824928837029,741.0,143.8122,0.1940785425101214,210.0,1.2736158668342974,646.0,912.0,57.14285714285714,77.92207792207793,511.0,1062.0,11.0,148.4375,0.0055416621611178,0.0080486922553113,0.0016564629324617,0.015246817348891,0.6885170889048329,0.3634635369670073,0.5278932692072156,-4.822245653504894,74.73360114667885,174.04533665262713,0.4293915745403615,40862.80488104814,2.3288766228597786,5.318298283872343,1621.320463392254,0.6493506493506493,0.6621621621621622,0.9183673469387756,0.4,51.66070516096066,51.678334254182175,51.59711504441542,43.24324324324324,0.4065733232967539,0.5934266767032461,47.66668997668428,57.58761440911868,0.6106848203387557,0.3893151796612445,136.01003545665853,108.59580777177726,0.5788938773503568,0.4211061226496434,101.90888842062512,86.91772776291995,1.086862108670705,1.4519699022102133,1.2808248912568017,1.627932006653094,-0.1736050185148121,-0.609401829486881,-0.2609405574675342,0.0029785450657315,0.2116219368428152,0.4368449680111097,0.7316134613877411,5.997242547160313,1.0172428985742794,0.6845832944256733,0.8794439390914999,0.926952797561723,1.6506014657937575,1.7543645048544712,3.0141974173089614,0.8138683819084287,Stress
01,77.2705285547813,780.5263157894736,146.40405037058324,119.76365614548236,120.39061799368297,0.1875709343925206,0.1534396134028432,760.0,162.3447,0.213611447368421,238.5,1.2224413906731402,645.0,922.0,59.210526315789465,78.94736842105263,511.0,1138.0,12.666666666666666,148.4375,0.0030812315699795,0.0060945318377599,0.0014662180481757,0.0106419814559151,0.5055731353947743,0.289535513921319,0.5726876957084294,-5.100363329866949,85.1290223745724,184.9601452078672,0.4602560312596007,49465.8727964023,2.1727037389673325,5.40127578631502,1607.454396212295,0.6710526315789473,0.6891891891891893,0.9215686274509804,0.4666666666666667,53.79491945477076,53.61109550492285,53.983072212453095,41.891891891891895,0.4564675807576109,0.543532419242389,57.60096892953817,62.85466935287672,0.6067506702075959,0.393249329792404,144.07322909041963,115.98775786596951,0.580415678301278,0.4195843216987217,109.7154660067626,93.28416112672674,0.9546904207194798,2.481569338329626,0.9657893133324892,2.180614069746533,-0.7413802866524559,-1.7116582463769354,-0.010461087002406,0.0204923734702823,1.0031206458170558,0.4369314882239492,0.7323678937132267,6.09003277660148,0.9427197681106247,1.0173489353487275,0.7980763483752343,1.004615976032558,1.666953035899595,1.8197707669479783,2.48255872020237,0.8220957254531033,Stress
01,72.71118732350287,827.3661971830986,133.54627228435197,120.14794451603645,120.9100147920702,0.1614113227480549,0.1452173716125936,827.0,173.46419999999998,0.2097511487303506,231.5,1.1115152474916223,676.0,965.0,60.56338028169014,77.46478873239437,599.0,1128.0,14.2,62.5,0.011114807774813,0.0195942283735988,0.0042689566235598,0.0349779927719717,0.5672490675769155,0.3177657405121168,0.5601873298258525,-3.932520226845439,85.4962913728386,167.1259133437214,0.5115681324475497,44889.10462220573,1.9547738347492325,5.359111052821376,1306.7734500514966,0.676056338028169,0.6956521739130435,0.9375,0.4285714285714285,52.85041416274161,53.27738618529527,52.4327307745228,40.57971014492754,0.4046504309308284,0.5953495690691717,54.43344560102732,66.0255220745538,0.6151159843486231,0.3848840156513769,131.0757345099176,103.68328087815644,0.5714009159168218,0.4285990840831779,100.358976123998,86.91833034198274,1.0011301433975777,2.4350063807156723,1.479482705951344,1.8167090197982012,-0.1302818220395663,-0.0323170298071588,-0.3615090635829285,0.0150433972506092,0.7437732398918849,0.4156037479563905,0.6085897925318824,6.008902049082148,1.0817304688829108,0.6703682823654326,0.645007420261706,0.7313785289118492,1.718713706975209,1.7881569081151631,2.409227748150594,0.952777722740162,Stress
01,69.75243449352398,863.0147058823529,114.06249827113425,134.13058907413006,135.0955087047106,0.1321675024697474,0.155420977371404,865.5,133.434,0.1541698440207972,178.75,0.8503839359722429,754.0,969.8,72.05882352941177,88.23529411764706,599.0,1128.0,17.0,156.25,0.0414339586425074,0.0677916415460615,0.005628285084661,0.11485388527323,0.6111956827945355,0.3607536527296288,0.5902424753397721,-2.691316372667059,95.52695031294712,129.53776937696804,0.7374447682123814,38875.16095487758,1.3560337575166086,5.2966423101103945,702.6303525942794,0.6764705882352942,0.7014925373134329,0.9574468085106383,0.3333333333333333,51.66433566433568,51.71493368828776,51.5984562055697,46.26865671641791,0.4318971825073544,0.5681028174926456,62.80127387243033,72.02640509079313,0.6041581279960777,0.3958418720039223,100.68661154780862,81.49993834464692,0.5434502345077343,0.4565497654922657,83.91005227319106,76.9091768922418,0.9408573703409469,0.9951759331007936,1.009521660928606,1.1297709664832385,-0.1244949696256014,-0.2330910186371575,-0.3791677917893806,0.0002410895782074,0.0443743785821755,0.3061297821218458,1.5686159179138452,5.881580488309163,1.4865315176367364,0.840093846785475,0.9120143648984202,0.991627797678054,2.0910304394302277,1.9265083792691229,3.675573536135573,1.074258148455942,Stress
01,71.82828870785242,837.1,115.9361580941131,152.16443241688782,153.2388200689681,0.1384973815483372,0.1817756927689497,829.0,128.2449,0.1546983112183353,176.0,0.7619136499420612,741.8,945.0,77.14285714285715,90.0,599.0,1128.0,14.0,234.375,0.051886586684853,0.0932950344909857,0.0159207995194254,0.1611024206952643,0.5561559301408096,0.3220720487062075,0.5791038650341536,-2.3719883934348767,108.35620881179254,121.82767114986856,0.8894219826175299,41471.48783983252,1.1243257076433435,5.324719726445611,547.895930304466,0.6428571428571429,0.6666666666666666,0.9347826086956522,0.2777777777777778,48.58451779631155,48.60720293134993,48.54232519465639,46.3768115942029,0.3860200159361351,0.6139799840638648,67.34000646412379,84.9269149466348,0.5978717536427246,0.4021282463572753,94.1997955502452,77.25529092620464,0.5042746070218252,0.4957253929781747,81.87880663607717,81.18177399652417,0.7492788894294051,1.8564522460494997,0.977080827976869,1.3887365495598474,-0.9829223607662776,-1.2208891216315925,-0.2782567677358924,0.0015762058742812,0.2358066936397221,0.3178580700425502,inf,5.900711588373539,1.6239452720726786,0.5756462732485114,0.0,0.0,2.372010637461621,2.0058820853859767,5.538496367404817,1.2258566033889933,Stress
01,71.90922353363439,837.0140845070423,109.14780188320611,149.32548342463184,150.38997546544417,0.1304013921671204,0.1784025934433072,822.0,118.608,0.1442919708029197,164.5,0.7309388818305459,743.0,944.0,73.23943661971832,90.14084507042254,617.0,1128.0,14.2,164.0625,0.0550799683417836,0.071930453929359,0.0208135317591673,0.14782395403031,0.7657392013107032,0.3726051620192085,0.486595385715432,-2.6320555444129417,106.34177147409407,112.6058595572418,0.9443715619437776,37619.65023218285,1.0589052448188123,5.282384863352146,476.9557411299757,0.6338028169014085,0.6571428571428571,0.9347826086956522,0.2941176470588235,49.1580078824794,49.30089253349668,49.01451465935627,47.14285714285714,0.4279852159088506,0.5720147840911494,69.57573290088759,80.43536427521762,0.5994718172987564,0.4005281827012435,87.18572340284013,71.26520358034988,0.5186229566568529,0.481377043343147,78.87373762530908,75.98873951920662,0.7843237882923466,0.8804536303673287,0.8796556277771181,0.9732960678058522,0.099227399323917,-0.2069848134028191,-0.3936452337760628,0.0001266522546349,0.0367994793559577,0.3389153120082366,inf,5.885593774403789,1.6511848900152342,0.7783788273025936,0.0,0.0,1.994746719743856,2.0066704900610435,4.237371712432904,1.212626192578388,Stress
01,71.93554356438355,840.3142857142857,126.47718965531134,184.5541042385792,185.8734214862476,0.1505117689958144,0.2196250942963609,829.5,149.0013,0.1796278481012658,205.5,0.6853122566800797,731.4,971.6,80.0,94.28571428571428,565.0,1128.0,11.666666666666666,210.9375,0.0474861112144814,0.1092802682235503,0.056155761395569,0.2129221408336009,0.4345350902446632,0.2230210114766409,0.5132405103373121,-2.2138394287011907,131.432356775271,120.02987248953934,1.094997054060233,49561.16573654435,0.9132444660851048,5.402111622899764,438.4664672638902,0.6428571428571429,0.6666666666666666,0.9347826086956522,0.2777777777777778,51.143431250598034,51.216643937731234,51.08473196835867,44.927536231884055,0.4439941195367964,0.5560058804632033,87.59259806224563,98.02085612406228,0.6564643134016342,0.343535686598366,97.25118586624087,70.35180976680657,0.5405960238223386,0.4594039761776614,92.5479777944506,85.31548913520643,0.6822417604091687,2.254426752359632,0.8599057090605822,1.6662848152063563,-2.282207415046015,-2.900177998712792,-0.1423130158024586,0.0033516387353013,0.3967703732163018,0.4141448777693282,inf,5.986425874087824,1.711976528918317,1.000784962309667,0.8654928084817017,1.4059248670626212,1.8812128396497736,2.033701020254683,6.256557068046723,1.1382954174326363,Stress
01,71.64157932809914,844.5857142857143,128.11515346196893,199.48426257349917,200.8992358965116,0.1516899366103047,0.2361918502756201,834.5,163.82729999999998,0.1963179149191132,226.5,0.6422318824010763,723.4,979.4,84.28571428571429,94.28571428571428,565.0,1092.0,14.0,156.25,0.0254587751340163,0.0407401469349296,0.0668917252564499,0.1330906473253958,0.6249063159904459,0.1912889872101357,0.3061082634553823,-3.200541261539769,142.05721203761922,111.65430451605997,1.2722949881183148,49829.74107939768,0.7859812459679412,5.404458740498672,351.0327575248669,0.6571428571428571,0.6811594202898551,0.9574468085106383,0.2222222222222222,51.25978890023835,51.44764751754081,51.07719338471303,46.3768115942029,0.4618258391774444,0.5381741608225555,96.56124237711404,104.23777964769948,0.6344175091756228,0.3655824908243771,88.93302216498245,67.51000878068218,0.5277135120016917,0.4722864879983082,92.82552440145172,87.81547697146026,0.5616288343902389,0.6141466773181228,0.6444023400944953,0.6970708875770832,0.2782186588967024,-0.2722647027630347,-0.4142410934915697,1.2162933540291224e-05,0.0159398420620076,0.4261936535512913,3.4657359027997265,6.04356873123068,1.6726463779396783,1.1337324605540515,1.3569896663782692,1.764891121214301,1.7786116396921008,2.0187424439966795,4.7782766987792495,1.2258566033889933,Stress
01,71.47954157389388,846.0434782608696,132.3214040289566,205.6024504889444,207.01945795057347,0.1564002411565857,0.2430164120070774,834.0,149.74259999999998,0.1795474820143884,211.0,0.6435789248342241,724.0,991.2,85.5072463768116,95.65217391304348,565.0,1153.0,13.8,171.875,0.0094920150071484,0.0371370781110407,0.0517508962585985,0.0983799893767878,0.2555940178914218,0.0964831879661502,0.3774860959662089,-3.29313939844533,146.3848625544138,111.06279367815368,1.3180369204345708,51075.73623427611,0.7587040882514046,5.415184745475361,337.0551824649498,0.6666666666666666,0.6911764705882353,0.9574468085106383,0.1578947368421052,51.891535481744015,51.91844750841397,51.900614888313925,44.11764705882353,0.4682811501464071,0.5317188498535931,100.22675782980625,106.80002934763976,0.6694758806091122,0.3305241193908877,90.87325013512134,63.85136294141108,0.541734124009368,0.4582658759906321,95.66438881630656,87.98648424085519,0.4804837450687353,0.808209937873603,0.5625171344577073,0.770199388874875,-0.3826861802184007,-1.09752929405549,-0.2430342727985022,4.553805849591807e-05,0.0299947542588793,0.4119386237416806,2.110213200346589,5.934611413299908,1.6836276471849496,1.0466108725092491,1.0165328744851438,1.2955289467470892,1.8514805247066743,2.0411117371547576,4.465684724009851,1.239410759346295,Stress
01,71.11192345189232,851.7971014492754,132.86100429419872,213.20043731331376,214.76369755099904,0.1559772909160464,0.2502948612416825,836.0,160.1208,0.1915320574162679,240.0,0.6231741640330205,726.4,999.2,88.40579710144928,95.65217391304348,565.0,1092.0,13.8,171.875,0.0138323629347124,0.0215779629356771,0.0416648189908406,0.0770751448612302,0.6410411852103937,0.1794659349601857,0.2799600698062543,-3.836082719544834,151.86086689100813,111.08756156520832,1.3670375400387729,52998.207508893385,0.7315088069722192,5.431231291219921,325.04611852007395,0.6811594202898551,0.7058823529411764,0.9583333333333334,0.2222222222222222,50.81233812102659,50.91312354372825,50.7161324822369,45.588235294117645,0.457472432795486,0.5425275672045142,102.7241633275408,111.86675843069308,0.6252897582478253,0.3747102417521748,87.84278402448453,68.00067374174843,0.515962228670274,0.4840377713297258,95.57355396896024,92.56960427462882,0.4258146718238839,0.8232579068013843,0.502430332406471,0.7161682062130436,-0.4069099211583431,-1.088945203330786,-0.2403755590553495,5.487194476785192e-05,0.0310878973524428,0.3796264976043835,2.0149030205422647,5.9056259060535305,1.6535518356794856,1.063161160864177,0.6040568221627275,1.1222336486395597,1.951436423232912,2.037931996666931,10.060424524473351,1.0623520794396817,Stress
01,72.61005242626575,832.8169014084507,152.89906192921197,222.1763778108349,223.7803363197836,0.1835926500418408,0.2667769799521272,838.0,176.4294,0.210536276849642,248.5,0.6881877517122593,688.0,993.0,87.32394366197182,95.77464788732394,454.0,1092.0,14.2,281.25,0.0127719343140105,0.0559316397504569,0.052652699453217,0.1213562735176845,0.2283490055180486,0.1052432968135711,0.460887913984161,-2.883625052672861,158.2365933079252,146.05552278154238,1.0834002733645496,72606.37938657975,0.9230198889413732,5.567944890588508,539.2486096683739,0.6619718309859155,0.6857142857142857,0.9583333333333334,0.2,49.91816693944353,50.20813051828633,49.671177402954825,44.285714285714285,0.4320054269246308,0.567994573075369,104.00445921320818,119.25578404834502,0.5830033822729072,0.4169966177270928,111.52019514363438,94.31575589537177,0.501469424546817,0.4985305754531832,107.82782910989673,107.51140367212412,0.3817394723819297,0.6357890933872872,0.4452633842714066,0.6259737043628175,-0.1428716640498057,-0.9646993993065888,-0.2157700218972893,3.220787046406054e-05,0.0191498814310928,0.3550451216748631,1.4880770554298328,5.913762788488296,1.6660264180761346,0.9433361277782024,0.6216636199869574,0.6466723360244856,2.125237779876185,2.016262341212656,5.152347066302019,1.212626192578388,Stress
01,74.20630715235627,815.5833333333334,148.84236391489705,208.67334132629804,210.1336931909885,0.1824980450576034,0.2558577803122077,806.5,162.3447,0.2012953502789832,213.75,0.7132792476934341,694.8,974.6,77.77777777777779,88.88888888888889,454.0,1092.0,10.285714285714286,265.625,0.0081520848537209,0.0678183704914713,0.0253573532794613,0.1013278086246535,0.1202046701305821,0.0804525920808029,0.6692967252720272,-2.6909221695347934,148.58695941112143,149.94592989257188,0.9909369298491524,69994.71510585147,1.0091459606336677,5.552035360161582,605.2693178581919,0.6666666666666666,0.6901408450704225,0.9387755102040816,0.2,50.9407492985641,51.26855043935774,50.646151905775184,46.478873239436616,0.4484255080759099,0.5515744919240902,99.51241846408632,110.36572319856766,0.5691443682689383,0.4308556317310617,113.12169482839224,98.42389979319142,0.5093273113248533,0.4906726886751467,106.53459360559678,104.5654266658991,0.4086010642335228,1.3957048156975644,0.6681367365384866,0.94122141399276,0.0433635109849968,-0.578714504098284,-0.3043392310588343,0.0024087475298777,0.1957426007765483,0.4064111440218352,1.3862943611198906,5.975480556997868,1.589031050760614,1.04229818174026,1.0108012844154728,1.3037339394022465,1.9077439651562755,1.9908902780758744,5.004924172400558,1.0283208335737186,Stress
01,73.28336226541569,824.9722222222222,146.87725758262297,201.71881140151365,203.1370472359942,0.1780390340743603,0.2445158830416678,811.5,157.1556,0.193660628465804,208.75,0.7281287082852643,702.6,974.6,75.0,88.88888888888889,454.0,1098.0,18.0,250.0,0.0042383253742948,0.0494433571576013,0.0170312487379821,0.0707129312698784,0.0857208251613089,0.0599370624040343,0.6992123826531673,-3.006927564464885,143.63958361078352,148.20889874091895,0.9691697653180532,66880.3120059752,1.0318109744909647,5.532268400441754,611.6942729524013,0.6527777777777778,0.676056338028169,0.9166666666666666,0.15,49.19713016740691,49.570696498178734,48.86751394385261,47.88732394366197,0.449031922199331,0.5509680778006689,96.26095484967634,106.62886234840116,0.5331530016124737,0.4668469983875263,108.21817597186782,101.26551266506196,0.4924055573004515,0.5075944426995481,102.41422029984308,103.9817732610675,0.4276953856252323,1.3255767025695362,0.710591831586697,0.9115280184519704,0.3052818958315235,-0.2890966234460417,-0.3484160241532815,0.0026855264292594,0.1922106544625803,0.2965582616263287,0.9903987040278768,6.086591668108979,1.5199616883152265,1.1279250692965166,0.6998706988404294,0.8825457132522239,2.025159229296071,2.00142705767275,3.1360747224669243,0.9426274307759088,Stress
01,73.73598801180425,819.9722222222222,146.04243761223847,206.21003240577005,207.65697996447844,0.178106567093756,0.2514841683867245,795.5,128.2449,0.1612129478315525,200.75,0.7082217868278265,710.2,973.0,76.38888888888889,88.88888888888889,454.0,1098.0,18.0,273.4375,0.0062335163724273,0.0405959846753572,0.0196759760086209,0.0665054770564055,0.1535500720644225,0.0937293685923107,0.6104156600655077,-3.2040861168870824,146.83565869360172,144.21586770877175,1.0181657609973984,66526.46634060207,0.9821583462209502,5.529964565776179,566.5712725106664,0.6944444444444444,0.7183098591549296,0.9411764705882352,0.2222222222222222,50.86560173956678,50.98463976392609,50.796988779245964,46.478873239436616,0.4675865646186964,0.5324134353813036,100.41670322070073,107.15179486530845,0.5711390234578625,0.4288609765421375,108.98932544474536,94.44333453501812,0.5184256072249921,0.4815743927750079,104.79071367877714,100.99764992550688,0.4762008377888506,1.4602002726596826,0.781227661031624,0.9018996690488844,0.3316673290489396,0.0992913023974166,-0.4173592757947769,0.002489119841335,0.2025598242917065,0.4358780561717918,1.0986122886681096,6.114369445886757,1.5346747749052811,1.0693837061052438,1.0017919671624278,1.3797798609775138,1.941026021550755,1.982380619019653,4.84416976913041,1.0283208335737186,Stress
01,75.30790192100605,801.3698630136986,136.8025246324581,192.34152928811,193.6696721260416,0.1707108427037511,0.240015925436445,783.0,120.0906,0.1533724137931034,183.0,0.7112479823717135,703.2,921.2,71.23287671232876,86.3013698630137,454.0,1100.0,14.6,296.875,0.0075796217800579,0.0655997216766983,0.0200589488413804,0.0932382922981368,0.1155435051601804,0.0812930137740141,0.7035706045209198,-2.724183825774351,136.94513847049927,137.2185036449768,0.9980078111390516,59034.94612644857,1.001996165599821,5.47807928121339,549.9696580064473,0.6986301369863014,0.7222222222222222,0.9423076923076924,0.2222222222222222,49.035144961312575,49.23950803790728,48.888357375054674,45.83333333333333,0.4376708880528627,0.5623291119471373,90.60850626983486,102.70472512684252,0.5748761234589111,0.425123876541089,104.03987332159409,89.46855593890606,0.5064026467034396,0.4935973532965606,97.55561657132829,96.31428519480752,0.4812306957389283,1.332626265635916,0.7806560740076249,0.8617645632227803,0.3879787280555788,0.0733655732837244,-0.4391363570517266,0.0016747811375106,0.1625067394229208,0.4381319176071132,1.658228076603532,6.107632778058097,1.4720408180402955,1.0720540486602486,1.268578568481886,1.4229687464364955,1.9425943686368867,1.942795737868118,4.308553720631692,0.9327132896942492,Stress
01,76.78738979722635,788.5333333333333,141.0385545653169,207.97033962121176,209.38347688499024,0.1788618801555422,0.2637432443623754,768.0,118.608,0.1544374999999999,208.0,0.6781666790668249,690.4,924.4,74.66666666666667,89.33333333333333,454.0,1102.0,18.75,296.875,0.0207392975523964,0.0623300131218475,0.0284220098462597,0.1114913205205037,0.3327337267177159,0.1860171487392367,0.5590570892052962,-2.7753122176392195,148.05647637379332,132.71578344108082,1.1155905690714096,61730.50887941432,0.8963862080981695,5.49746996707811,475.85839149411305,0.7066666666666667,0.7297297297297297,0.9444444444444444,0.2777777777777778,49.49671408368688,49.89168249747089,49.13749433827429,44.5945945945946,0.4353808617884707,0.5646191382115294,97.6957115476136,111.2547674828869,0.5933986812838967,0.4066013187161034,102.234120111137,84.62661436853936,0.505779357696191,0.4942206423038094,99.9906679888001,98.8415073416849,0.3646353151769436,1.4909323192288038,0.7140733896799671,0.8330306979855702,0.2806699531127972,-0.0848135858506184,-0.4202128045844934,0.0023063486508442,0.214714500248505,0.5606599782436117,1.871802176901592,6.14881869049588,1.455921919712842,1.501542023240115,1.4227018662086666,1.5185958903592602,1.8260552957331304,2.000835776174418,3.513486112664816,1.411865569845733,Stress
01,73.8333029384746,817.0555555555555,125.43814915916028,178.84724775117178,180.0100567277807,0.153524626699183,0.2188923954253819,781.0,103.782,0.1328834827144686,194.25,0.7013703075469242,715.0,925.6,73.61111111111111,88.88888888888889,611.0,1133.0,14.4,148.4375,0.032527880070673,0.1169932105404764,0.0527122637118304,0.2022333543229799,0.2780322030689063,0.1608432999569591,0.5785060082306233,-2.145639375436739,127.28633179398882,118.46330540876453,1.0744789819495577,47371.32037729493,0.9306836306705402,5.382485599916294,441.007436716248,0.6944444444444444,0.7183098591549296,0.9215686274509804,0.2666666666666666,52.19237606162355,52.174279032830974,52.23709117005744,43.66197183098591,0.4811504031210508,0.5188495968789492,88.34619403234075,91.7419906975146,0.6376982500215872,0.3623017499784129,94.60007025295413,71.3048486184941,0.5537634730201261,0.4462365269798738,91.52656251565404,82.1613482534495,0.5477633083173432,1.2053556518005166,1.332519173679442,0.8744166816544172,0.544460706165526,0.2349148355907482,-0.8800558709296529,0.0019036606597864,0.1414971212613865,0.5690785575169803,2.2192034840549946,6.003258334775647,1.5410901877327472,1.246116476013796,1.0585266261493147,1.1960382103791327,1.9016828355742312,1.9565292930759337,3.753539340053672,1.0283208335737186,Stress
01,73.73601365837082,820.4225352112676,135.55543536257787,204.3365221533201,205.8115808993705,0.1652263675664039,0.2490625420237893,790.0,120.0906,0.1520134177215189,182.5,0.6633930828129998,715.0,936.0,87.32394366197182,94.3661971830986,539.0,1102.0,17.75,296.875,0.0218396842041264,0.1211216528053748,0.0580283560663222,0.2009896930758235,0.1803119731136732,0.108660717223382,0.6026261891931026,-2.11095984337079,145.5307645006686,126.84181023628037,1.147340646034415,57991.87023577473,0.8715807318918992,5.4703372249176185,442.2115112009225,0.7464788732394366,0.7714285714285715,0.9444444444444444,0.3571428571428571,49.89613626921479,50.07713606938553,49.73823443612514,42.85714285714285,0.4430710371333191,0.5569289628666808,96.87063688164268,108.60638943490828,0.6467219286790702,0.3532780713209296,102.00494475664534,75.39122010692155,0.5309882224662844,0.4690117775337156,99.47092299928995,93.48578473569457,0.5274433833214182,1.9664555874098284,0.7256075626356833,1.294577202879331,-1.7345822610805417,-2.1841125864164197,-0.2106623491084882,0.0014166731692155,0.2512863843445511,0.4375489038599331,2.0476928433652555,6.093409091335668,1.5951562267146766,1.3466632308322488,0.9598630781483276,1.1113970290409063,1.9724116185290468,1.99914988706274,8.23541122611382,1.039393879352904,Stress
01,74.1367506155521,812.8767123287671,124.47991194538172,181.55979272221407,182.80074101461668,0.1531350450288652,0.2233546489504824,793.0,115.6428,0.1458295081967213,168.0,0.6856138690124834,713.8,920.4,82.1917808219178,87.67123287671232,540.0,1102.0,14.6,250.0,0.0323180501063753,0.0819637474221906,0.0379194400205737,0.1522012375491397,0.3942968827414256,0.2123376302767651,0.538522214024231,-2.5014782340823705,129.2596435773613,119.41072016357806,1.0824793904625265,48490.44216851009,0.9238051170403492,5.392626254284956,441.2489372663465,0.684931506849315,0.7083333333333333,0.9215686274509804,0.3333333333333333,48.83065652296422,49.07731977258455,48.612265171185015,41.66666666666667,0.4159606135488886,0.5840393864511114,83.38114590815927,98.80133716378596,0.6568667805357554,0.3431332194642446,96.77918646808632,69.94790316056462,0.526865510372425,0.4731344896275749,90.32891681621771,85.59910449856307,0.519739439142636,2.079297873914993,0.724958734681024,1.3909227804209183,-1.6899808757683488,-2.2805031205764266,-0.1797168630360845,0.0027502600956247,0.338051663570256,0.3804475171161212,1.7227665977411033,6.080235517784125,1.6454944481716096,0.0,0.0,0.0,1.9056097350351893,1.9696254282256425,4.078305528421833,1.1022975241841126,Stress
02,98.4592837989894,612.75,149.05286946160024,200.22855361863483,201.2902908413868,0.243252336942636,0.3267703853425293,585.0,37.065,0.0633589743589743,57.25,0.74441365513479,558.0,631.0,32.29166666666667,53.125,478.0,1739.0,10.666666666666666,132.8125,0.0507866450991945,0.0627193910225427,0.0184433350380626,0.1319493711597999,0.8097439128664483,0.3848949385115929,0.4753292150713258,-2.769084612449132,142.333729640957,156.91170654420878,0.9070943957954816,70163.7912806426,1.1024210982177265,5.553083157933468,691.9311034067371,0.53125,0.5473684210526316,0.8269230769230769,0.1034482758620689,50.27977617905673,50.58175046055299,49.94807055726484,47.368421052631575,0.4820056239809487,0.5179943760190511,98.8177454130109,102.44043417123676,0.4680352955222297,0.5319647044777701,107.34817077879184,114.44498189550838,0.4743415124105941,0.5256584875894061,103.17116016131467,108.6086931010928,0.7308528625801205,2.3732723531013225,1.2934144060805923,1.394360103497713,-0.6251492042026534,-0.4956641030322246,-0.4574656076513055,0.0020825919664889,0.4039379328516197,0.7154741098659492,0.5226321363529796,6.181265755906956,0.6268903428813272,0.4248663299222293,0.7275208596389741,0.6467724578080538,0.8115020271606053,1.850426825974476,1.686969499840573,0.9603070313551686,Relax
02,100.1134692015508,600.6734693877551,77.42728887198663,92.83412765643872,93.31631648688462,0.1289007968853785,0.1545500715239866,585.5,37.8063,0.0645709649871904,59.5,0.8340390632907132,560.4,639.0,28.57142857142857,47.95918367346938,478.0,1210.0,10.88888888888889,156.25,0.0392676195689152,0.0720728464097505,0.0209295794543114,0.1322700454329772,0.5448323678749959,0.296874620707775,0.5448916734989002,-2.630077915754925,65.98460018322614,87.76654847826103,0.7518194725359391,18193.71895805948,1.3301065435654795,4.9668915917564265,466.9554417483676,0.5204081632653061,0.5360824742268041,0.8076923076923077,0.0666666666666666,50.1220323940537,50.1728289882318,50.07167204851449,49.48453608247423,0.4879414519542132,0.5120585480457865,46.09212920879225,47.217471166225465,0.5170768588769737,0.4829231411230265,63.11121926273708,60.99131934101494,0.5065555497728577,0.4934444502271426,55.260792483592176,54.54095075395641,0.7129538640135489,2.8217552329763023,1.3392104227597517,1.525063557943637,-1.4056317102933722,-1.207350337726371,-0.4341356284159867,0.0022139841325776,0.5211752611359607,0.6185081894433693,0.778087857209029,6.142621451191835,0.8166549141192907,1.0645146662272873,1.116792587873278,1.1039663805052355,1.2874617547568818,1.8037697296696,1.717160367587691,1.1474496668363117,Relax
02,100.79160805696348,595.6262626262626,42.48567246097131,46.71221052620929,46.95167755519724,0.0713294143103118,0.0784253708361408,585.0,32.6172,0.0557558974358974,51.0,0.9095196305713994,563.0,630.4,22.22222222222222,47.474747474747474,478.0,740.0,9.0,156.25,0.0450968686600642,0.0339838625886482,0.0247928036666526,0.1038735349153651,1.3270083276268947,0.43415167007466,0.3271657464660065,-3.3818694967839678,33.199849587364184,49.51174876033083,0.6705448791169368,5164.095376859379,1.491324490192116,4.419964364714426,295.35233391408207,0.5454545454545454,0.5567010309278351,0.8333333333333334,0.1379310344827586,49.60127591706539,49.65090480258483,49.54896547351691,51.546391752577314,0.4773170469371818,0.5226829530628183,22.937499122166333,24.00279193382629,0.4931104710442296,0.5068895289557704,34.7680535834144,35.25047113624082,0.488211739561291,0.511788260438709,29.452898125299622,30.155677209652445,1.02075901282405,1.8087658714161103,1.034264696692634,1.8220802392259596,-1.0517286194428852,-1.8456052008305928,-0.06444581635293,0.00180745996933,0.265563838393147,0.5916073581800783,1.2144441041932317,5.972593488679067,1.048180326031147,1.019996050138855,1.2194273700375224,1.7750575654308691,1.6592252356670392,1.763570565669493,2.5293613585048926,1.0714111709219571,Relax
02,101.54842646443622,591.2020202020202,39.32984010147704,43.819783995220185,44.04063618043888,0.0665252126304264,0.0741198143745288,583.0,29.652,0.050861063464837,42.5,0.8975361472746441,563.0,622.0,18.181818181818183,46.464646464646464,478.0,740.0,6.6,132.8125,0.0465237146414407,0.0254482552590692,0.0120668626249819,0.084038832525492,1.828169128603054,0.5535978219036831,0.3028154306088189,-3.671108093971435,31.141432490957943,46.20921843413616,0.6739225104043919,4520.81860723514,1.4838501230652514,4.362187191767761,274.2702178409681,0.5959595959595959,0.6,0.8771929824561403,0.1923076923076923,48.95726495726495,48.973707576603495,48.94439070916625,50.526315789473685,0.474032426917211,0.525967573082789,21.443043713786068,22.587173625115955,0.5041049393410616,0.4958950606589383,32.808705822413394,32.540446993734534,0.4947112918154581,0.5052887081845419,27.71475510854284,28.009472530941927,0.7624078285848244,2.045101908514192,0.7264328656292931,1.6117271403710496,-0.5093690840527554,-1.1629057991110143,-0.0671148361575091,0.0040699595520444,0.4202472369650372,0.6000523284169894,1.4529857356185627,5.944766342192567,1.0734216964190455,0.9871872683591651,1.177449286939108,1.4602874545741609,1.6674612719801307,1.7779288978100478,2.828136189949289,1.0044479727393347,Relax
02,101.5729160480686,590.74,34.69684583807455,33.80649032181229,33.97853312394458,0.0587345462268926,0.0572273594505404,582.5,24.4629,0.0419963948497854,38.75,1.0263368219471098,565.6,612.4,12.0,39.0,511.0,740.0,5.882352941176471,101.5625,0.039268510865868,0.0265354199072639,0.0160464745564314,0.0818504053295634,1.4798526272847292,0.4797595162511027,0.3241941173097604,-3.629274838170848,24.026451186712933,42.67068505930296,0.563066919439456,3220.83974196448,1.7759878363934425,4.214939226302132,303.1304705435897,0.56,0.5578947368421052,0.8490566037735849,0.2272727272727272,49.9782324771441,49.97153348628477,49.98426638166433,52.63157894736842,0.5206946838128067,0.4793053161871934,17.33729023385896,16.633964515719153,0.4917253729216733,0.5082746270783268,29.922021076354373,30.421374363043245,0.4986989855345257,0.5013010144654744,24.453107961431574,24.516818652168443,0.9783119868659768,2.3967926517797964,1.390207329205853,1.876255818056536,-1.2843226744542413,-1.6060155156401683,-0.2972087871306866,0.0030643452391179,0.4484592039756244,0.6680580734551755,1.5841201044498103,5.893660689688185,1.0074515616110662,1.0789506435509255,1.161603448729602,1.488525668906266,1.69426067938975,1.685557892193898,2.7823054286741,0.9301398665684616,Relax
02,101.00352352824636,594.3232323232323,37.565406438291696,36.94259197783524,37.13238778473929,0.0632070301062387,0.0621590911622707,584.0,32.6172,0.0558513698630136,51.5,1.016858981113998,565.2,626.0,15.151515151515152,38.38383838383838,511.0,740.0,7.071428571428571,101.5625,0.0360891165278298,0.009940064212856,0.0059746777460512,0.0520038584867371,3.630672373439381,0.6939699779591145,0.1911408980430003,-4.611181798288642,26.256563204237672,46.48284581181977,0.5648656562581005,3834.250307469812,1.7703324479388711,4.290650571035012,329.16036085281604,0.5656565656565656,0.5604395604395604,0.8627450980392157,0.1666666666666666,49.79691307879773,49.784900377588784,49.80903518824856,51.64835164835166,0.5154696215213914,0.4845303784786085,18.85128998293269,18.276795044903302,0.5044820079977057,0.495517992002294,33.01532296025963,32.72068771580396,0.507139838787748,0.4928601612122522,26.882919151301863,26.501741845665222,1.0362546511895778,1.743728418621487,1.394110541946282,1.7529017642345792,-0.5668844182197343,-1.2725743819015911,-0.2942390463694219,0.0019318612070915,0.2645302923136082,0.6287700890788428,1.3609765531356008,5.896737175504046,1.047952787247317,0.9550674690725728,1.201274597663875,1.3976028126073736,1.711801846965222,1.6635818111304923,2.5952585993055477,1.0714111709219571,Relax
02,101.09977145625884,593.5555555555555,34.93382146410793,32.1099831891604,32.218035140961085,0.0588551840466064,0.0540976878888887,583.0,31.1346,0.0534041166380789,50.0,1.087942689297352,566.0,626.0,12.12121212121212,34.34343434343434,523.0,740.0,6.6,85.9375,0.037369694910752,0.0134211397344479,0.0092944257931459,0.0600852604383458,2.784390569664924,0.6219444608898294,0.2233682543195349,-4.310924222993523,22.78159112468007,41.30892593213137,0.5514931848411928,2956.49962892492,1.813259034720363,4.177747938787912,299.61513264412605,0.5656565656565656,0.5543478260869565,0.8431372549019608,0.2631578947368421,45.6041372825576,45.90885994503084,45.2565560444787,52.17391304347826,0.4562414021753114,0.5437585978246884,15.415215404897248,16.828884104603773,0.4221850154698321,0.5778149845301677,26.84079101075895,31.400625783303703,0.430149004947183,0.5698509950528167,21.88671889597228,25.191373918360057,1.1098729584866485,2.865230871435172,1.5138340369931371,2.05444501441855,-1.6392671120432496,-1.427545252084894,-0.311320273414957,0.0043500139211326,0.5949236315458459,0.6321820866351056,1.4127276181880462,5.884160281586507,1.0071611264784937,0.9344535413125236,0.8930248468791078,1.177884847223879,1.7626465866389616,1.640616212108028,1.9913887330445044,0.9374847745567124,Relax
02,102.52413391413268,585.5445544554456,29.963152288260744,30.91763250962143,31.067921680984032,0.0511714301845508,0.0528015029332391,577.0,23.7216,0.0411119584055459,39.0,0.96912828881501,563.0,614.0,10.891089108910892,34.65346534653465,520.0,663.0,5.315789473684211,70.3125,0.040732675020307,0.0125733665968051,0.0064707835639336,0.0597768251810458,3.2395997290540355,0.6814124854730932,0.2103384808196863,-4.376174464331346,21.968338097996373,36.20413782925365,0.6067908094263613,2498.649193447533,1.6480144136417705,4.104675396082422,238.65976390433315,0.5643564356435643,0.5578947368421052,0.8490566037735849,0.2631578947368421,51.375711574952575,51.40886830022876,51.34214576839044,46.31578947368421,0.5201903964849879,0.4798096035150119,15.847282531600287,15.219770502258374,0.5331752117433585,0.4668247882566417,26.43584425767714,24.73632418819405,0.5296799680690649,0.4703200319309352,21.79438259337168,20.53688326505325,0.9947352070833302,2.511769928823986,1.43611718939513,1.7343560999789007,-0.7808649074500096,-0.4954022902202126,-0.3812634440912323,0.0033173579966463,0.4702038478340893,0.5228397918480185,1.4271163556401458,5.804105913380601,1.0868165020862544,1.0296514824912926,1.2324460398251618,1.5379045492479777,1.7662500193157415,1.6984586647972204,2.660719586415258,0.9229204035497536,Relax
02,102.50637900877584,585.4356435643564,32.15942034352739,31.444872395988508,31.60184753581296,0.0549324604626539,0.0537119199038515,577.0,25.2042,0.0436814558058925,39.0,1.0227238304083572,561.0,618.0,12.871287128712872,31.683168316831683,520.0,696.0,5.315789473684211,70.3125,0.0497499285950672,0.0145736033917196,0.0062767643362174,0.0706002963230043,3.4137012829190856,0.704670251913047,0.2064241108145459,-4.228543373517291,22.34588069059673,39.75624974691896,0.5620721479728731,2790.954513543654,1.779131030787639,4.152722868457599,282.9263103699469,0.5148514851485149,0.5104166666666666,0.7755102040816326,0.1578947368421052,49.27466150870407,49.2408599304764,49.30912395077997,48.95833333333333,0.5115495863589473,0.4884504136410527,15.98310345207075,15.618074222651218,0.5050100929615893,0.4949899070384108,28.25240602965784,27.970715891352288,0.5065801922138705,0.4934198077861293,22.952756287908457,22.652650947504902,1.0898623290629472,1.7650471507084782,1.4708599235147926,1.6752339425121583,-0.3821156526636446,-0.7283516501638903,-0.3842104479105097,0.0014992601919353,0.2401877342520843,0.6326612957920155,1.1755733298042383,5.83846903206396,0.9966646870995488,1.0269252610389323,1.1327129157483564,1.6360327600310394,1.6627507035041271,1.6473308364477557,2.7405803212273194,0.7910746316140745,Relax
02,102.619444658542,584.8415841584158,34.54409723042921,34.09208119197184,34.26158876418992,0.0590657336381748,0.0582928473546048,579.0,32.6172,0.0563336787564766,50.0,1.0132586812729936,559.0,618.0,12.871287128712872,32.67326732673268,487.0,696.0,7.214285714285714,109.375,0.0387347425485854,0.0105191872040562,0.0051660753178801,0.0544200050705218,3.6822942492789776,0.7117739606674016,0.1932963289956452,-4.554554336629271,24.226601749383512,42.61423091841123,0.5685096557478068,3243.3739765170617,1.7589850759607928,4.21796713775092,299.8311848361293,0.4851485148514851,0.4845360824742268,0.7659574468085106,0.2,49.09428704133769,49.096620769329405,49.09663592642488,51.546391752577314,0.5075154654254175,0.4924845345745823,17.260189495313817,17.002673586554234,0.4821987705951276,0.517801229404872,29.591549337128612,30.66452159411524,0.4883831923476929,0.5116168076523071,24.22368606948433,24.79318246702981,1.134124043976186,2.5824430709221144,1.6704102294917784,2.068821334448069,-0.9717457465729388,-1.2189614463579548,-0.3457231799444742,0.0039366229328826,0.5603884371360711,0.5517139572939129,1.0498221244986776,6.026781408387268,0.9593440627722772,1.1241724414119687,1.087992986270425,1.220135092726163,1.6279777217738671,1.6303078744261992,2.7344296267345998,0.725151745646235,Relax
02,102.17803383583538,587.23,39.74206102030208,38.14737503711392,38.34053063567145,0.0676771640078028,0.0649615568637738,575.5,30.3933,0.0528119895742832,54.0,1.0418032952893004,557.8,618.2,16.0,41.0,487.0,700.0,6.25,85.9375,0.0456101520077615,0.0083735274809828,0.0053129013519542,0.0592965808406986,5.446945998725988,0.7691868799365355,0.1412143392125503,-4.782680039895941,27.110849206773853,48.45237297509959,0.5595360462676726,4126.748914986045,1.787194956733166,4.3225781557344565,346.3753464914093,0.57,0.5684210526315789,0.8333333333333334,0.3,50.53045186640471,50.47166796623971,50.59463002439463,49.47368421052632,0.5339876585199943,0.4660123414800058,19.81161275615895,18.50772039678885,0.47395868546982,0.5260413145301802,33.35687018453063,35.14187898235569,0.4882720778871668,0.5117279221128328,27.433381021190485,28.08458093595351,1.0744944930259268,1.596582817191832,1.4899434017367148,1.6283266602926232,0.1869886875265658,-0.2914982312886165,-0.4133253489478827,0.002683466908846,0.260483899886258,0.533835906488819,0.94132681003548,5.993660689688185,0.973488534539106,0.9969170009798224,1.183311021387612,1.4162082917303365,1.5287083005906443,1.665612998984396,2.5305906922369976,0.8637013046707142,Relax
02,102.4913339818443,585.58,39.49483536112058,37.35943351721587,37.54747149883029,0.0674456698676877,0.0637990257816453,575.5,31.1346,0.054100086880973,51.5,1.0571583036161585,556.0,615.6,15.0,45.0,487.0,700.0,5.555555555555555,93.75,0.0387659398526821,0.0046563666695964,0.0017490238241705,0.0451713303464491,8.325362370150621,0.8581978780646972,0.1030823452372044,-5.369519819592681,26.55007171323152,49.34907882744414,0.5380054165968833,4116.182496116508,1.858717345868805,4.321464731469913,366.90395527686974,0.6,0.6082474226804123,0.864406779661017,0.35,49.25143953934741,49.25699243325007,49.251318715379846,53.608247422680414,0.5249281718375706,0.4750718281624294,19.23710806048072,18.300775047711472,0.4424676431124021,0.5575323568875978,32.82613935409051,36.84801427788376,0.460979603536003,0.539020396463997,26.903733490212677,29.09204808508731,1.2114426837672383,1.46455507905282,1.5490763934981877,1.7778298228435858,-0.0602106737981387,-0.7337929244286832,-0.3438068785413375,0.0017137819358076,0.2012239374566987,0.5173360767244546,1.1349799328389845,6.033660689688184,0.9608797886820528,1.2992946930802765,0.9506155209584056,1.2858955026568313,1.69076099585669,1.6266270755586745,2.8627725390064778,0.8637013046707142,Relax
02,102.0246455942228,588.53,40.64566149024761,42.414858269481485,42.62826329055444,0.0690630239584177,0.0720691524127597,580.5,34.099799999999995,0.058742118863049,53.5,0.9582882779427592,556.8,620.2,18.0,45.0,487.0,700.0,6.25,78.125,0.0399711915716406,0.0041536090283963,0.0034235128369309,0.0475483134369679,9.623243617387994,0.8406437301846287,0.087355549085933,-5.483777677265278,30.14273404295661,49.01671787472168,0.6149480289560854,4641.696518666317,1.6261536795191711,4.373646852161582,318.8348645197272,0.59,0.5979381443298969,0.8448275862068966,0.3684210526315789,50.78152136158391,50.8358433798393,50.7285983631805,52.57731958762887,0.519418538710746,0.4805814612892541,21.725326140667423,20.89734384058981,0.4496186236463751,0.5503813763536249,32.86747745848892,36.36437207935512,0.46877299636767,0.5312270036323299,27.859117631420457,29.656926141439698,1.0172865922748626,1.7528740532089224,1.4225819575080658,1.5618801373658353,0.0407242036088728,-0.1827962265520022,-0.4205315523937607,0.0024295854178202,0.2758126722082991,0.5710081776561924,1.2086131838824383,6.033660689688184,0.968572235777122,1.2198507395686768,1.286840612668846,1.5352803742636585,1.7059772795710135,1.6838004719082658,2.6754421972358045,0.8637013046707142,Relax
02,101.13829998034792,593.5757575757576,40.007675515899805,41.22090810870283,41.43279649371125,0.067401127834628,0.0694450667545024,591.0,38.5476,0.0652243654822335,51.5,0.9705675433058478,563.0,621.0,16.161616161616163,44.44444444444444,487.0,700.0,6.1875,78.125,0.033177622506908,0.0036529806517607,0.0014255062027011,0.03825610936137,9.082342796126325,0.8672503048731336,0.0954875106941593,-5.612211827717168,29.29741136422543,48.74113124483571,0.6010818915354902,4486.159665217368,1.6636668215797616,4.358844836294982,324.35601159319134,0.5757575757575758,0.5789473684210527,0.8545454545454545,0.3333333333333333,49.891461649782926,49.9027018404506,49.88336080211947,55.78947368421052,0.5036992997753995,0.4963007002246004,20.79291612123567,20.639642568630517,0.4344635558748208,0.5655364441251793,32.127155903817275,36.65438211944266,0.4528392896178089,0.5471607103821909,27.06011370350209,29.745071641525275,1.0993668317597196,1.2914925198672451,1.4081280185858385,1.517600304013964,0.2785219889670305,-0.247656986264861,-0.4152358347074449,0.0012580212674901,0.1520405451153114,0.6288166706210485,1.3862943611198908,6.000420635165567,0.9739324528460992,0.9615603533836972,1.0181826583834388,1.4470608195130157,1.696626893917888,1.675390115977493,3.3915462098492504,0.8705215763740901,Relax
02,101.28486347020056,592.61,35.39243056663588,36.48619498169717,36.66903067658958,0.0597229722188891,0.0615686454526538,590.5,31.8759,0.0539812023708721,40.75,0.9700225135668444,565.0,615.4,12.0,36.0,514.0,700.0,7.142857142857143,54.6875,0.0357032956615414,0.0055133365707085,0.0060867085167553,0.0473033407490053,6.475805567762173,0.7547732379196108,0.1165527948641663,-5.200585290864684,25.928920250954025,42.98829499402723,0.6031623318523467,3501.7450635542937,1.657928466668238,4.25125463505537,285.0860720165178,0.57,0.5684210526315789,0.8333333333333334,0.238095238095238,49.0388722768048,49.045350765964585,49.03824617524826,51.578947368421055,0.4813457467392046,0.5186542532607954,17.99064382689298,18.6748493969831,0.5121805012771347,0.4878194987228652,30.765341547149028,30.02477753424282,0.5039541712197219,0.4960458287802782,25.200887938908583,25.00237254722812,1.131911912653893,1.828813766995817,1.5374975909656396,1.7518980427759847,-0.3882800120337268,-0.791174373784246,-0.3827652898946952,0.0016682481681547,0.266953518356284,0.6446128617375564,1.2119409739751128,5.99101406462328,0.921535048217342,0.6858543362348752,1.022936545539063,1.5188309762372825,1.6128692589966052,1.6725233439825598,3.122712776970504,1.063016990363956,Relax
02,101.7986421133089,589.6534653465346,34.77856686051464,34.51231664203375,34.68603771146557,0.0589813660131303,0.058529829247677,585.0,26.6868,0.0456184615384615,37.0,1.007714643477645,563.0,608.0,9.9009900990099,34.65346534653465,528.0,700.0,6.3125,39.0625,0.0443218431351689,0.013267831313996,0.0081674631172348,0.0657571375663997,3.340549188955578,0.6740233041685233,0.2017702078439553,-4.322412871725812,24.526732478269626,42.73006889625604,0.5739923457136908,3292.4801084920573,1.7421835107515582,4.224493269814828,297.7744857773412,0.5841584158415841,0.5833333333333334,0.8392857142857143,0.3157894736842105,50.22281639928698,50.24392324715842,50.20318673788081,50.0,0.5016119553354043,0.4983880446645957,17.371025451956637,17.31511280105132,0.4769096064494793,0.5230903935505207,29.50880539702677,30.90451733839556,0.4830313560925156,0.5169686439074843,24.212828430525438,25.048975260799825,1.136327600752981,1.425013331299222,1.4897862235257269,1.475246843714005,0.3459233112460911,0.1587708416646038,-0.510202978100188,0.0010494037268552,0.1635797404475963,0.6148005769682645,1.3581234841531942,5.893021259829574,0.8927761463610147,1.1855994496423334,1.0479756595682612,1.4360006700802812,1.749544876712294,1.6710280092975114,2.486593577719429,0.9229204035497536,Relax
02,103.40656161735234,580.2178217821782,29.258367678459457,31.647906723826143,31.800214407510467,0.0504265235917614,0.0545448718321292,581.0,26.6868,0.0459325301204819,34.0,0.9244961423130168,557.0,600.0,7.920792079207921,29.7029702970297,527.0,667.0,6.733333333333333,78.125,0.0330910492326105,0.0196173813591415,0.0104255892566195,0.0631340198483716,1.6868229569891269,0.5241397476682935,0.3107259985386078,-3.9313393016862186,22.4861472507368,33.80748452785286,0.6651233466427002,2388.238971727599,1.5034805274053826,4.085047890924163,203.3155786727421,0.5841584158415841,0.5833333333333334,0.8571428571428571,0.238095238095238,48.3325037332006,48.47681988823516,48.17987924324592,52.083333333333336,0.4627941572899091,0.537205842710091,15.300524847405091,16.484764928486992,0.4584234813003839,0.5415765186996161,22.89002596959839,24.87956432922653,0.4597644095577219,0.540235590442278,19.46868446370927,21.103793449988984,0.994555775063652,2.360170773114899,1.4858249883831451,1.5302938546870573,-0.2771409450123858,0.2254718589845641,-0.4811586234307854,0.002098407216079,0.3949847991059781,0.6241739792614354,1.5088966832122228,5.882926705288448,0.9848813266109668,1.1498978379861238,1.046978745959263,1.1416894586714526,1.7999855584767668,1.780227316182157,2.372062514922507,0.9888432895175931,Relax
02,102.91917812110806,583.1386138613861,26.946253803811132,24.512649795564737,24.625212915041185,0.0462090027367255,0.0420357170883413,585.0,26.6868,0.0456184615384615,35.0,1.0992795160271382,560.0,604.0,4.950495049504951,22.77227722772277,527.0,665.0,7.214285714285714,101.5625,0.0556515183411195,0.0125278682285722,0.0017089643698211,0.0698883509395129,4.4422177281682576,0.7962917652655,0.1792554561691531,-4.379799657942561,17.41265504038817,33.63771557479653,0.5176527223339392,1840.0997363695808,1.9317970462732297,3.971811473069731,259.92495836308376,0.5742574257425742,0.5729166666666667,0.8545454545454545,0.1739130434782608,52.36859182349124,52.4253268455581,52.310719887323,50.0,0.5582738362707408,0.4417261637292592,13.016112780672728,11.578018183199791,0.4932507779211921,0.5067492220788081,23.62437803146862,23.945452004862464,0.5070019979713729,0.4929980020286271,19.072629987667263,18.8073812207824,1.1537129345763868,1.5812953779357368,1.5033200284393284,1.1626608193774652,0.7074993631811193,1.6899675621966814,-0.7154304716343182,0.0007103907805205,0.1633297739444867,0.7141448988905261,1.484734433933143,5.73945913107386,0.939490508107823,1.0561274496421265,1.1869377487512107,1.5796647094997682,1.7037731373887015,1.6753017809460855,2.129240287015761,0.9229204035497536,Relax
