PPG_Rate_Mean,HRV_MeanNN,HRV_SDNN,HRV_SDANN1,HRV_SDNNI1,HRV_SDANN2,HRV_SDNNI2,HRV_SDANN5,HRV_SDNNI5,HRV_RMSSD,HRV_SDSD,HRV_CVNN,HRV_CVSD,HRV_MedianNN,HRV_MadNN,HRV_MCVNN,HRV_IQRNN,HRV_SDRMSSD,HRV_Prc20NN,HRV_Prc80NN,HRV_pNN50,HRV_pNN20,HRV_MinNN,HRV_MaxNN,HRV_HTI,HRV_TINN,HRV_ULF,HRV_VLF,HRV_LF,HRV_HF,HRV_VHF,HRV_TP,HRV_LFHF,HRV_LFn,HRV_HFn,HRV_LnHF,HRV_SD1,HRV_SD2,HRV_SD1SD2,HRV_S,HRV_CSI,HRV_CVI,HRV_CSI_Modified,HRV_PIP,HRV_IALS,HRV_PSS,HRV_PAS,HRV_GI,HRV_SI,HRV_AI,HRV_PI,HRV_C1d,HRV_C1a,HRV_SD1d,HRV_SD1a,HRV_C2d,HRV_C2a,HRV_SD2d,HRV_SD2a,HRV_Cd,HRV_Ca,HRV_SDNNd,HRV_SDNNa,HRV_DFA_alpha1,HRV_MFDFA_alpha1_Width,HRV_MFDFA_alpha1_Peak,HRV_MFDFA_alpha1_Mean,HRV_MFDFA_alpha1_Max,HRV_MFDFA_alpha1_Delta,HRV_MFDFA_alpha1_Asymmetry,HRV_MFDFA_alpha1_Fluctuation,HRV_MFDFA_alpha1_Increment,HRV_ApEn,HRV_SampEn,HRV_ShanEn,HRV_FuzzyEn,HRV_MSEn,HRV_CMSEn,HRV_RCMSEn,HRV_CD,HRV_HFD,HRV_KFD,HRV_LZC,Labels
89.51689162790584,670.2840909090909,29.89212361704113,,,,,,,18.453109260482645,18.548382732864113,0.0445962003611023,0.027530280832796013,667.0,31.875899999999998,0.047789955022488756,39.75,1.6198963109731945,643.0,700.6,0.0,30.681818181818183,615.0,754.0,8.0,78.125,,,0.009052809013647151,0.012536974866743338,0.0006488094388456139,0.022238593319236104,0.7220887901483646,0.40707651260552463,0.5637485558000205,-4.379073011576801,13.11568721045168,40.20856977228675,0.3261913389292325,1656.7598029564133,3.065685322248703,3.926229658929034,493.06728871804944,0.4659090909090909,0.4823529411764706,0.7560975609756098,0.0,47.78210116731517,47.77042983939982,47.79635106504928,45.88235294117647,0.4016202531645571,0.598379746835443,8.317116002837231,10.15204183838759,0.5217113159659434,0.47828868403405667,29.04248366654707,27.807610929585422,0.510149177650118,0.48985082234988203,21.361651108075712,20.93235747711627,1.3894302134990806,3.0252652002931084,1.7250305809204176,2.7680053296430303,-2.0437527396252406,-2.6697903740418614,-0.15524518358867775,0.015180331711620067,1.045419309307735,0.6256866986534635,1.9924301646902056,5.787620079105893,1.0974559736437433,0.9351709863558615,1.1572324859930199,1.3689034388538102,1.7977177237680417,1.5848150244426937,2.5692555873607477,0.6606236882697236,Relax
89.99522883131374,666.7640449438202,28.11462837931613,,,,,,,18.579069357258405,18.684142439068097,0.042165783521942904,0.02786453393542513,666.0,31.1346,0.046748648648648645,41.0,1.513242016523955,641.0,693.2,0.0,30.337078651685395,613.0,730.0,7.416666666666667,109.375,,,0.04908612813546117,0.013817454933550506,0.001367133240636445,0.06427071630964812,3.5524724612109226,0.7637401752140192,0.21498834503383732,-4.281822635810899,13.211683819320411,37.70719493192611,0.35037567348013676,1565.0646077214344,2.8540794230016404,3.9015023804051205,430.47731661728824,0.4606741573033708,0.4767441860465116,0.7560975609756098,0.0,50.75075075075076,50.758291878249885,50.742076136108416,45.348837209302324,0.48261785620226494,0.5173821437977351,9.178936406971038,9.503780252113353,0.516674974872861,0.48332502512713904,27.103971975629406,26.21463813937872,0.5129506672692317,0.4870493327307684,20.23460118730936,19.717113022182396,1.3556588579012243,3.0987355734413136,1.6778115963903086,2.61993223695403,-1.9680237417538589,-2.191010442501571,-0.1959661067441629,0.014604125697342358,1.001768787179266,0.590701648210795,1.6977305195797785,5.781638627474069,1.163874109180625,1.1180609689460057,1.0144099327498326,1.3302814721340217,1.7692282534434844,1.6234315061021214,2.752395642829247,0.8003715476475323,Relax
89.68427815306414,669.125,25.974705866045646,,,,,,,18.80663859312487,18.91563170223154,0.038818914053496203,0.028106315849990463,667.0,26.686799999999998,0.04001019490254872,35.0,1.3811455852371832,644.8,693.8000000000001,0.0,31.818181818181817,613.0,730.0,6.285714285714286,54.6875,,,0.048746404903918225,0.021411853728220635,0.0013284243031759955,0.07148668293531485,2.276608346136369,0.6818949054892741,0.29952227252725205,-3.8438105977735773,13.375371447075155,34.429105010912586,0.3884902451816776,1446.7099141414053,2.574067206069356,3.8673515676064127,354.4913205716329,0.5113636363636364,0.5294117647058824,0.8,0.03333333333333333,49.887808526551986,49.888034050468924,49.88766300799574,45.88235294117647,0.45760618764421046,0.5423938123557895,9.047998622334523,9.850628595218186,0.5105475066516134,0.48945249334838686,24.600493143851093,24.08690534152906,0.5036051109623384,0.49639488903766177,18.53443473632838,18.40127567116899,1.3504221656022426,2.90748054037069,1.7030908692756113,2.609598791432952,-1.7085435588443545,-2.2107418736950333,-0.18821530890048008,0.013662782650290065,0.9303002891514298,0.5944557098906951,1.3418425985490563,5.729151362881725,1.1965926525982558,1.0778174742417246,0.9510801550523305,0.9483501739530259,1.7420646567860207,1.6202154823615322,3.0967835386977254,0.9542342163896008,Relax
90.63409285071177,662.0786516853933,28.025647636301223,,,,,,,18.521793060657444,18.627343498465432,0.04232978599288602,0.027975215653771954,660.0,28.1694,0.04268090909090909,37.0,1.5131174149564994,640.0,684.4,0.0,29.213483146067414,605.0,730.0,7.416666666666667,85.9375,,,0.03794418161838405,0.022251611098384663,0.0008300550840861221,0.061025847800854835,1.7052330031571772,0.6217722978991951,0.3646260052133674,-3.8053408640751223,13.171520903256054,37.6072334787718,0.3502390281032237,1556.1705224363154,2.8551929389927277,3.8990272944505953,429.50362993456076,0.5056179775280899,0.5232558139534883,0.7777777777777778,0.03225806451612903,49.51672862453531,49.515666309458325,49.51856876167118,46.51162790697674,0.45970386564642735,0.5402961343535725,8.930768202660685,9.682013184784703,0.5206387587679387,0.47936124123206114,27.135612840856133,26.037713526306767,0.5139803778276681,0.48601962217233186,20.200248821963697,19.643114633229164,1.277910645161783,1.5230348006149104,1.4124126744857772,1.9597980967185382,-1.0086309280454557,-1.8059511393679504,-0.14059559111074843,0.002012652105507938,0.2032846972182037,0.5438994801763801,1.2470322937863827,5.727090841268751,1.1441859130073824,1.3049582856288284,1.1238138978226313,1.5504713646309771,1.7288476724832336,1.6141714142357948,3.126477700428019,0.8731325974336717,Relax
90.45125850620605,663.2471910112359,30.7246868831136,,,,,,,19.2235650841735,19.305117593743244,0.046324639289114,0.02898401281558965,660.0,29.651999999999997,0.044927272727272725,43.0,1.598282459501168,638.2,692.8,0.0,32.58426966292135,605.0,735.0,8.090909090909092,101.5625,,,0.01830342532731938,0.018281615099538188,0.000891363311042678,0.037476403737900246,1.0011930142748573,0.48839865893559453,0.48781668666488975,-4.00185936349264,13.650779562139572,40.86289740748941,0.33406293797555425,1752.4130697526791,2.9934478995487286,3.950606593511698,489.2838176556975,0.4606741573033708,0.47727272727272724,0.7619047619047619,0.034482758620689655,46.80111265646732,46.86599566813783,46.73609848119011,48.86363636363637,0.43520910209102087,0.5647908979089791,9.01881812987545,10.274116568560425,0.48853154353894057,0.5114684564610595,28.561135035249517,29.223927696893305,0.48316399589955517,0.5168360041004448,21.178733613716467,21.904285212003785,1.2890698531060807,0.9094404858424072,1.3415021339188593,1.6758967564951877,-0.6736196756236694,-1.4841194990891102,-0.13230730566543739,0.0002668082423305752,0.05032136992319841,0.617064297303668,1.410986973710262,5.82107430167999,1.1351265189908863,1.258747766718636,1.204330234918172,1.5084750669045073,1.889095661323909,1.655121460653065,2.264697824165429,0.8731325974336717,Relax
91.11473855721955,658.5444444444445,27.29166688109329,,,,,,,18.041774246939465,18.142587272259785,0.04144240698001309,0.027396441347492816,656.5,23.7216,0.036133434881949734,30.75,1.5126930704014845,636.6,678.6,0.0,26.666666666666668,605.0,735.0,6.923076923076923,70.3125,,,0.04131482617415129,0.016218536330364318,0.0011285342135383682,0.058661896718053975,2.5473831505252256,0.7042872543436889,0.2764748028573861,-4.121600472938482,12.828746488483644,36.55349075553125,0.350958177271822,1473.2042155331603,2.8493423568970897,3.875233062868105,416.61363800872556,0.4444444444444444,0.46067415730337075,0.7317073170731707,0.03571428571428571,49.26578560939794,49.281354196760105,49.251112761657275,43.82022471910113,0.4532619951674146,0.5467380048325854,8.637589625899956,9.486533517666933,0.4981480922426114,0.5018519077573887,25.799310115248982,25.895043618266417,0.4932250174048081,0.5067749825951919,19.238143841964625,19.500610274729077,1.3568486331808762,0.7209554125008486,1.4545656731220582,1.6822958019621237,-0.6239551789481226,-1.6239551789481226,-0.18412730539033514,0.0005199617025067412,0.044980036328634614,0.651475800363182,1.8417698898027164,5.768304035454523,1.1654012862718672,0.8628019505592042,1.2861780747043985,1.6789534604151186,1.9271226991928228,1.6409748544677996,2.8007411080961693,1.0819755160549458,Relax
90.71600814410522,661.4777777777778,28.76414269743845,,,,,,,17.501524813184616,17.59719833304794,0.04348466972552132,0.026458220368310272,660.0,28.9107,0.043804090909090904,40.0,1.6435220933303618,636.6,687.0,0.0,25.555555555555554,605.0,735.0,7.5,93.75,,,0.023844515376380992,0.013565755896695987,0.0007903160347318796,0.038200587307808856,1.757698985442341,0.624192376526807,0.3551190401180799,-4.300206610376884,12.443098271182807,38.74363435802895,0.3211649727074246,1514.5330717795293,3.113664580449069,3.887248871113359,482.5387280738574,0.43333333333333335,0.4431818181818182,0.6666666666666666,0.037037037037037035,51.16981132075471,51.21033649766959,51.12900737003746,45.45454545454545,0.4947727522834819,0.5052272477165181,8.754219761712841,8.84622415599909,0.4814326160812369,0.5185673839187628,26.882404532493002,27.899919889133034,0.4826803994968219,0.5173196005031783,19.991248548864625,20.69614954089556,1.3091863589876864,1.7423427195820018,1.3464470273287592,2.1770804435889346,-1.3637627717829837,-2.2803169452951586,-0.023266343111044654,0.005932977687485394,0.3705073311222927,0.59748581170108,1.992430164690206,5.7905262576767464,1.1061095473301614,1.0474136855066063,1.0731658867502765,1.3229993660189796,1.9501253333965907,1.6420803608782446,2.2243353096288687,0.9377121139142864,Relax
91.1123479045234,658.4888888888889,29.930723174737967,,,,,,,16.967252000528493,17.05402848714782,0.04545364952967091,0.02576695261959308,658.5,25.9455,0.03940091116173121,34.75,1.7640289172227588,634.8,678.8,0.0,23.333333333333332,597.0,735.0,6.923076923076923,78.125,,,0.030474254776136172,0.013977305295808836,0.0008870256040169625,0.04533858567596197,2.18026680616857,0.6721483328557665,0.30828719262893667,-4.270320314989947,12.059019189810783,40.60403698160157,0.29699064640481304,1538.264698640875,3.3671094093547653,3.894001183572743,546.872939914158,0.37777777777777777,0.39325842696629215,0.6,0.041666666666666664,48.08575803981623,48.05381137226423,48.11989295468233,47.19101123595505,0.45078448208570765,0.5492155179142926,8.100925873009825,8.941730562622956,0.4720432389375245,0.5279567610624755,27.89716720696843,29.50315035771119,0.4703183899989683,0.5296816100010318,20.541140890582913,21.798972756580287,1.407816844086899,0.5960167643245815,1.5548334986301957,1.5861032814795963,-0.4692289644883516,-1.4692289644883516,-0.44753539712119306,0.0008470776283048122,0.04561800598447515,0.6187650349642957,2.065455299705096,5.8626398687397785,1.0681583411691924,1.2471726811799917,1.1502895344427622,1.4009691005721414,1.9252941984644336,1.644858022187783,2.774227288149416,0.9377121139142864,Relax
91.26273502592763,657.2111111111111,32.574027857886904,,,,,,,17.868433028007924,17.962792096382316,0.04956402487294496,0.027188269835850366,659.5,27.428099999999997,0.041589234268385136,37.0,1.822992973520882,632.0,679.6,0.0,26.666666666666668,575.0,735.0,6.428571428571429,101.5625,,,0.05116742947954217,0.011737347260941507,0.0007587861427294135,0.06366356288321308,4.359369143810933,0.8037160844014605,0.1843652276023721,-4.444979447444756,12.701612100396055,43.47958674755899,0.2921281698039401,1734.978613998003,3.4231549825240872,3.9462642358437847,595.3494560519794,0.34444444444444444,0.3595505617977528,0.5,0.0,48.38709677419356,48.22963779687625,48.53285584967336,46.06741573033708,0.44594594594594594,0.5540540540540543,8.48528137423857,9.458041311738148,0.39993742249316017,0.6000625775068397,27.496754068739065,33.68089932620253,0.4035575697827712,0.5964424302172288,20.347868246043838,24.737193907922695,1.4368074032939946,0.45994900944922734,1.490113776735901,1.588471430104172,-0.15029439287779844,-1.1502943928777984,-0.286155309941746,0.0004811551789502039,0.024175192919363823,0.6635225789645101,1.688575232992824,5.822245735146448,1.0424574318116169,1.0138373979442104,1.2515260856713555,1.5658007873229354,1.824172395984613,1.6134479198332412,2.217651236518016,0.9377121139142864,Relax
90.61198093875748,661.8539325842696,49.06409318474008,,,,,,,21.005410558407867,21.093598943884224,0.07413130113643777,0.031737230111167136,660.0,37.065,0.05615909090909091,51.0,2.3357835852963666,627.8,692.2,2.247191011235955,30.337078651685395,565.0,815.0,8.090909090909092,132.8125,,,0.0283195870957241,0.009648718418665566,0.0006402325990561572,0.03860853811344582,2.9350620327917856,0.7335058119142178,0.24991151932026406,-4.640930178806688,14.915426852849931,67.54955416213056,0.22080718426431561,3165.250209872965,4.528838150496758,4.207378156217886,1223.683991754016,0.30337078651685395,0.3181818181818182,0.39285714285714285,0.0,53.44129554655872,53.29496420209533,53.58030014723979,47.72727272727273,0.5969403523230657,0.4030596476769341,11.541529212011904,9.483803495203398,0.3771015066990986,0.6228984933009015,41.48122953886777,53.312755166530046,0.38735139642242467,0.6126486035775754,30.44584783355491,38.28963562233263,1.5406253137187325,1.5706227094331089,1.7372817723630918,2.2621325709735536,-1.2858739146299643,-2.2858739146299643,-0.1658326691329337,0.007552885489960182,0.3514004221602083,0.6336146060707302,1.2383742310432686,6.014839610644444,0.8300334499536602,0.7841918763919008,1.0480620583350748,1.1517577626864726,1.6467328518422604,1.502317803026333,1.9268273164315355,0.8003715476475323,Relax
90.46510920552943,663.1685393258427,49.533330366131935,,,,,,,21.613074746550986,21.71911203493842,0.07469191831157436,0.032590621335146855,661.0,37.065,0.05607413010590015,49.0,2.2918224707493997,629.6,697.0,2.247191011235955,30.337078651685395,565.0,814.0,8.9,132.8125,,,0.04176226377126128,0.0038101349833481566,0.00036075257105768507,0.045933151325667124,10.960835758780043,0.9091965729754932,0.08294956634554006,-5.570090661770806,15.357731401255313,68.40627860405498,0.2245076287536118,3300.448080817455,4.454191626144964,4.225543015238507,1218.7786933356842,0.3258426966292135,0.34090909090909094,0.5,0.0,52.54125412541255,52.46138038009105,52.61148548858099,48.86363636363637,0.594983822706595,0.405016177293405,11.855935998089928,9.781815171325668,0.3829002232978465,0.6170997767021535,42.32907466268806,53.737029976136284,0.39309297034790164,0.6069070296520984,31.083064361402858,38.62222351640404,1.6681050963946191,0.3077970818250835,1.698206038810174,1.6160632609949386,0.26099553346888094,-0.7311199165764748,-0.7668731533391081,0.0007474978759358414,0.022560890506460686,0.638277661656478,1.3364619873720152,6.014839610644444,0.8425486252825709,1.1778205653801395,1.256354028092906,1.3932928307573067,1.6542854319480353,1.4347108327769937,1.9810246861467247,0.8003715476475323,Relax
89.79156936136971,668.7078651685393,55.23466513785255,,,,,,,23.41789331414607,23.499991662774484,0.08259909598032222,0.03501961698662522,665.0,48.925799999999995,0.07357263157894736,65.0,2.3586521809153043,623.8,713.2,2.247191011235955,34.831460674157306,565.0,814.0,11.125,132.8125,,,0.04565483562924986,0.003884106346508795,0.0003982268483672691,0.04993716882412592,11.754270237808093,0.9142455750753904,0.07777986694015951,-5.550862348261374,16.617003462575166,75.48429800320444,0.22013854407004943,3940.5714234243533,4.542593866169088,4.3025293135248885,1371.5780364057441,0.3146067415730337,0.3295454545454546,0.4827586206896552,0.0,54.08467501490758,53.76090168884878,54.42071301574541,52.27272727272727,0.6303694647630493,0.36963053523695083,13.2224556468658,10.125079820885876,0.44394542884818833,0.5560545711518118,50.29460651961552,56.287936541266276,0.4525986212878068,0.5474013787121932,36.77214148167254,40.440382301932615,1.6822130551942727,0.2268598854905881,1.7808332830739912,1.6674033403286972,1.2498141793968056,0.08938737266210417,-1.0,1.94197371186125e-05,0.0023819824186875117,0.5984813712110855,1.0986122886681098,6.068265312915944,0.8291505877021433,0.9891490326032647,1.293203303573641,1.7003153314138735,1.8854918306429476,1.4102266772201566,2.156240119757833,0.8731325974336717,Relax
89.4392718777617,670.9204545454545,56.662992766145884,,,,,,,24.81981040430702,24.962623757737397,0.08445560480718209,0.036993670764028694,669.0,58.5627,0.08753766816143498,79.75,2.282974440300844,623.2,717.6,3.4090909090909087,37.5,565.0,814.0,12.571428571428571,78.125,,,0.04015080404832096,0.003388701668163833,0.0002303275260205076,0.043769833242505295,11.848432815886285,0.9173168155763074,0.07742094079702896,-5.68730841969093,17.65124053530453,78.59691559047853,0.22457930317869695,4358.435356982672,4.452770072068055,4.346300719004615,1399.8959739925676,0.3409090909090909,0.3563218390804597,0.5483870967741935,0.0,50.57803468208093,50.56428104555783,50.588042374578116,54.02298850574713,0.5712020002239057,0.42879799977609456,13.341010386756126,11.558999312928394,0.42052380151145347,0.5794761984885468,50.96837578103636,59.83059259759906,0.42775908927418194,0.572240910725818,37.2542473276301,43.088921288981894,1.7078885869311793,0.31424255870194884,1.7750291727092056,1.795431753105552,0.7355885127099651,-0.1241808692317381,-0.43507378351097986,2.6830965826052275e-05,0.006322917124096835,0.5890064666454857,1.1089750757036563,6.132671533385439,0.8467460059997695,1.087512579651346,1.1550900976693736,1.5086746321635982,1.8704776052566277,1.3792873865246644,2.296680791249605,0.6606236882697236,Relax
89.60998955845211,669.6179775280899,54.69949011270945,,,,,,,24.27704677262043,24.41556955249299,0.08168760688689074,0.03625507018530133,663.0,44.477999999999994,0.06708597285067873,61.0,2.2531360846739954,631.2,716.8,3.3707865168539324,34.831460674157306,565.0,814.0,8.090909090909092,78.125,,,0.04507618503633233,0.002320810106657325,0.00021734494977399132,0.04761434009276365,19.42260803976582,0.9466934740356285,0.0487418307622421,-6.06583897035041,17.26441479709959,75.68343737775415,0.22811351327673934,4104.900013709962,4.38378237937546,4.320272693092555,1327.1188767486587,0.3707865168539326,0.38636363636363635,0.5882352941176471,0.0,50.44937088076693,50.47277775848998,50.425100094659726,54.54545454545454,0.5589511231080689,0.44104887689193106,12.907718442943308,11.465841322876368,0.4191047752067847,0.5808952247932154,48.99617228997649,57.68325401919844,0.4260221769434063,0.5739778230565936,35.827601751103565,41.58619549492808,1.7224380133675894,0.4430693867475455,1.7605353098630252,1.8641347127814036,0.25501406047836994,-0.5405117566943538,-0.2661779260380093,1.7540380581780095e-05,0.008504961057480297,0.5775648018290669,1.0712133144799953,6.099219105075084,0.8275161689192368,0.9877849643960165,1.1164990593459254,1.3221310669533086,1.7137895517471469,1.3822688156236276,1.9657162131263282,0.8003715476475323,Relax
88.11920238766173,681.1609195402299,56.10017484597766,,,,,,,26.14828021380249,26.25420557803103,0.0823596498810357,0.038387816246786534,670.0,56.3388,0.08408776119402984,84.0,2.1454632728145895,636.2,733.8,5.747126436781609,36.7816091954023,565.0,814.0,12.428571428571429,85.9375,,,0.049843770483157475,0.005960718719881323,0.0003903201251460858,0.05619480932818489,8.362040355453956,0.8869817529242509,0.10607240759675796,-5.1225642145912245,18.56452679889142,76.57409928467033,0.2424387223919711,4465.968479063925,4.124753629014823,4.356885763444879,1263.397175651941,0.40229885057471265,0.4186046511627907,0.6666666666666666,0.0,53.86376645678307,54.21360828155699,53.53402373762272,52.32558139534884,0.5951769527729117,0.4048230472270881,14.347986126364663,11.83315382354868,0.5099656609684888,0.4900343390315112,54.683003916646804,53.6037476666561,0.5147122064117313,0.48528779358826873,39.97559019720887,38.81613899734429,1.6873925730826451,0.5615827897764869,1.7505969759948252,1.9579731303909755,0.4426101002305387,-0.5369682246096352,-0.1307291495191881,0.00044370202547279193,0.03477865148933337,0.5973590415014298,1.083344816537321,6.121104415388959,0.865388665220196,0.9200160584834082,1.0349060358007225,1.3046071203435763,1.7580885258450667,1.4328909333201167,1.783108115336558,0.6665113961222823,Relax
88.69074142266211,676.6321839080459,44.86572083049824,,,,,,,22.78386822211695,22.917352847995065,0.06630739993975143,0.033672457154673666,665.0,42.9954,0.06465473684210526,62.5,1.9691880409905902,636.2,723.6,3.4482758620689653,28.735632183908045,616.0,806.0,9.666666666666666,23.4375,,,0.048250438018091646,0.005884926739032259,0.0004516694994515504,0.054587034256575455,8.1989870320843,0.8839175579918868,0.10780814197326304,-5.135360987109956,16.205015605662147,61.71182809155946,0.2625917284709082,3141.721890159081,3.808193067706575,4.20413784798115,940.0422237351066,0.42528735632183906,0.4418604651162791,0.6578947368421053,0.0,50.23505708529215,50.239682080375495,50.22914889152064,53.48837209302325,0.5248751203996146,0.47512487960038535,11.740327683571996,11.17007556981125,0.5477040460876782,0.4522959539123218,45.671091010259225,41.50302606238258,0.5462314163786757,0.4537685836213245,33.344293726101235,30.39137838738235,1.6113269284359468,1.9348690425748458,1.93644774882832,2.033382406683619,-0.23612929393874715,0.15936999692608644,-0.4499011789829962,0.0012954564539445134,0.23898746246026975,0.6395895947738306,1.257676983297797,5.971454415289489,0.9071792172294317,0.9847187737285191,0.9581673699767776,1.106504191188869,1.8444232678279167,1.4295555753670077,2.1167689880926535,0.5924545743309175,Relax
88.89320739315419,675.0,42.31773502533446,,,,,,,21.888459314506143,22.01658683264129,0.06269294077827327,0.032427347132601696,667.0,37.065,0.05556971514242878,49.0,1.933335481373475,639.0,701.8,3.4482758620689653,26.436781609195403,617.0,806.0,7.909090909090909,39.0625,,,0.02529148853536924,0.0077735881731818696,0.00041301007108454076,0.033478086779635645,3.2535153614932213,0.7554639756401424,0.23219929574680648,-4.857023422848318,15.568077847943108,58.122683234943196,0.2678485744543814,2842.6966820957373,3.73345276164729,4.16070063257181,867.9931689513974,0.45977011494252873,0.4767441860465116,0.6585365853658537,0.0,50.319375443576995,50.31812453764461,50.31885156847331,51.162790697674424,0.5111521005752008,0.4888478994247994,11.13050921090844,10.884959942102519,0.5545737396328987,0.44542626036710126,43.28379243501731,38.791231211085396,0.5516670172409045,0.4483329827590955,31.602016730358994,28.48896252773223,1.5314040632764927,1.131413521651746,1.703521545708825,1.8563800722867159,0.039945298319858935,-0.2385206473077952,-0.364895969817708,0.0006994881789878604,0.08674246559879686,0.7076565607447796,1.326190437050185,5.873865622235775,0.8972552947753404,1.3536069017697179,1.046092451501459,1.3200650239267548,1.8744785124830767,1.4772139626201406,2.19207251522164,0.7405682179136469,Relax
89.2907126713152,671.9772727272727,34.06922542724037,,,,,,,19.542761837311662,19.644215820009364,0.050699966814305684,0.029082474408689184,668.5,28.9107,0.043247120418848164,38.25,1.743316820358232,644.4,691.0,2.272727272727273,23.863636363636363,619.0,806.0,6.285714285714286,54.6875,,,0.023952679026208196,0.009623260672777809,0.0003251805746132198,0.033901120273599226,2.4890398213949783,0.7065453540442892,0.28386261560424014,-4.643572124459972,13.890558217420674,45.936019450089546,0.30238924451242577,2004.5778662357177,3.3069959270952443,4.008993040700337,607.6409169136563,0.4772727272727273,0.48837209302325585,0.6904761904761905,0.037037037037037035,47.67166535122336,47.75233774061312,47.59496839007479,50.0,0.4644415686038463,0.5355584313961537,9.472113292848547,10.171494596448518,0.5103099987572762,0.4896900012427237,32.81484807537746,32.145040499412985,0.5064629613527062,0.4935370386472937,24.15093356831845,23.840752201162637,1.4348874608587103,0.585876866046001,1.5109581021289067,1.6362793725627571,0.4233174954131389,-0.24757627292677942,-0.28609622994738515,0.00031381608754561845,0.026794621849211154,0.7620282073466944,1.9042374526547452,5.783184175406311,0.9726659822789412,0.7806330115532338,1.3961184158761148,1.409599838714735,1.798146329877285,1.55666263270652,2.1611675648384683,0.8074289523296622,Relax
89.53260554615684,670.1136363636364,33.52591442972148,,,,,,,18.481429013764185,18.58805093413702,0.05003019280677447,0.02757954473819312,668.0,29.651999999999997,0.044389221556886224,43.0,1.8140325839929803,640.0,689.0,2.272727272727273,20.454545454545457,619.0,806.0,6.769230769230769,46.875,,,0.0167464586882685,0.010107294975072111,8.926450360520554e-05,0.026943018166945817,1.6568685023609913,0.6215509555946245,0.37513595961835944,-4.594497841090192,13.143736864569224,45.64225509781837,0.2879729942440437,1884.672191943428,3.472547842984702,3.982205932614779,633.9796579555469,0.45454545454545453,0.46511627906976744,0.65,0.038461538461538464,49.4991652754591,49.471679796514856,49.52694320572588,48.837209302325576,0.49316866334634535,0.5068313366536547,9.230573566799249,9.357561300273277,0.5196557695366864,0.4803442304633134,32.90220247940512,31.633218654107196,0.5176273367881662,0.4823726632118339,24.163592617488252,23.326213536565763,1.5309306364696815,1.2529540059797712,1.5309306364696815,1.8956185962057215,-0.7020270598259355,-0.8273919840350734,-0.2089374725683843,0.0021923311712598605,0.12477413308737188,0.7787627091137166,1.7707060600302225,5.696710988196801,0.9626797940527277,0.8830838889799243,1.2507330227880071,1.387273771088068,1.7313175787031563,1.536352283783673,1.8349941559117637,0.6606236882697236,Relax
89.3395423502047,671.7386363636364,33.84192269142602,,,,,,,19.29296220917352,19.40477541073275,0.05037959834292778,0.028720935740146326,669.5,27.428099999999997,0.040968035847647494,38.75,1.7541071362973324,641.6,690.2,2.272727272727273,23.863636363636363,614.0,806.0,6.285714285714286,93.75,,,0.03547694346864076,0.013879953791276954,0.00027034063679047706,0.04962723789670819,2.55598426350214,0.714868386237429,0.2796841891576968,-4.277309653067741,13.7212482803311,45.517356301443385,0.30145090566026544,1962.0972328700557,3.317289751741525,3.999690635254751,603.9770383405827,0.4659090909090909,0.4767441860465116,0.6585365853658537,0.08695652173913043,50.11838989739543,50.12873683294956,50.1085430667772,46.51162790697674,0.5007874502053545,0.49921254979464535,9.710040356297712,9.69476003277148,0.5202466598910218,0.4797533401089782,32.830816226890065,31.527245844645535,0.5186256502314097,0.48137434976859056,24.208958856637743,23.323331694268536,1.5044803561496893,1.2256366628149946,1.5177333367240635,2.100490445913772,-0.24489876459285043,-1.151159836870443,-0.024527025936663404,0.0024567541173492924,0.17836215263741975,0.6801724151922559,1.7311348474116202,5.73472210146892,0.9868194558255273,0.9828102628186444,1.2817445766358344,1.4513096546849011,1.7142348314287694,1.562618192245858,1.7569471981813345,0.8808315843596315,Relax
91.20390420387459,657.9,30.660170701020736,,,,,,,18.70228009893116,18.80757758095759,0.046603086640858396,0.028427238332468702,664.5,34.099799999999995,0.05131647855530473,45.75,1.6393814304370822,632.0,687.0,1.1111111111111112,23.333333333333332,573.0,717.0,6.923076923076923,132.8125,,,0.02273043722539672,0.01535017800819361,0.0003373291619583167,0.03841794439554865,1.4807930704949273,0.5916619846019251,0.39955750495521514,-4.176628208391181,13.298965645187193,40.869246712707415,0.32540275916199274,1707.5143800690823,3.0731146920059698,3.9393344798019525,502.3835300961514,0.4666666666666667,0.47727272727272724,0.6190476190476191,0.08333333333333333,50.54517133956386,50.50974766023651,50.58295192535767,45.45454545454545,0.4728878894956633,0.5271121105043367,9.145602520039095,9.655721337396525,0.5604477125461563,0.4395522874538436,30.595966976344215,27.095795460672512,0.5520634593580124,0.4479365406419878,22.580469887405922,20.339801943382533,1.2269030765870825,1.5748027630750343,1.4668125111468373,1.7176164505351066,-0.16093962202115808,-0.4114115720621836,-0.34073945939837086,0.0019962386995122307,0.2008196950237872,0.6539334147318527,1.7100814382137879,5.691418651692922,1.0748970453783462,1.0988082273302966,1.269785219767884,1.4618069562360645,1.7817447205636876,1.700179912404682,2.07118494360666,0.793448711773627,Relax
91.05912136732043,658.9662921348314,29.929253490600072,,,,,,,18.81307572359762,18.917353110142944,0.045418489303359136,0.028549374904518286,667.0,29.651999999999997,0.044455772113943026,40.0,1.5908750876423257,632.6,685.4,1.1235955056179776,25.842696629213485,573.0,717.0,7.416666666666667,132.8125,,,0.021909817072355356,0.013163748118812891,0.00034527036646474283,0.03541883555763299,1.6644056749341074,0.61859224696148,0.3716595396647933,-4.330288582176104,13.376588666282501,40.32061618904351,0.33175556156102043,1694.4252156229497,3.0142674784249794,3.935992515735364,486.1484883547584,0.48314606741573035,0.48837209302325585,0.6190476190476191,0.08,48.73217115689381,48.72496958553108,48.74242165835267,45.348837209302324,0.4460604893084184,0.5539395106915815,8.935593297940931,9.957669025117932,0.5588876454999184,0.4411123545000816,30.143204170604545,26.779457279665085,0.5476971550875768,0.45230284491242334,22.231257108595525,20.202654585563756,1.3050878647616113,2.2207205880376586,1.6177199694645066,2.268921841624324,-0.9129883564254211,-1.555230976270411,-0.2067610055638505,0.008300907409658881,0.555916715233401,0.6132092707171188,2.1972245773362196,5.759166717361709,1.0586566437022649,0.9054998647560435,1.085951355463421,1.3099212891169278,1.7618874394871287,1.6530300752783642,2.3813359671576673,0.6548494480752537,Relax
91.2408279159509,657.6741573033707,29.267875377473818,,,,,,,18.521793060657444,18.62574467454377,0.04450209127492474,0.028162567823253763,662.0,26.686799999999998,0.04031238670694864,37.0,1.5801858535846818,633.0,680.8,1.1235955056179776,24.719101123595504,573.0,717.0,5.933333333333334,117.1875,,,0.021056496263205986,0.013912354825479832,0.0005491699577109703,0.035518021046396786,1.5135105830281148,0.5928397935149632,0.391698479127153,-4.274977997261164,13.170390364019125,39.442866865936224,0.33391057523238454,1631.9881230470846,2.9948138039774617,3.9196871037706367,472.4961686342042,0.48314606741573035,0.47619047619047616,0.6,0.04,48.977923139820106,48.987925854846964,48.9706591946004,44.047619047619044,0.43906720991089465,0.5609327900891053,8.728010135164842,9.865183175210674,0.5692616888464833,0.4307383111535167,29.759419274531822,25.886612583468587,0.5561988719989719,0.443801128001028,21.929445917269735,19.58875379046679,1.286600739010327,1.2656559954992552,1.31790887152133,1.9091529600716424,-0.9586180408088509,-1.854898669033596,-0.0328556174404341,0.0017239591812233939,0.1541624022404286,0.6015354017282903,1.7391157357426328,5.704618931156391,1.0505922787450668,0.8371384120441833,1.104703643605768,1.7261168287305337,1.7346485200955997,1.6426646209806637,2.2804060765760714,0.727610497861393,Relax
91.34583006429334,656.8,29.43749806173805,,,,,,,19.136705127739923,19.23580887842657,0.04481957682968644,0.029136274555024246,660.0,28.1694,0.04268090909090909,37.75,1.538274110680968,633.0,680.4,1.1111111111111112,27.77777777777778,573.0,717.0,7.5,117.1875,,,0.03996583946876548,0.023018668897367225,0.0007904489774796542,0.06377495734361235,1.7362359069049644,0.6266697953780509,0.36093585721030286,-3.7714497011062513,13.601770899543824,39.2271644273352,0.34674366852949273,1676.2247317423062,2.883974793947661,3.9313023540965566,452.52061378590025,0.4888888888888889,0.4823529411764706,0.6585365853658537,0.03571428571428571,47.95050270688322,48.03037800691363,47.87165463641925,47.05882352941176,0.43193323719817145,0.5680667628018287,8.943636640854567,10.256649727682214,0.5633309966368072,0.43666900336319286,29.442097061333723,25.921677215029835,0.5492162539469856,0.45078374605301447,21.758052713106384,19.71208022097821,1.2813848069330378,1.5110866606022357,1.3767013151825185,1.9419216752819444,-1.2169851034481063,-1.896219823342281,-0.12595106234730424,0.0019132626111767583,0.18887897674191112,0.514887757451775,1.4816045409242158,5.7442507350502945,1.0837782625132395,1.1717847945798432,1.0925377800203582,1.52433978163825,1.8571068089724574,1.6615350653078513,2.0203104175960065,0.793448711773627,Relax
91.88387185407767,653.2777777777778,27.68158751121535,,,,,,,20.659899822461806,20.773401709647803,0.042373379981450486,0.031624984846016876,657.5,26.686799999999998,0.040588288973384026,35.25,1.3398703647691188,628.8,676.2,2.2222222222222223,27.77777777777778,573.0,713.0,6.923076923076923,109.375,,,0.031020671111840127,0.025426336478985116,0.0009242765460635067,0.05737128413688875,1.2200212617133708,0.5407003098941334,0.4431892515830305,-3.671969772883896,14.689013217204183,36.40835669431946,0.4034516949098119,1680.1326503278951,2.478611473483935,3.9323136815871624,360.9686825329434,0.5222222222222223,0.5232558139534883,0.7333333333333333,0.06896551724137931,48.802816901408455,48.7929857094698,48.81482667095429,44.18604651162791,0.4072075392229124,0.5927924607770876,9.375075757269668,11.311448343884335,0.6072684707545869,0.39273152924541316,28.372097520756725,22.81649665162175,0.5792542813766544,0.4207457186233457,21.128984395633825,18.007517639722447,1.1656673459776885,2.6493781968049985,1.4172866041107752,2.4499442505840077,-2.0184472946897998,-2.937622907097439,-0.11022641172235832,0.011352963473320555,0.807677452902849,0.4948057335098186,1.504077396776274,5.797082818407667,1.173258782167727,0.8451965961005068,1.1517359507707214,1.6466625340949377,1.9682999370294132,1.720842672624319,2.6286828297020497,0.8655804128439567,Relax
91.3616149435496,656.7444444444444,28.431491130261485,,,,,,,22.70672820152603,22.832862989074204,0.043291559404529646,0.03457467877133576,661.5,24.462899999999998,0.03698095238095238,36.0,1.2521174727564104,634.6,678.2,3.3333333333333335,34.44444444444444,573.0,716.0,6.428571428571429,117.1875,,,0.05465792712200594,0.0808066449950971,0.002694667393645127,0.13815923951074818,0.6764038666043156,0.39561543126295073,0.584880499351697,-2.5156960767982834,16.14527225347771,37.00216361727447,0.43633319447137103,1876.8188846754263,2.2918265506054976,3.9803924746549564,339.2101640316735,0.5222222222222223,0.5232558139534883,0.7333333333333333,0.06896551724137931,50.96401028277635,50.96852006066004,50.95847345528212,47.674418604651166,0.4795807182705717,0.520419281729428,11.182118436471361,11.648497757221744,0.577561503227723,0.4224384967722772,28.12070718623235,24.04965570867347,0.5618878664628156,0.4381121335371843,21.39876100830481,18.895415313055842,1.1635294715759792,1.8656628214147943,1.3083594707448998,1.873856550536713,-1.5590743153596929,-1.9594554286035128,-0.19689213222195315,0.001904250775985979,0.2402538467202676,0.4563626451546212,1.4384801142904609,5.827692679542816,1.2115981606161483,1.2049489698416522,1.0927937023947603,1.5403623738393257,1.9747841618626862,1.788594967402567,3.0545413894313103,0.8655804128439567,Relax
90.81395858549863,660.7,21.11096951131959,,,,,,,20.575702917805692,20.68968522152726,0.03195242850207293,0.031142277762684564,662.0,21.4977,0.0324738670694864,28.5,1.0260144985399595,643.8,677.2,2.2222222222222223,30.0,608.0,716.0,6.0,85.9375,,,0.04127378577793508,0.05843648316740348,0.0016876515963064169,0.10139792054164497,0.7063016721882068,0.40704765499587925,0.5763084968138289,-2.8398148724285166,14.629816720757022,26.12540717190557,0.5599842568765573,1200.7478726546472,1.7857644884121082,3.786421935841047,186.6152974915839,0.5444444444444444,0.5465116279069767,0.7872340425531915,0.06896551724137931,48.98102600140547,48.9853926127296,48.9775215288244,47.674418604651166,0.4574696780700125,0.5425303219299875,9.896337706444744,10.777185498669272,0.5708855320146569,0.4291144679853432,19.739565375605952,17.11392586988834,0.5438053851698642,0.4561946148301356,15.613903118980554,14.30094727549124,1.0650089722437783,2.4558466893831272,1.2482993232403963,1.9267562168358616,-2.121996233952027,-2.121972466291411,-0.2237380914173092,0.003692701926470386,0.4133767012866248,0.579963067623221,1.840549633397487,5.630920391270075,1.3736365763502159,0.8560644165669693,1.1493329445810962,1.4784909595695528,1.8292931256348752,1.8350105658232727,3.0697402044483715,1.0819755160549458,Relax
91.09744705902001,658.5056179775281,34.84841316183356,,,,,,,25.530730146593573,25.668481663086197,0.052920449287682136,0.03877070969418035,663.0,26.686799999999998,0.040251583710407234,36.0,1.3649595198311708,638.2,682.0,3.3707865168539324,32.58426966292135,558.0,747.0,6.357142857142857,132.8125,,,0.04658209203857169,0.05097748884463616,0.0021229461349511316,0.09968252701815898,0.9137776907870002,0.46730448587128937,0.5113984403239465,-2.9763711389045615,18.150357446730798,45.51359930886666,0.3987897622325568,2595.2322940614863,2.5075869410530243,4.12114634671813,456.51722906893593,0.5056179775280899,0.5172413793103449,0.7555555555555555,0.06896551724137931,51.751207729468604,51.63399619209051,51.868249484687965,49.42528735632184,0.5828277545327752,0.4171722454672245,13.86117541581687,11.727019591769562,0.4541716685083341,0.5458283314916659,30.672643104517398,33.62553623410291,0.47183498388964396,0.5281650161103559,23.800664055075696,25.18133907814192,1.2432569492796028,0.8332936737711654,1.2432569492796028,1.5312307821344855,-0.5957609230708147,-1.175457903415257,-0.15441495367218583,0.00019035865556551207,0.03434236937043022,0.6140227461014032,1.6933193964148026,5.6651832569504705,1.1165243407368204,1.2261593234491892,1.2162426172208314,1.5704177497266782,1.7508590098954682,1.7010774170262344,2.5228601789821083,1.0914157467920895,Relax
91.27838645772061,657.3820224719101,34.92020306680306,,,,,,,26.04017874537172,26.185008114334305,0.053120106533328874,0.03961194230328137,659.0,28.1694,0.04274567526555387,39.0,1.3410124180890903,636.2,682.0,3.3707865168539324,34.831460674157306,558.0,747.0,6.846153846153846,140.625,,,0.05458152950375643,0.0365760629686394,0.0007983992347095398,0.09195599170710536,1.4922745936476285,0.5935614253131801,0.3977561688980534,-3.3083612697876834,18.515596803070558,45.97552560947967,0.40272724580342456,2674.3256554176082,2.483070143429309,4.134184400598848,456.6418198774742,0.47191011235955055,0.4886363636363636,0.7209302325581395,0.07407407407407407,51.229508196721305,51.21820898518615,51.23572304524993,48.86363636363637,0.5628267864324977,0.43717321356750244,13.893064506411475,12.244398203109936,0.4477751117762167,0.552224888223783,30.764982929011996,34.16525692052558,0.4638357821949568,0.5361642178050431,23.869451355254377,25.663106474098598,1.299233587677255,1.2814431667264126,1.430006374032775,1.6912733019357051,-0.6838152912319391,-1.0472937965620703,-0.2961150875146768,0.0003031099849389157,0.08491327913122035,0.5920869532102975,1.4975199962301151,5.6651832569504705,1.1358020496780068,1.2903482437182334,1.2863725446603544,1.4398488230528281,1.7420248240586373,1.6688780936826173,2.5544533663012694,1.1641767965782288,Relax
91.4469719380882,656.1111111111111,34.38265974130553,,,,,,,25.969299073752886,26.114782581027573,0.05240371510105839,0.039580642110715665,658.5,27.428099999999997,0.041652391799544414,37.5,1.3239733442038106,633.8,679.2,3.3333333333333335,35.55555555555556,558.0,747.0,7.5,140.625,,,0.05572606112270284,0.030266775039360903,0.000974030699359457,0.0869668668614232,1.8411628278940524,0.6407734707920337,0.34802650861953327,-3.497704701453785,18.465939852256927,45.20497381720397,0.4084935415940716,2622.4517797394315,2.4480191194643672,4.125677621322863,442.65056079760575,0.4666666666666667,0.4831460674157303,0.6744186046511628,0.07407407407407407,49.24065420560747,49.20709130900956,49.27330239907406,50.56179775280899,0.5454166805504649,0.45458331944953523,13.638390000956191,12.451040482261275,0.4359416511244054,0.5640583488755945,29.846980676160918,33.95066129445747,0.4515987470780747,0.5484012529219252,23.203964502874342,25.570254314553477,1.265014088086744,0.6912949009338059,1.2694140717338667,1.3010878025126575,0.047614596979633106,-0.07875175794383527,-0.45418202747336084,0.00017165495562545069,0.017193126925005263,0.6047625267486199,1.6700625342505353,5.654252229826851,1.1299562195104755,1.1566374165900422,1.3959606123321449,1.5109861912315563,1.7468105335956523,1.6953378921277842,2.723044361740274,1.0819755160549458,Relax
92.3473393897101,649.9120879120879,34.70915612522896,,,,,,,24.51144857227151,24.648705374809897,0.05340592484859888,0.03771502181320732,653.0,31.1346,0.04767932618683001,40.5,1.4160385512463578,625.0,676.0,1.098901098901099,31.868131868131865,558.0,747.0,8.272727272727273,140.625,,,0.0485270588402971,0.0312397362973611,0.0012044167515598272,0.08097121188921803,1.5533760713721614,0.5993124927744705,0.385812878039941,-3.466064395231903,17.42926671799738,45.94935672314588,0.37931470560104286,2515.98718296076,2.6363333275345884,4.107678534340907,484.5512820320199,0.45054945054945056,0.4666666666666667,0.6904761904761905,0.03333333333333333,49.845774213448486,49.83437430539558,49.85515808093922,50.0,0.5472231982690068,0.4527768017309933,12.89325230716361,11.727955653916188,0.43977918632902635,0.5602208136709739,30.471706141206706,34.39212857784258,0.45329378628865824,0.5467062137113418,23.39616240125968,25.69400175074993,1.3062267269600283,0.8773228148563259,1.3388935027046736,1.5304498681043084,-0.7276007592152514,-0.9945125572812659,-0.2816580600026857,0.0009110067817847026,0.052687492530068915,0.5804529979662321,1.6357552207514738,5.741042579640264,1.078734527294468,1.4435489225649991,1.3342318852475086,1.419638649852983,1.810002882440136,1.679632765347813,2.3226923388469585,0.8581707217844434,Relax
92.5036491621652,648.8131868131868,34.43735442410435,,,,,,,24.400819658363936,24.53523034515649,0.05307745761650174,0.03760839044936009,652.0,28.1694,0.04320460122699386,38.5,1.4113195747627338,625.0,675.0,1.098901098901099,31.868131868131865,558.0,747.0,7.583333333333333,132.8125,,,0.04142095799687016,0.027193604257175163,0.00021890350997824963,0.06883346576402356,1.5231874967784398,0.6017561012962854,0.39506370855131556,-3.6047734709332206,17.349027755034108,45.53082395572686,0.3810391784674029,2481.592821347005,2.624402047112717,4.101700634123337,477.96475038455327,0.4175824175824176,0.42696629213483145,0.6052631578947368,0.0,50.92478421701604,50.871917407669024,50.97435694598562,47.19101123595505,0.5462994065614153,0.4537005934385847,12.82422216578079,11.686927297751165,0.4636359547338521,0.5363640452661478,31.002310645542877,33.34535446992054,0.4741179921590164,0.5258820078409837,23.72344767861582,24.984964822744605,1.3060380679052026,0.4558176216959904,1.3060380679052026,1.3032451860418082,0.1965080829291299,-0.059016819587982106,-0.5061271915135768,0.0004735510808658654,0.016644619795514903,0.5693407260874546,1.4350845252893227,5.897797112678621,1.0701861378840312,1.067482970810887,1.1374503475086752,1.3477811040335608,1.7881227737316046,1.6522456028937273,2.5532938694043334,0.8581707217844434,Relax
91.88813858270474,653.1428571428571,34.88443506098113,,,,,,,25.424397731313125,25.560727913845547,0.053410114922762014,0.03892624324566751,657.0,29.651999999999997,0.0451324200913242,41.5,1.3720850117923094,627.0,677.0,2.197802197802198,32.967032967032964,558.0,747.0,7.583333333333333,140.625,,,0.03937208780632104,0.05386222198335261,0.0008888491501977901,0.09412315893987144,0.7309777865920554,0.4183039355008585,0.5722525953231269,-2.921325937652896,18.07416403994446,45.85108338622313,0.3941927366840628,2603.5006718367204,2.5368301009601786,4.12252780404377,465.2656339832239,0.42857142857142855,0.43820224719101125,0.6153846153846154,0.03333333333333333,51.491646778042956,51.55220391704059,51.429154113381216,49.43820224719101,0.5459811606160616,0.45401883938393844,13.358286575183177,12.181446566374545,0.43365124736218624,0.5663487526378138,30.193947930135142,34.505758303255334,0.44876472311513604,0.5512352768848638,23.34650200600115,25.87503619835258,1.1930336279179217,0.9243113516405517,1.2586686487769891,1.5395239877751785,-0.7431792876665835,-1.2389429793848272,-0.19614639212241436,0.0010503473405153961,0.0696166836640352,0.645735989066214,1.6094379124341005,5.842637222473632,1.0800110612124332,1.0731497400662868,1.075600691945974,1.2442197627344993,1.7515483888033099,1.7305664964077387,2.177948703003407,1.001199175415184,Relax
92.52283010627373,648.5934065934066,26.360735962571308,,,,,,,20.731082407288284,20.847032200304902,0.040642929290671086,0.031963140846857675,652.0,28.1694,0.04320460122699386,39.0,1.2715561804579893,626.0,672.0,1.098901098901099,30.76923076923077,580.0,709.0,7.0,109.375,,,0.031674348337805316,0.048257402725563205,0.0006390117759496216,0.08057076283931815,0.6563624759901674,0.39312459286221857,0.598944344387091,-3.031206038601452,14.741077836449907,34.4342685625193,0.42809324698405654,1594.666880149089,2.335939674463594,3.909640084362678,321.7454963852932,0.46153846153846156,0.47191011235955055,0.6666666666666666,0.030303030303030304,50.27027027027026,50.27161579856563,50.26821554496607,47.19101123595505,0.4316442605997931,0.5683557394002068,9.684923996035733,11.113308147330752,0.5264891492211045,0.47351085077889554,24.98535789833337,23.69495182792942,0.5117993505330702,0.48820064946692965,18.948164318962384,18.506166000895806,1.0355077539140087,0.7002766460243508,1.1126334373139273,1.385646076926184,-0.23797759872884683,-1.2435546096933665,-0.11013602101081155,0.00035279120454757834,0.04094737150768323,0.5951730893410967,1.6545583477145698,5.707860711413299,1.1848260874180925,1.1399857449959276,1.1170078114075683,1.5789022996445092,1.9082120620437368,1.7595351203544247,2.991740770770718,0.9296849485998138,Relax
92.10734383075392,651.4725274725274,30.41612900322629,,,,,,,22.349248060927888,22.4737438702493,0.04668827574545564,0.03430574140652517,653.0,32.6172,0.04994977029096477,42.5,1.3609464139601788,625.0,676.0,1.098901098901099,36.26373626373626,580.0,732.0,7.583333333333333,109.375,,,0.023015228436144466,0.027764988163472094,0.00045067269288889795,0.05123088929250546,0.8289298846676095,0.4492451478782226,0.5419579583119558,-3.583979470599765,15.891336689302886,40.20433452200215,0.3952642638720017,2007.1654824116931,2.5299529742558,4.0095532896917065,406.86030280765783,0.46153846153846156,0.47191011235955055,0.6904761904761905,0.030303030303030304,49.50678175092479,49.51398905061041,49.500363112587486,49.43820224719101,0.44549984428526934,0.5545001557147305,10.607131372574594,11.833821269678557,0.4771952895645593,0.5228047104354404,27.77288219032087,29.06983882307591,0.47291227006229536,0.5270877299377047,21.0219435484983,22.19340955151222,1.136922211851963,2.1129443990736947,1.3135304158799816,2.057402522244167,-2.0608972830315704,-2.6782900533954743,-0.14794525275236975,0.0028003291014292876,0.34424043379036184,0.6184604461480419,1.9021075263969205,5.812363733438869,1.2191103840628537,1.5086707270881714,1.1824228858930885,1.5224085910828355,1.991908934009849,1.7369112717920603,2.901145783852866,0.8581707217844434,Relax
91.78224160630418,653.7777777777778,30.552874697966033,,,,,,,21.60316248176371,21.722551745620596,0.04673281310021996,0.03304358639290846,657.5,30.3933,0.04622555133079848,38.5,1.4142778736102741,626.8,677.0,1.1111111111111112,34.44444444444444,580.0,732.0,7.5,109.375,,,0.043277512209259184,0.02701232123855678,0.0005889289928841604,0.07087876244070013,1.6021396986603962,0.6105850429522778,0.38110599435418074,-3.611462174901459,15.360163644003999,40.57124026033085,0.3785973400232142,1957.7805047470738,2.641328647313485,3.9987341095225606,428.6479166266004,0.4777777777777778,0.4886363636363636,0.6976744186046512,0.030303030303030304,51.0362694300518,51.04682774246096,51.0236152991556,47.72727272727273,0.4781394453004623,0.5218605546995377,10.622660170169668,11.097706560776011,0.4719669803589463,0.5280330196410534,27.872382423163103,29.481448986073257,0.47274098777708773,0.5272590122229124,21.091593242734895,22.27459231083176,1.183139574618996,1.2658284075064312,1.3106982672696734,1.7529610743065662,-0.9339018936074055,-1.753201794897385,-0.1506139343893293,0.0007402314224876026,0.11634006112111836,0.6524639040253408,2.1400661634962708,5.752638373963222,1.1698439369164262,1.6059346845634213,1.0179471324345264,1.3909078730197804,1.9512737958956523,1.7217899214026344,2.59238154836056,0.9377121139142864,Relax
91.18686943543787,658.1333333333333,27.43662769594402,,,,,,,21.279044922387584,21.39953246651654,0.04168855504853731,0.03233242239017563,661.0,24.462899999999998,0.0370089258698941,32.25,1.289373080230592,636.0,681.0,2.2222222222222223,31.11111111111111,580.0,732.0,6.428571428571429,109.375,,,0.017574089278726446,0.018746239367959182,0.0003634843582832263,0.036683813004968854,0.9374727876762228,0.4790693180217122,0.5110221057287581,-3.976762113724153,15.131754521295528,35.963913717609216,0.420748271172903,1709.6456554469016,2.3767180247998176,3.939876216944142,341.90432789994895,0.4888888888888889,0.5,0.7272727272727273,0.030303030303030304,49.83119513842,49.836217416861466,49.826386995114255,50.0,0.4546514801856126,0.5453485198143874,10.203052128028785,11.174494090643126,0.4629518526924116,0.5370481473075883,24.470050198999857,26.35563949415888,0.4617034415607807,0.5382965584392193,18.746808121235542,20.242147259219877,1.1717594591707914,1.411013122640067,1.3768711708541828,1.7883935045318824,-0.8814913480861772,-1.7066575669663524,-0.20834974737320414,0.0007878537487384692,0.14477789322262902,0.5107055726797554,1.8632184332102002,5.729306535406446,1.254395001231698,1.254940853553772,1.2269751422193358,1.8191616499876886,1.9302432876380564,1.7460284200669354,2.7931703428967984,0.8655804128439567,Relax
90.0489614454247,666.9101123595506,48.935867225620875,,,,,,,54.51313436394772,54.82205945344286,0.07337700586437972,0.08173985272329791,665.0,45.9606,0.06911368421052631,64.0,0.8976894797299461,631.2,703.0,7.865168539325842,55.0561797752809,425.0,788.0,11.125,328.125,,,0.01771643282715132,0.0186872157275886,0.00468973282679159,0.041093381381531506,0.9480509609034973,0.43112618702907646,0.454750013246346,-3.9799156398485476,38.765049998141514,57.305967199742945,0.6764574771598201,6978.949696859956,1.4782895211663682,4.550760177974639,338.8592432467344,0.5168539325842697,0.5340909090909091,0.8085106382978723,0.030303030303030304,49.01243599122166,48.73774653747886,49.262226716993254,45.45454545454545,0.5750952169723298,0.4249047830276703,29.39935099760639,25.270490718413548,0.4853807418388331,0.5146192581611668,39.924649985329,41.10956336726265,0.5135479947888965,0.48645200521110366,35.05923213314498,34.1217958304982,0.8988031107186568,2.263784901098723,1.2819006790668759,1.0247763954982791,-0.41204442127968477,0.9814715969424779,-0.6135815878283322,0.0006841037927487327,0.25665498166494854,0.7008469398892285,1.900958761193047,6.031803374738005,1.0989144200523917,1.0747135084978545,1.1550991836268023,1.560283947731831,1.6870777811551405,1.7786609450231665,2.251314247981618,1.0914157467920895,Stress
89.35677822179782,672.125,54.956578993898844,,,,,,,57.00473866166792,57.33352060418369,0.08176541416239366,0.08481270397867646,672.5,58.5627,0.08708208178438662,76.5,0.964070361239173,629.0,719.2,11.363636363636363,56.81818181818182,425.0,796.0,11.0,273.4375,,,0.021522294281170588,0.018755925068197683,0.007239455148346551,0.047517674497714824,1.1474930830078611,0.452932398495335,0.39471470913627466,-3.976245572847141,40.54092120851693,66.74377490752758,0.6074112719079152,8500.691424088276,1.6463309889836915,4.636424361494178,439.52937980805905,0.48863636363636365,0.5057471264367817,0.7727272727272727,0.03225806451612903,50.64713896457766,50.40858404333351,50.84637341220688,45.97701149425287,0.5723568320894203,0.4276431679105798,30.67183770019294,26.512283243634403,0.5111844271025057,0.488815572897494,47.719905323169584,46.66414174561062,0.527671850067392,0.47232814993260797,40.11203679669761,37.950252223438106,0.8780865789283798,2.7191890372442304,1.2786002961126375,1.3812942202041454,-1.1470306285531535,-0.1533457494009478,-0.46223362087558895,0.0013713214842287706,0.39588504561936255,0.7521396202548409,1.957744606702316,6.1639770731827515,1.067158143807664,1.5429572885603422,0.8122970339441045,1.2758736132633914,1.6476304711427272,1.753088968155887,2.2716843899393893,0.8808315843596315,Stress
89.81234158317002,668.6363636363636,52.80786727747092,,,,,,,56.13530452213743,56.448413761583026,0.07897845547956221,0.08395490819082417,669.0,52.632299999999994,0.07867309417040358,68.75,0.9407246959290243,627.8,715.2,9.090909090909092,51.13636363636363,425.0,796.0,12.571428571428571,210.9375,,,0.024464875492134615,0.016421808925743162,0.00487640557530922,0.045763089993187,1.4897795731737553,0.5345984175407918,0.3588439707237419,-4.109145015024272,39.915056158039384,63.00941024325986,0.633477698076203,7901.181388040507,1.5785875383409422,4.604662142005121,397.8634792328885,0.5113636363636364,0.5287356321839081,0.8478260869565217,0.030303030303030304,48.172043010752695,48.062318700467344,48.26169420314363,48.275862068965516,0.5651536373982315,0.43484636260176834,30.013369114136374,26.326880771614224,0.49221728630509337,0.5077827136949067,44.20626731999186,44.89979631175224,0.5131108558347081,0.48688914416529205,37.782247127109684,36.80418699006698,0.8899229901948634,1.5331518796226513,1.1747479424657103,0.8020231779660105,0.4633484160973742,1.5281487515464067,-0.7431101376540967,0.0005605840366202111,0.13645291522946046,0.7053920361283055,1.7227665977411035,6.070060453790817,1.0321254825825947,1.3356287689822328,1.222039732154344,1.276854500222863,1.7541993742140611,1.7091859077077123,1.9360905890574613,0.9542342163896008,Stress
90.10853023705997,666.25,52.31101727873042,,,,,,,56.14226592317508,56.46680322407048,0.07851559816694997,0.08426606517549731,669.0,52.632299999999994,0.07867309417040358,71.75,0.9317582113681102,626.4,706.0,9.090909090909092,53.40909090909091,425.0,796.0,9.777777777777779,257.8125,,,0.022934931226153144,0.01585254338312336,0.003882543449993022,0.04267001805926953,1.4467666589431765,0.5374952312955681,0.37151480369902473,-4.14442532571991,39.92805947166664,62.65371580987687,0.6372815874612866,7859.137901652316,1.5691650593321869,4.6023450192213735,393.2560867447496,0.5227272727272727,0.5402298850574713,0.851063829787234,0.030303030303030304,50.500715307582254,50.25126210294355,50.71581496733043,48.275862068965516,0.5771278535482459,0.422872146451754,30.333418519345415,25.965092846196946,0.5011862934614724,0.4988137065385277,44.355392380906764,44.25027990330247,0.5231207866966785,0.47687921330332167,37.996822974651245,36.278597809398875,0.8894637849690344,1.6113478043031062,1.2273021691013284,0.7930540941452504,0.5703133830969538,1.7027945020366455,-0.7694936957722088,0.000852610606670565,0.16891767539036925,0.6948885291448619,1.7346010553881062,5.9791513628817246,1.0399164933798395,1.4403927223950408,1.2397725529753012,1.5171553538629474,1.7773444362855508,1.6999738812219591,2.1769796317860615,0.8074289523296622,Stress
89.37671790179871,671.9204545454545,52.86791643612183,,,,,,,56.50806065987604,56.83550409319806,0.07868180835763705,0.08409933092169818,680.5,54.1149,0.07952226304188097,74.25,0.9355818589198387,628.4,712.8000000000001,10.227272727272728,52.27272727272727,425.0,796.0,8.8,257.8125,,,0.03369199117760065,0.018258439178032156,0.0018448158073769711,0.05379524616300978,1.8452832057045456,0.6263005298926886,0.3394061832658155,-4.003127885123055,40.18877035645613,63.18836480454303,0.636015356320262,7977.957306872588,1.5722890808574372,4.608861817864509,397.40150407767754,0.5227272727272727,0.5402298850574713,0.8723404255319149,0.030303030303030304,49.80489535296205,49.57689707820514,50.002692614307456,47.12643678160919,0.5685642807004914,0.4314357192995087,30.30369537677496,26.39756419347886,0.5073666833456237,0.4926333166543762,45.00886792090777,44.35054966006951,0.5249923103981033,0.4750076896018969,38.36738292488877,36.49522332099866,0.9862682439454145,2.858769677303808,1.3357001701129332,1.3853270538586868,-1.5558418621362726,-0.14346284509021956,-0.4826404749778379,0.0012764800364875738,0.379270179055101,0.6440738176142955,1.6613976513648114,6.055911448133582,1.0278513843711992,0.9018269501050312,1.1531199146246134,1.3606113649610752,1.8361495468495816,1.7330953472822799,2.401918573962676,0.9542342163896008,Stress
87.69548632872795,684.4186046511628,47.27826639508066,,,,,,,33.434747687715195,33.62050528100581,0.06907799711139885,0.048851313305190394,690.5,41.5128,0.0601199131064446,62.0,1.4140458554275837,633.0,721.0,11.627906976744185,51.162790697674424,573.0,796.0,10.75,187.5,,,0.028870075555415098,0.01863416828037091,0.001755529521699626,0.04925977335748564,1.5493085133199431,0.5860781239471117,0.37828367875629326,-3.98275837917087,23.773287271117344,62.584911507961586,0.37985652928650515,4674.215739743475,2.632572887132748,4.37667886346469,659.0373647178478,0.47674418604651164,0.49411764705882355,0.8333333333333334,0.0,51.75202156334232,51.790361727554426,51.70808247301322,45.88235294117647,0.46687013260366234,0.5331298673963375,16.249908424650393,17.364783738524192,0.5395588459301944,0.4604411540698056,45.971539853696655,42.46750136209292,0.5303870225242061,0.46961297747579367,34.47783346100465,32.44244431470199,1.3571655115161407,1.4429658863386434,1.3639155667214515,2.060360627600972,-1.447141025098615,-2.3678807277107436,-0.017351679985541518,0.0018909257432464409,0.18488686325198916,0.5696578651550102,1.7917594692280547,5.981326818580116,1.177950219642481,0.7945134575869863,1.0771176102571065,1.4889606159972388,2.136768980624728,1.6430765707284665,2.4136511460701504,0.8966881053072696,Stress
85.49232382297339,701.8809523809524,46.7349369488412,,,,,,,32.41894433517583,32.58775534480957,0.06658527602195903,0.046188665221933746,705.5,47.4432,0.06724762579730686,64.0,1.4415934234518537,667.2,744.4,10.714285714285714,51.19047619047619,573.0,796.0,10.5,117.1875,,,0.016040824357387795,0.023044501319195308,0.001989243594783035,0.041074569271366136,0.6960803419089967,0.39052933827282177,0.5610406080450384,-3.7703280924798914,23.043022787963007,61.70060802662423,0.37346508446107674,4466.6175274485595,2.6776264813162793,4.356948875769176,660.8447278616193,0.4642857142857143,0.48192771084337344,0.8,0.0,52.639019792648455,52.6753866536239,52.59608077961268,45.78313253012048,0.4752957630227439,0.5247042369772561,15.90003067952248,16.706030749841034,0.5113418843072244,0.4886581156927757,44.120977690540485,43.131245733064056,0.5069229846838357,0.4930770153161644,33.162265061202675,32.706236575770916,1.295175283088356,0.2440226932478009,1.3805994068125345,1.2585880601886341,1.1708482474483568,0.1805976136109393,-1.0,0.0003455919914483768,0.013838776201214285,0.5894480424221311,1.7749523509116738,6.049997333467289,1.1647524460105614,0.8699251107875248,0.9805036445179237,1.4466917353662627,2.0910932819765504,1.7194392320361702,2.362114372353494,0.9131882032541088,Stress
85.37474184818373,701.7261904761905,52.09753392181213,,,,,,,36.093586521040095,36.21672933859047,0.07424196877482771,0.05143542739447566,708.5,49.6671,0.07010176429075511,65.25,1.4434014167986,667.6,746.4,8.333333333333332,46.42857142857143,458.0,783.0,10.5,234.375,,,0.01327560613318521,0.01810630639712354,0.0010091485449471157,0.03239106107525587,0.7332034398409517,0.40985400578083225,0.5589908387087474,-4.011494981663834,25.6090949077151,64.01064459304071,0.40007556665816396,5149.870436448529,2.49952779759337,4.418766412897492,639.9855420087,0.44047619047619047,0.45783132530120485,0.7894736842105263,0.0,44.804575786463296,43.809700905668,45.62377205844217,48.19277108433735,0.26668393015685127,0.7333160698431488,13.260062906814694,21.988356120411748,0.42134818623213477,0.5786518137678652,41.55016617036505,48.69236400537177,0.3999103785193287,0.6000896214806714,30.840278671549253,37.77852642249081,1.1944692879530563,0.3882594724211921,1.4685664175043143,1.2744366812937182,1.5596643273586386,0.5596643273586386,-1.0,0.0005272379733367608,0.029264900476927126,0.6496778042734643,1.7391157357426332,6.008214297701493,1.0537002825141382,1.0760162733010425,1.0685490561884352,1.4033914433200116,1.9970497594625016,1.7243052178816627,2.0508906776777027,0.9892872201919511,Stress
85.9026444444666,698.635294117647,48.61653820578802,,,,,,,30.47188399632872,30.654055409089395,0.06958786453408294,0.04361629630351511,702.0,53.373599999999996,0.07603076923076922,72.0,1.5954556079186104,656.6,746.2,10.588235294117647,50.588235294117645,573.0,783.0,12.142857142857142,117.1875,,,0.011397062704015986,0.019633660608382966,0.001342881390495134,0.032373604702894083,0.5804858773584887,0.3520479973920584,0.6064712530028449,-3.9305098077742713,21.675690450635276,64.63777164503584,0.3353409299081238,4401.5859714381495,2.9820398013269016,4.350579298843297,771.0096308583053,0.47058823529411764,0.4880952380952381,0.8048780487804879,0.03333333333333333,50.45045045045045,50.49823967390557,50.40477135918583,46.42857142857143,0.47745426106132277,0.522545738938677,14.977895359415166,15.669208543686633,0.5287734515577203,0.4712265484422798,47.002525857584175,44.37120785197233,0.5235855401052255,0.47641445989477427,34.88247974550017,33.27407536377587,1.188793337957469,0.39002727729206477,1.3879730675027706,1.2788967450909698,-0.050337830668727435,-1.0503378306687274,-0.7796633178302577,0.00040529893487638286,0.025426688144539515,0.5978474722041511,2.341805806147327,6.038687700792678,1.1090382314059326,1.3902615260116675,1.147571026705314,1.6044817438085375,2.0514043435323708,1.729022454563837,2.331013133572315,0.7540459924867884,Stress
86.15063882444159,696.5058823529412,52.83546417426276,,,,,,,31.57794589055258,31.76756880842009,0.07585788650595975,0.0453376585763723,697.0,68.19959999999999,0.09784734576757531,92.0,1.673176094397893,637.6,747.2,11.76470588235294,49.411764705882355,573.0,783.0,12.142857142857142,156.25,,,0.00691928112213301,0.007345632286639903,0.0003984321321298211,0.014663345540902734,0.9419585479003172,0.47187601920939465,0.5009520007661006,-4.9136493891076105,22.463063326244097,71.72875134395667,0.31316679720978674,5061.883258069428,3.1931865348104314,4.41128223479017,916.1731318011523,0.47058823529411764,0.48192771084337344,0.725,0.037037037037037035,50.09319664492078,50.096439685057405,50.08875654594647,44.57831325301205,0.45950430983023327,0.5404956901697665,15.226997267456657,16.51450621915928,0.5437014101611912,0.4562985898388088,52.889991886003344,48.452683389691295,0.536181406227287,0.46381859377271295,38.91794372448673,36.19662583255736,1.3223131448655123,1.5364327612224131,1.5187164249530691,2.090529525476719,-1.58922308474952,-2.636738032839892,-0.1278307030704649,0.0033566982087501716,0.25282903819785696,0.6023898934460372,1.749199854809259,6.038687700792678,1.085356631015116,1.191854367329386,1.081335771660736,1.226460717875004,2.0649661505952555,1.6902546492133095,2.92840839164546,0.9048551909841461,Stress
87.25337803127093,691.8488372093024,77.68738521897505,,,,,,,99.55725517923608,100.0681882364159,0.11228953644316467,0.14390029992797027,692.0,79.31909999999999,0.1146229768786127,105.75,0.780328717169954,633.0,752.0,16.27906976744186,50.0,352.0,942.0,12.285714285714286,375.0,,,0.004555087162890547,0.0036770485489413356,0.00021991304827694252,0.008452048760108825,1.2387889641005716,0.5389329016166132,0.43504819403029465,-5.605644873339414,70.75889448302159,80.36743090070647,0.8804424091948868,17865.328127732533,1.1357926305644928,4.958981107144802,365.12294301769396,0.5,0.511904761904762,0.7441860465116279,0.07692307692307693,54.45440168687401,54.53135841226815,54.43135609123908,45.23809523809524,0.5008605443388053,0.49913945566119483,50.1171247227551,50.03094280637971,0.6081871906220293,0.3918128093779708,62.67563171868552,50.3059552960038,0.561278012502849,0.438721987497151,56.74487202299645,50.16863749564448,0.5137441941810553,4.294744853743214,1.3602166017519064,1.7137269362356187,-1.8024627268592894,-0.8901404185111048,-0.4176876982166706,0.009342431468840581,1.388599792675596,0.7284853318934768,1.117660483638804,6.045393969793219,0.8228420506234402,0.8909650136598065,0.9258532620875511,1.1393121366910217,1.4375662945833068,1.871250010136196,2.103257431916534,0.6725160789804521,Stress
87.82195132985706,685.0116279069767,75.1845563281444,,,,,,,104.26318508805437,104.86868806605086,0.10975661326781787,0.15220644561410732,682.0,69.6822,0.10217331378299119,91.25,0.7211035828672228,633.0,743.0,15.11627906976744,48.837209302325576,352.0,942.0,12.285714285714286,289.0625,,,0.014588708028586802,0.058415726406802294,0.040390704989890364,0.11339513942527946,0.24973939255659075,0.12865373333042973,0.5151519430450962,-2.8401701376116937,74.15336046564133,76.27049478894273,0.9722417649294137,17767.94796034612,1.0285507536004705,4.95660738352069,313.79229957059124,0.5581395348837209,0.5662650602409639,0.8085106382978723,0.08,48.23794051487128,48.78166941426429,47.80276785858822,49.39759036144578,0.4457310942740355,0.5542689057259644,49.51334596420877,55.21360037768472,0.5781737591433505,0.42182624085664955,57.99435895517071,49.53627665387206,0.5138077406795789,0.486192259320421,53.92085449616233,52.4518082214313,0.48133067250841954,3.2105120242334215,1.15558841171161,1.2307391133483556,-1.4751761459907584,-0.7164900636033653,-0.4765923002095937,0.0031993125594390027,0.641020190705907,0.8418123724042283,1.3375041969504589,6.022138155839731,0.8137339289676031,0.8609902589520505,1.0312388476723042,1.18687464223139,1.4477170284096197,1.8155526606109451,2.036570153449902,0.6725160789804521,Stress
89.32263599160312,674.2758620689655,74.0155058637028,,,,,,,111.5192652039454,112.16052169341489,0.10977036258808333,0.16539115735473134,670.0,50.4084,0.07523641791044776,65.5,0.66370152034578,629.4,716.2,21.839080459770116,55.172413793103445,352.0,942.0,12.428571428571429,289.0625,,,0.03374960407129897,0.0948926696816576,0.04374768047191491,0.17238995422487147,0.3556608132590313,0.1957747725095095,0.5504535928925203,-2.355008818903275,79.30946547083452,68.3141897600478,1.160951564373484,17021.0292206075,0.8613623778005394,4.937955927244801,235.3730917169281,0.5517241379310345,0.5595238095238095,0.7872340425531915,0.08333333333333333,48.480402431356104,48.849963907271004,48.19807032565655,51.19047619047619,0.47092169272296663,0.5290783072770331,54.43133829179009,57.69453027392988,0.5681887701506367,0.43181122984936327,51.494073044807735,44.89085612714269,0.5123451355700561,0.48765486442994405,52.983064025116974,51.690655767542914,0.39983720752102747,4.532411426295923,1.4270840394696083,2.0028210585833772,-1.77618606149335,-1.4437245878755234,-0.3729733545870337,0.016961739579311238,1.9122312050419987,0.8465366177077756,1.5804503755608479,5.997485018812367,0.9413959526718982,1.1476691043878662,1.1926841351493538,1.3120395324846523,1.4715817745914823,1.8580880553503036,2.235165172547242,0.8886818614963763,Stress
89.71040714530906,671.6818181818181,71.99801169900624,,,,,,,111.39146049524787,112.02324982074462,0.10719065151100612,0.16583962447692044,671.0,48.925799999999995,0.07291475409836065,65.25,0.6463512676726039,629.0,706.4000000000001,22.727272727272727,62.5,352.0,942.0,11.0,289.0625,,,0.025327549427672763,0.08861356611423353,0.04935438595081916,0.16329550149272545,0.285820225257863,0.15510255454772012,0.5426577297243006,-2.4234703166787526,79.21239959880322,63.80083263030115,1.2415574583141504,15877.034513875347,0.8054399684069802,4.9077394988256655,205.55096247235517,0.5909090909090909,0.6,0.7843137254901961,0.13636363636363635,51.5438950554995,51.865715018606586,51.240448753010185,44.70588235294118,0.4755252658404207,0.5244747341595792,54.63036467191159,57.37326782104289,0.6284184666352446,0.3715815333647556,50.57673802474058,38.89138484415875,0.5356756472283151,0.4643243527716847,52.64258339694817,49.01138477722077,0.4605000532515296,4.189918694841349,1.4221731108055575,1.8659530057367557,-1.387089540060881,-0.9943038540580922,-0.3940838886736437,0.014358849978502826,1.6275674260289426,0.8228931672515634,1.4534336639575192,5.95642409015445,0.9994840592244071,1.1572396344663567,1.2610647705174542,1.3979985324199113,1.451128512112284,1.8832488266830185,2.5332870997660195,0.9542342163896008,Stress
87.91522435489247,684.8023255813954,73.63707821909891,,,,,,,112.20417314248269,112.8624345460112,0.10753041493628285,0.16384899547065884,690.0,48.925799999999995,0.07090695652173912,65.25,0.656277535467337,641.0,726.0,20.930232558139537,63.95348837209303,352.0,942.0,10.75,343.75,,,0.009923066970207024,0.09592215094218338,0.05569112998267385,0.16153634789506427,0.10344917073625783,0.06142931358491002,0.5938115612499513,-2.3442183441796107,79.80579280870737,67.30909615921392,1.1856613349841094,16875.554343046755,0.8434111583923771,4.934228157786163,227.07697104794605,0.5348837209302325,0.5476190476190477,0.7391304347826086,0.08,51.14978247358608,51.50314690140508,50.82652134603146,42.857142857142854,0.47233562993689554,0.5276643700631043,54.851585469988265,57.97526155508875,0.6348231143176484,0.3651768856823518,53.629052548302006,40.67479746159493,0.5398703829792371,0.46012961702076294,54.24376326270129,50.07778999178538,0.4917080087751287,2.649623469026097,1.100833770121509,1.060781011358372,-1.1420649382104742,-0.577880705663831,-0.5151163964357015,0.002317567451194265,0.4308820735003174,0.7947526993205845,1.5002386204691085,5.949293242973564,0.9784027604500519,1.130261996940057,1.2422318116044369,1.4391678259240266,1.4784210654116685,1.885190082958843,2.5883346067690516,0.8966881053072696,Stress
88.1474592572718,683.3372093023256,71.75720672396791,,,,,,,111.90904920567257,112.57244166246346,0.1050099507931533,0.16376841138203144,687.5,45.2193,0.06577352727272727,60.75,0.6412100472061789,646.0,723.0,20.930232558139537,63.95348837209303,352.0,942.0,8.6,343.75,,,0.017919574659851032,0.09996957079157617,0.02710429222243354,0.14499343767386075,0.17925029104317217,0.12358886682967138,0.689476519733545,-2.3028894313845143,79.60073687425493,63.785486086523754,1.2479443484412442,15951.033614577007,0.8013177841215906,4.909758940211601,204.44977747988705,0.5348837209302325,0.5476190476190477,0.8043478260869565,0.07142857142857142,49.633661293698985,49.97909461874778,49.35360023467926,46.42857142857143,0.47120597383394586,0.528794026166054,54.6418533988109,57.884634855727924,0.5938641754449228,0.40613582455507735,49.154743388383736,40.64971633008358,0.5191683044767005,0.4808316955232996,51.97076553426454,50.015149655365505,0.35270105021311793,2.3875035251706187,1.0634908975313133,0.9354122567887023,0.06733258078687943,0.29364016791558545,-0.5536454247678892,0.004037294038227827,0.5161351979387206,0.8318317804806372,1.6331544390514166,5.990104580233179,0.9879122989710742,1.291300809115498,1.303179110000869,1.3165050298534098,1.5035280432986646,1.9633143758097722,2.509723052162122,0.8219640965316637,Stress
87.22988051144061,688.3720930232558,41.78208073877884,,,,,,,49.79463708425779,50.08666159236196,0.060696941613766556,0.07233680387240152,691.5,39.2889,0.05681691973969631,49.25,0.8390879657999945,657.0,719.0,12.790697674418606,60.46511627906976,542.0,833.0,7.818181818181818,195.3125,,,0.01954414937453939,0.0619218140541649,0.008154787297167235,0.08962075072587153,0.3156262404948848,0.21807616223077927,0.6909316598291945,-2.7818827533894175,35.416618058954946,47.55566250631533,0.7447402936348887,5291.261153460529,1.3427499606866353,4.4305293068950755,255.4214558431272,0.5,0.511904761904762,0.7906976744186046,0.03333333333333333,50.91307523739956,50.82113578915289,51.00191411855436,44.047619047619044,0.5726567912012831,0.427343208798717,26.80307373986726,23.15398762323982,0.5429225841892893,0.4570774158107107,35.040572251895654,32.1511948871927,0.5535316157651108,0.4464683842348892,31.194923189880445,28.01612460290849,0.7253622743241176,1.2782291740871632,0.9306785626667948,0.5440561797436437,0.4362626830422949,1.4685742249480225,-0.8024671872313149,0.0006126863097255414,0.0943308084205925,0.6416417221937589,1.8718021769015913,5.920337138372714,1.236157553575735,0.6412373393653842,1.240362557358226,1.4455660499237357,1.8707247146319321,1.866002154761726,2.5903855564771754,1.1208601316340867,Stress
86.6156769760024,693.4705882352941,42.78311533751596,,,,,,,50.42155623672611,50.723576759162846,0.061694203133240415,0.07270900466743098,697.0,38.547599999999996,0.05530502152080344,53.0,0.8485084263693063,661.8,723.4,12.941176470588237,62.35294117647059,542.0,833.0,7.083333333333333,164.0625,,,0.015338321137156588,0.03513643724624258,0.0017417944071469957,0.05221655279054616,0.43653603891774306,0.2937444223612862,0.6728984463448543,-3.3485165887780757,35.86698509244041,48.25667353276129,0.7432544033125374,5437.535764160792,1.345434343265507,4.442372236407538,259.70474345091463,0.4823529411764706,0.5,0.7380952380952381,0.034482758620689655,49.56803455723542,49.421726605941636,49.711913057585306,44.047619047619044,0.567855738073386,0.43214426192661404,27.028432151686363,23.578502563405717,0.550501713177894,0.4494982868221059,35.80442626275301,32.35350986280447,0.5566772250765774,0.4433227749234226,31.72138934995779,28.30808527236623,0.708512944591605,2.163425228893919,0.9872925777540986,1.0028679397963591,-0.8527674751088945,0.05903023608771596,-0.4928006007167515,0.0006025456161147291,0.21566019825139016,0.6278998101400277,1.7764919970972666,5.9592184360613425,1.2111329680711695,0.9306005365381449,1.2240255387116161,1.4400842005985002,1.82948366025013,1.8625043964165306,2.5575602223678344,1.2064735879788615,Stress
87.52539907486357,685.6162790697674,42.01293039183816,,,,,,,29.44006873393511,29.61353786108408,0.06127761500768417,0.04293957076672523,689.5,41.5128,0.06020710659898477,55.5,1.427066314672374,650.0,722.0,4.651162790697675,61.627906976744185,577.0,764.0,8.6,132.8125,,,0.014776640574440348,0.018947829440386383,0.001058029714276886,0.03478249972910361,0.7798592773346721,0.42482974741680996,0.5447518030031676,-3.966065895418482,20.939933436497117,55.94370294465378,0.3743036719827683,3680.242011634611,2.6716275442952018,4.272846488652042,597.8429508672225,0.47674418604651164,0.49411764705882355,0.7142857142857143,0.03333333333333333,49.46286781877628,49.47236183191888,49.454673871031325,44.70588235294118,0.4509915706315918,0.5490084293684082,14.062996022997984,15.5161206491829,0.5514479093286292,0.4485520906713707,41.54353575854852,37.46775327982536,0.5391022717914279,0.46089772820857217,31.013168335923506,28.675621491415527,1.0028891509997366,0.3102945857440643,1.1078973973723905,1.1317597870141503,0.1482493950654833,-0.8517506049345167,-0.423097628066763,7.331115180491094e-05,0.007945907565867213,0.5877371289514266,1.6582280766035324,6.0045826325336025,1.1917367624953683,0.0,1.2382160245174376,1.5517408357822944,1.9596215182949777,1.7604942841117805,2.759573764815406,0.8966881053072696,Stress
87.34069495677478,687.0581395348837,42.33072994497518,,,,,,,28.396561515126315,28.56241874747099,0.061611568962172146,0.04133065294059375,691.5,43.7367,0.06324902386117137,55.75,1.4906991440645516,650.0,722.0,4.651162790697675,59.30232558139535,577.0,775.0,8.6,148.4375,,,0.02888160093256724,0.03256092769921486,0.0016237625476597357,0.06306629117944183,0.887001783222032,0.45795622974547107,0.5162968535214733,-3.424642246263058,20.19667998342651,56.593954007933576,0.3568699225467663,3590.871750163059,2.802141443760798,4.262170004313394,634.3370559676929,0.4418604651162791,0.45882352941176474,0.6923076923076923,0.0,49.190779794016684,49.217012488414504,49.166292334734855,45.88235294117647,0.45971024642184966,0.5402897535781503,13.695019949915057,14.84683708500135,0.5367260594036329,0.4632739405963669,41.46163064551534,38.520239024011296,0.5280242277645716,0.4719757722354284,30.87572175037944,29.191072144540477,1.1630264762916687,0.5906890137911402,1.2107162186921285,1.452417923009392,-0.353927884161223,-1.353927884161223,-0.09081395002425768,0.00023135215265533658,0.026912458307891414,0.5876981004604103,1.9616585060234526,5.9405154813205,1.1727942747556572,1.136192496319926,1.182626121780072,1.7567743831734024,1.9190889199279109,1.704344276574303,2.4598810724592877,0.8219640965316637,Stress
87.57516734166306,685.2558139534884,41.42297914315666,,,,,,,29.66419906018622,29.839965305136744,0.06044892768464455,0.04328923367908801,689.0,40.0302,0.058098984034833094,48.75,1.3963963449379786,650.0,719.0,5.813953488372093,61.627906976744185,577.0,775.0,9.555555555555555,156.25,,,0.010617630614220162,0.017778663278854013,0.0006460581827062812,0.029042352075780455,0.5972119752584998,0.36559127809329933,0.6121633410566746,-4.02975623288944,21.100041817633496,54.92510561565409,0.384160241134244,3640.8609208545954,2.603080415212859,4.268174199371145,571.8978669264279,0.46511627906976744,0.47619047619047616,0.675,0.03333333333333333,50.260047281323885,50.256465384918606,50.26219013388823,45.23809523809524,0.4654865836865116,0.5345134163134885,14.395973312667943,15.42647693014158,0.5429152768743166,0.4570847231256835,40.47034734534359,37.13378801897265,0.5329577534675654,0.46704224653243465,30.373451087025053,28.433205966916457,1.0368876826866062,0.3866958033428638,1.1263680031216952,1.2201952037758224,0.23706311168141703,-0.762936888318583,-0.2573617302204459,0.00018347775124997012,0.014974830256403806,0.6569421202919954,2.164963715117998,5.917259667367012,1.221025609928947,1.1061004180802612,1.2312717949812666,1.6410174523303485,1.9346604783200796,1.7589706889842267,2.780087801994135,0.8966881053072696,Stress
87.79763329007393,683.453488372093,43.52163950651626,,,,,,,29.381466747514395,29.555497813103944,0.06367900705310578,0.04298970924487874,689.0,40.0302,0.058098984034833094,51.25,1.4812616361365993,643.0,719.0,4.651162790697675,60.46511627906976,577.0,775.0,7.818181818181818,132.8125,,,0.01718687532224627,0.016670849254983647,0.0012042555233661364,0.03506198010059605,1.0309537960166222,0.49018553067840265,0.47546799145836727,-4.094093638407096,20.898892924989976,58.193898579943685,0.359125156330267,3820.7674599454567,2.7845445588344053,4.28912071636632,648.1740145925736,0.47674418604651164,0.4880952380952381,0.6829268292682927,0.07692307692307693,49.713740458015266,49.72393304031604,49.703867077137716,45.23809523809524,0.4625091989424623,0.5374908010575377,14.21308920544386,15.321941938341391,0.5490409907661687,0.45095900923383125,43.12010777101046,39.079228980997264,0.5391556078868318,0.4608443921131682,32.10417106035804,29.68120653301615,1.2207893297628476,1.1515798798515173,1.29562104167778,1.7965792696886063,-0.2773210230330081,-1.3106824880370167,-0.06498178131123748,0.004293198914430947,0.20233306388939865,0.6657015644079429,1.8870696490323797,5.8940038534135235,1.171576604885929,1.1783293606781813,1.301435643885228,1.6534231746026236,1.8873836112061315,1.6699056686596194,2.6481124696425504,0.9714121140828752,Stress
87.65189831198474,684.3488372093024,43.29427823678061,,,,,,,29.07637002993405,29.245828546904907,0.06326346430766189,0.042487644383972685,690.0,40.0302,0.05801478260869565,51.75,1.4889849796315449,643.0,721.0,4.651162790697675,56.97674418604651,577.0,775.0,7.818181818181818,132.8125,,,0.022476647975574415,0.01716746685525814,0.0006041958298298286,0.04024831066066239,1.3092582711869427,0.5584494754345674,0.4265388179891277,-4.064739148139246,20.67992368693557,57.4739461129364,0.35981388238593337,3733.9613728374898,2.7792146133133584,4.279139930899355,638.9297236874294,0.47674418604651164,0.4880952380952381,0.6829268292682927,0.07692307692307693,49.12023460410557,49.180113557002436,49.05940779322563,45.23809523809524,0.44756616848960523,0.5524338315103949,13.836416753315454,15.372168728860979,0.5358858591973295,0.4641141408026703,42.07335696284431,39.154656372771264,0.5257602354183744,0.47423976458162576,31.31783672840725,29.743828663256927,1.184472314098625,1.3305199953641857,1.2308625447057697,1.849732311780718,-0.4747914386890537,-1.4969125314023786,-0.034866240844766,0.004825513064548489,0.2538981126216447,0.6978420478332925,1.845826690498331,5.7312131557391055,1.1674155806976414,0.8374760218186512,1.3285398683526755,1.554532430224204,1.7824069005167091,1.6684082174579107,2.2525220398200134,0.7472400877560579,Stress
87.57754835142654,686.2093023255813,54.73747319042257,,,,,,,71.50483323853422,71.92442734773577,0.07976789735276954,0.10420265798817134,691.0,37.065,0.053639652677279305,46.75,0.7655073190342656,655.0,721.0,11.627906976744185,60.46511627906976,445.0,918.0,7.818181818181818,265.625,,,0.04008933554835607,0.031055008333994046,0.005053933646234856,0.07619827752858498,1.2909136947315738,0.5261186584344637,0.4075552537568069,-3.4719951846085157,50.85825031054313,58.680875061975826,0.8666920910233389,9375.789951495542,1.1538123058435426,4.678977979121274,270.82686305670063,0.5116279069767442,0.5238095238095238,0.7045454545454546,0.125,51.117496807151994,51.554808620364724,50.670568625056134,41.66666666666667,0.3730211688909341,0.6269788311090658,31.063970095518023,40.27324824011001,0.6275079938082718,0.37249200619172834,46.48429116658138,35.81418396082339,0.5183380128767175,0.48166198712328234,39.53327436068731,38.108990386713366,0.6582627448572383,1.8600262707459447,1.043859024857095,0.6124502944071384,0.44311507349773027,1.5724127873387863,-0.7319369017712554,0.0015273944971279853,0.23348383995798455,0.7679309014437532,1.6945957207744073,5.911559376719651,1.0678237066530156,1.3012540148991016,1.221158309804393,1.409465054160182,1.545474761308307,1.8324484901324034,2.190641528626014,0.8966881053072696,Stress
86.43466905962875,695.0,50.76791262580088,,,,,,,71.80106445689268,72.23079582663277,0.07304735629611638,0.10331088411063694,697.0,29.651999999999997,0.04254232424677187,39.0,0.7070635095706763,669.4,722.2,12.941176470588237,57.647058823529406,445.0,918.0,7.7272727272727275,265.625,,,0.028125015265838847,0.03908419895819203,0.0021499456842689895,0.06935915990829987,0.7196006574402072,0.40549821109458484,0.5635045033686318,-3.2420370123851074,51.074885539513005,50.69447353666935,1.0075040132839823,8134.2570424478035,0.9925518775260033,4.617288001948837,201.26757955605382,0.5647058823529412,0.5783132530120482,0.7708333333333334,0.19047619047619047,49.3691362018764,49.82181015657834,48.93595911561855,39.75903614457831,0.3623621127206139,0.6376378872793861,30.74594693633696,40.78528851235632,0.7068030778387732,0.2931969221612269,42.61964552224536,27.449871816061723,0.533291498860856,0.46670850113914397,37.16010923997598,34.76302073866973,0.6575504805178636,2.679218022507509,1.0742189384733976,1.0458373251153994,-0.3820923716211633,0.7607817180727499,-0.5105932451631673,0.003839769689853204,0.46271636269004657,0.764016583118508,1.6094379124341003,5.741686377288721,1.0918442819128567,1.3234427366431383,1.3187251837306189,1.4269537232686869,1.5123854293397565,1.8480635220360513,2.0983274378172223,1.0556643894815037,Stress
86.86346446706084,690.9418604651163,64.51308205703668,,,,,,,83.91655519201272,84.33737437866344,0.09336976922140582,0.12145241154664334,697.5,33.3585,0.047825806451612905,44.25,0.7687765770344338,666.0,726.0,18.6046511627907,60.46511627906976,418.0,918.0,7.818181818181818,312.5,,,0.03700814080448154,0.04975716415822088,0.029339132631720447,0.11610443759442286,0.7437751212428583,0.318748719439637,0.4285552317305311,-3.000600822564679,59.6355293306215,62.903801437545226,0.9480433291433322,11785.061220091464,1.054804109959422,4.778301952866159,265.40475315357645,0.5348837209302325,0.5529411764705883,0.7446808510638298,0.14285714285714285,46.042045159615895,45.71552379195797,46.25509721581993,40.0,0.33686007795258366,0.6631399220474165,34.64393714565914,48.60769829289732,0.6061355296380295,0.3938644703619706,48.973569874152396,39.477559310013454,0.4785517473671209,0.5214482526328791,42.41823267871298,44.27858411472166,0.6517560455026297,2.488861639934801,1.0125903076692622,1.1296650966712387,-0.7183523714641327,-0.007081545452472415,-0.4529605072763132,0.0029625790759623192,0.37969442106387225,0.7794098649365555,1.4939250253122562,5.949293242973564,0.9605768673751158,1.2526738123140673,1.2444199550305755,1.374501517269863,1.5499614749400514,1.8586969557717943,2.330441943943962,1.1208601316340867,Stress
87.68533986364744,686.4767441860465,77.20388998797253,,,,,,,109.92783729231057,110.58009125802462,0.11246395546802239,0.16013337410672474,693.5,38.547599999999996,0.05558413842826243,50.75,0.7023142808011281,664.0,726.0,24.418604651162788,59.30232558139535,416.0,918.0,8.6,304.6875,,,0.028757144965568554,0.06828105959534429,0.02487976155646939,0.12191796611738223,0.421158446222023,0.23587290603159558,0.5600574039235817,-2.6841228627910647,78.19193239277647,77.11964857335926,1.0139041585283834,18944.225765960076,0.9862865159281283,4.984446970697523,304.2482780040806,0.5348837209302325,0.5529411764705883,0.7446808510638298,0.14285714285714285,50.15315499285277,50.673804284598965,49.67011196050529,38.82352941176471,0.39765331484854716,0.6023466851514528,49.30770730829005,60.68561648050588,0.7458965933565471,0.254103406643453,66.60461982060025,38.87498957725565,0.5693705443890443,0.4306294556109554,58.59788981459442,50.960812700793845,0.5281608773930295,1.8697974076361457,0.9238221961574676,0.9106994770563127,-0.6328584119459855,-0.4636511134311172,-0.5070182571906253,0.0013007998095226623,0.20107805415056743,0.7506111213994484,1.2039728043259361,6.013360394186667,0.8678953319384733,0.9298226064340697,1.144083023348265,1.154495504043264,1.4996588703049656,1.8491342712757153,2.933183225981218,1.0461361228584811,Stress
86.73412752116998,694.5595238095239,93.41671778229149,,,,,,,125.50869983765969,126.27144496557328,0.13449778540206167,0.1807025827668,694.5,39.2889,0.056571490280777535,53.5,0.7443047207334802,664.6,737.6,30.952380952380953,63.095238095238095,416.0,1110.0,9.333333333333334,304.6875,,,0.018554006369012898,0.07238909521575589,0.019978417113779633,0.11092151869854842,0.2563094111580292,0.16727147794863095,0.6526154353555854,-2.6256996095014893,89.2873950053808,98.37583034706086,0.9076151600487956,27594.8753225612,1.1017885597528336,5.147798546165356,433.5574577303091,0.5238095238095238,0.5421686746987951,0.7111111111111111,0.08333333333333333,49.825418994413404,50.3842074916309,49.29023484072877,39.75903614457831,0.37699586676987,0.6230041332301299,54.8225518844385,70.4752161937867,0.7362735657279066,0.26372643427209336,84.4127434508527,50.52022109585649,0.5739933120979596,0.4260066879020403,71.17240846009578,61.31496080539886,0.7390727874278795,1.2212940847167528,0.9810102910808673,1.0295988533758074,-0.13852629855113197,-0.49603176777446234,-0.46021551000453015,0.0008721888360726243,0.08947254424124541,0.6917014444380207,1.1032312345244042,6.088629625108201,0.8389532957365355,1.1081535442197172,1.1190986924440056,1.1335310573695159,1.3716858209390312,1.8433158658042883,2.41839923890298,1.0653862371297935,Stress
87.08307337101523,691.8823529411765,94.01727447208658,,,,,,,125.02837773119845,125.7769702374457,0.1358862154417167,0.1807075685623511,694.0,44.477999999999994,0.0640893371757925,59.0,0.751967482727934,643.0,736.8,31.76470588235294,65.88235294117646,416.0,1110.0,9.444444444444445,289.0625,,,0.05555477785419877,0.09381650291723097,0.01420226356633772,0.16357354433776747,0.592164236852994,0.339631803413651,0.5735432541799468,-2.3664145011611946,88.93774857199642,99.67359236198466,0.8922899883953328,27849.417443602088,1.1207118907591573,5.1517862249589665,446.82152061902934,0.5411764705882353,0.5595238095238095,0.7446808510638298,0.13636363636363635,49.44827586206896,49.981239987965495,48.94854573319888,41.66666666666667,0.37680413313268785,0.6231958668673119,54.59489362237602,70.21121319156453,0.7363514741324219,0.26364852586757836,85.53083095912952,51.1791165396971,0.5769740145407667,0.4230259854592334,71.7500015825705,61.436619485512146,0.7827370124683254,2.032170556092177,1.1976945828021601,1.4743460629689455,-1.099639600848958,-1.4632600271114313,-0.3638640446111075,0.0011674048711415657,0.2635735628350714,0.7334350767520634,1.1921383466789328,5.997396230153536,0.8456930993241093,0.9530208776627469,1.2750010926522088,1.3815247176172842,1.4801023246800755,1.844051076380679,2.4671998870255516,0.980259790232825,Stress
86.92645444047976,692.2674418604652,87.72194365200086,,,,,,,106.01642492058095,106.64484895916824,0.12671684142222345,0.15314373970219133,698.0,49.6671,0.07115630372492836,66.0,0.8274372930205405,642.0,734.0,25.581395348837212,62.7906976744186,416.0,1110.0,8.6,281.25,,,0.042587144924066,0.08650268767992789,0.008437572031366296,0.13752740463536017,0.49232163839399334,0.30966297253250324,0.6289850950745483,-2.4475797940827575,75.40929587764299,99.32389931325649,0.7592260915956439,23530.357164935554,1.3171307085855393,5.078598629300303,523.2902315277931,0.47674418604651164,0.49411764705882355,0.6666666666666666,0.037037037037037035,50.354906054279745,50.747468843480256,49.95809379687851,42.35294117647059,0.38884353057917675,0.6111564694208236,47.02355033081068,58.952765596098814,0.7116643095763808,0.28833569042361934,83.78983864688634,53.33385336086891,0.5936228575551048,0.4063771424448956,67.9409719763617,56.21355924395483,0.7822890259124754,2.0523212207592265,1.2431306671516742,1.2915855297907683,-0.6544542931366486,-0.61295869919928,-0.4763902150652766,0.0013728399137145867,0.26729584941104306,0.6565613604312412,1.0203600917683613,5.934815190673139,0.8325288428468076,0.9413686331821286,1.189832534223867,1.256819390630588,1.424977100584601,1.7418332035361668,2.2386497260875995,1.0461361228584811,Stress
86.43078688044594,695.6904761904761,89.20208223169068,,,,,,,106.9218270907944,107.57123943931634,0.1282209334245186,0.15369166425316969,701.0,51.891,0.07402425106990014,74.5,0.834273830318512,642.0,737.6,25.0,58.333333333333336,416.0,1110.0,10.5,367.1875,,,0.0375836127262872,0.07588786580438413,0.00949674491780253,0.12296822344847386,0.49525193952833435,0.3056367870682907,0.6171339527905163,-2.578498478186234,76.06435286818235,100.94471040001635,0.7535249005793377,24122.072248833352,1.3270961573149913,5.089384723860078,535.8533490925454,0.4642857142857143,0.48192771084337344,0.625,0.038461538461538464,49.68810496881051,50.137116004026815,49.25883791498421,42.168674698795186,0.387235885713563,0.612764114286437,47.33379136386656,59.54292364418765,0.7076539576878458,0.2923460423121542,84.91688143691648,54.57982965136328,0.5916094528931053,0.40839054710689465,68.7435980941112,57.11531126094559,0.7817175784598633,1.6725017167134932,1.271022898819883,1.1107047546619975,-0.033138846378001574,-0.013140525223409583,-0.5958552942312756,0.0021954143490805814,0.2215052136052597,0.7014865197933284,1.0546491652469936,5.880179922675737,0.8141480823747906,0.9039011495039571,0.9829486868597354,1.4316480798894433,1.4052195487435089,1.7394411741252833,2.354120411756258,0.9131882032541088,Stress
85.40370801379595,703.1190476190476,76.11348609377384,,,,,,,85.73930787954059,86.2304179732291,0.10825120774570796,0.12194138129222529,701.5,45.9606,0.0655176051318603,61.0,0.887731519838129,658.0,735.4,15.476190476190476,52.38095238095239,433.0,1110.0,9.333333333333334,335.9375,,,0.05765318329821067,0.07532286137177789,0.0046704238598171645,0.13764646852980572,0.765414141845284,0.4188497090699174,0.5472197156694043,-2.5859715863797472,60.97411329342063,86.53549904385669,0.7046138748505812,16576.37903070414,1.419217014726055,4.9264597785928865,491.25061048340666,0.44047619047619047,0.45783132530120485,0.5526315789473685,0.03571428571428571,47.26902963393375,48.27924700992944,46.31359707750514,40.963855421686745,0.2506867141302495,0.7493132858697505,30.539558512629835,52.79937869183597,0.7160612968295899,0.28393870317041037,73.22668989227641,46.1112186153186,0.5615940144881881,0.43840598551181187,56.101750180925535,49.56823010978709,0.8941448815672314,1.5064997688344608,1.2494349590631846,1.0521836963763667,-0.05257816192913367,0.1829296066732855,-0.6309334835407416,0.0013885730753107443,0.14739510629140004,0.7405543879465855,1.1157067220274095,5.889166678653873,0.8349643878479697,1.009851928593072,0.9991016091146493,1.2802506511056164,1.4033507559897018,1.767235818327493,1.812227635922733,1.0653862371297935,Stress
86.52648723788212,692.7294117647059,63.77030736040352,,,,,,,56.5534934292093,56.615211105444594,0.09205658988543697,0.08163864918791465,697.0,54.856199999999994,0.07870329985652796,70.0,1.1276104002350953,641.8,727.4,9.411764705882353,51.76470588235295,597.0,1110.0,10.625,101.5625,,,0.019296773012558582,0.019532359696174985,0.0005586774887436288,0.0393878101974772,0.9879386470820247,0.48991738600879486,0.49589859396209945,-3.935682717215296,40.0329996909678,66.88265374349918,0.5985557906314222,8411.655976963984,1.6706880388628276,4.631851612401966,446.9601984666728,0.4470588235294118,0.4642857142857143,0.6153846153846154,0.034482758620689655,40.51758997169429,42.318692020241706,38.22152935126249,42.857142857142854,0.12056265051720223,0.8794373494827976,13.968553322649802,37.72658453561482,0.494128416793111,0.5058715832068887,47.01467212617298,47.57005335966377,0.394881213628385,0.6051187863716148,34.68068538148618,42.931370566079934,1.0982171171842434,0.5461138148779647,1.1441984434418375,1.3681078993718294,-0.30912687989881427,-1.3091268798988143,-0.08999488782383763,0.00015974664420911774,0.02158735403769534,0.7307631486398587,1.3256697393034558,5.96809946549856,0.896320450980221,1.0100601723092613,1.1783745776214858,1.4039768575721803,1.6084162643525204,1.7386928274718954,1.5503721135375677,0.8294505917354672,Stress
87.0621177481879,688.9302325581396,41.59603790455343,,,,,,,27.570444533316937,27.70294102034061,0.06037772177612062,0.04001921127911924,694.5,50.4084,0.07258228941684665,59.75,1.5087184341292557,647.0,725.0,5.813953488372093,45.348837209302324,610.0,779.0,9.555555555555555,132.8125,,,0.008600154745664567,0.01588178431772482,0.00025500905018854966,0.024736948113577937,0.5415106120076437,0.34766434024834303,0.6420268274325813,-4.142582466898219,19.58893745429382,55.16995259620754,0.3550653305371952,3395.184371180546,2.816383110361838,4.237833473029624,621.5188907656886,0.4418604651162791,0.45882352941176474,0.6153846153846154,0.034482758620689655,47.052575677110994,47.04805814447682,47.06030055533676,41.17647058823529,0.3950720465555402,0.60492795344446,12.326413760314724,15.252829557947912,0.6719870663838523,0.3280129336161476,45.22546781989936,31.59716332108049,0.6409226475074047,0.35907735249259515,33.14576455385536,24.80957012387401,1.0453762186740603,0.769910655178097,1.0835954433127362,1.3964998356462064,-0.6325045411406691,-1.503543601038274,-0.09358350189206217,0.00014598957020693626,0.034288189253005585,0.5418481228009115,1.4271163556401456,5.77202449299872,1.0975571835445297,1.085785448478755,1.0503696737436805,1.5733059812000603,1.8682589029261996,1.734913375743547,2.468318501930484,0.6725160789804521,Stress
87.11861344942243,689.0941176470589,39.940617686466375,,,,,,,25.78574726287299,25.932555181555216,0.05796104866320048,0.037419775619213703,691.0,45.9606,0.06651316931982634,58.0,1.5489416412598578,650.8,725.0,3.5294117647058822,44.70588235294118,610.0,779.0,10.625,46.875,,,0.010619845154194478,0.011369507900604632,0.0003177829695621683,0.02230713602436128,0.9340637472647091,0.47607389593162963,0.5096803053600502,-4.476820252666028,18.337085622372033,52.997645516500064,0.3459981182874066,3053.0699981434354,2.890189128627979,4.191706871502164,612.6928756586714,0.4117647058823529,0.42857142857142855,0.5833333333333334,0.0,51.50501672240802,51.63797696748899,51.37935888753674,39.285714285714285,0.4595359163503545,0.5404640836496456,12.434406211449154,13.484931349249647,0.7039196938717983,0.29608030612820174,44.46498333580985,28.837747610358733,0.6777768031769691,0.32222319682303074,32.647734997126314,22.510653708108155,0.9640342365849703,0.7676209476801215,1.0551022569413973,1.113065733890019,0.17120861932267495,-0.1617396834782041,-0.4244894539110781,3.440896734608245e-05,0.02467337344762896,0.5197454545543336,1.6625477377480486,5.888630200767225,1.1104356449746031,1.016549878685196,0.9222914581093232,1.1729710242387024,1.9905469479723124,1.815431817510818,2.1420304980733436,0.6032367939894308,Stress
89.42703370081972,671.0795454545455,47.503471522485235,,,,,,,23.744811895528315,23.882285048978293,0.07078664793800186,0.03538300646526952,675.5,51.149699999999996,0.07572124352331605,65.75,2.000583189771708,631.8,714.6,3.4090909090909087,38.63636363636363,564.0,765.0,12.571428571428571,101.5625,,,0.017509102329036966,0.01577272469568096,0.0002566434311608281,0.03353847045587875,1.1100873607355537,0.5220602517360151,0.4702875379016056,-4.149473115779829,16.88732570836265,65.3014210776516,0.25860579187521043,3464.4427170587724,3.8668894178617137,4.246603494834292,1010.0534965460113,0.42045454545454547,0.4302325581395349,0.5675675675675675,0.0,49.75816203143895,49.77277821122136,49.744952567211044,39.53488372093023,0.40897414988175823,0.5910258501182418,10.799709298413202,12.98277033538664,0.6457926968788322,0.35420730312116777,52.47702389212956,38.86434816365279,0.6309475678319072,0.3690524321680929,37.884507107163,28.97403910198764,1.2412866664306081,1.0144170585359,1.234933672109574,1.7149650223194997,-0.162264949045289,-1.095204602287172,-0.0267909326142928,0.0009234125541200447,0.0971028277658627,0.6699996190967092,1.3268709406490895,5.970573095811685,0.9540025441280703,1.3100559388719835,1.1734658366979258,1.3631650792737084,1.8238207345742297,1.6706043837995785,2.261291239530472,0.8074289523296622,Stress
91.62684756771417,655.9777777777778,56.50374906081534,,,,,,,76.1274803105092,76.5577202183133,0.08613668172149092,0.11605191957630387,659.5,43.7367,0.06631796815769522,58.5,0.7422253939096306,624.8,698.4,10.0,43.333333333333336,415.0,833.0,10.0,250.0,,,0.03014085323302331,0.024535702635014353,0.005901190284190755,0.06057774615222842,1.2284487500272347,0.4975565310284253,0.4050283180453352,-3.707625971781681,54.134483118551785,59.217032349881094,0.9141708216430148,10070.951538792062,1.093887462085835,4.71004061611854,259.1070769178649,0.4666666666666667,0.47126436781609193,0.6829268292682927,0.10714285714285714,49.44029850746269,49.70989712730568,49.19180917058145,40.229885057471265,0.4404893464394425,0.5595106535605577,35.92922335521728,40.49340574823152,0.6463922796334545,0.35360772036654536,47.609620462911806,35.213363368249176,0.5526532930456087,0.4473467069543913,42.17573384976011,37.94533481730832,0.548660725075535,2.8543587224934592,1.2090301976223279,1.1496098218964117,-0.9607368711762376,-0.21895199096897533,-0.5208174169762407,0.00244095562000029,0.5250163391377065,0.6817569071634102,1.084326331420633,6.000023512924227,0.86127632449855,1.1418787141113664,1.188526189837132,1.3706968073625443,1.5538111625297766,1.8199047588921298,2.1808662763008844,1.009843814984616,Stress
