PPG_Rate_Mean,HRV_MeanNN,HRV_SDNN,HRV_SDANN1,HRV_SDNNI1,HRV_SDANN2,HRV_SDNNI2,HRV_SDANN5,HRV_SDNNI5,HRV_RMSSD,HRV_SDSD,HRV_CVNN,HRV_CVSD,HRV_MedianNN,HRV_MadNN,HRV_MCVNN,HRV_IQRNN,HRV_SDRMSSD,HRV_Prc20NN,HRV_Prc80NN,HRV_pNN50,HRV_pNN20,HRV_MinNN,HRV_MaxNN,HRV_HTI,HRV_TINN,HRV_ULF,HRV_VLF,HRV_LF,HRV_HF,HRV_VHF,HRV_TP,HRV_LFHF,HRV_LFn,HRV_HFn,HRV_LnHF,HRV_SD1,HRV_SD2,HRV_SD1SD2,HRV_S,HRV_CSI,HRV_CVI,HRV_CSI_Modified,HRV_PIP,HRV_IALS,HRV_PSS,HRV_PAS,HRV_GI,HRV_SI,HRV_AI,HRV_PI,HRV_C1d,HRV_C1a,HRV_SD1d,HRV_SD1a,HRV_C2d,HRV_C2a,HRV_SD2d,HRV_SD2a,HRV_Cd,HRV_Ca,HRV_SDNNd,HRV_SDNNa,HRV_DFA_alpha1,HRV_MFDFA_alpha1_Width,HRV_MFDFA_alpha1_Peak,HRV_MFDFA_alpha1_Mean,HRV_MFDFA_alpha1_Max,HRV_MFDFA_alpha1_Delta,HRV_MFDFA_alpha1_Asymmetry,HRV_MFDFA_alpha1_Fluctuation,HRV_MFDFA_alpha1_Increment,HRV_ApEn,HRV_SampEn,HRV_ShanEn,HRV_FuzzyEn,HRV_MSEn,HRV_CMSEn,HRV_RCMSEn,HRV_CD,HRV_HFD,HRV_KFD,HRV_LZC,Labels
76.10444555449489,788.4133333333333,61.612146339634826,,,,,,,52.64298418387567,52.99778379333246,0.07814701215052362,0.0667707938947536,780.0,65.2344,0.08363384615384614,91.0,1.1703771603150563,734.0,843.2,42.66666666666667,70.66666666666667,653.0,940.0,15.0,93.75,,,0.05317840607968924,0.02481857113558317,0.004389419502258711,0.08238639671753112,2.1426860470402214,0.6454755663367097,0.30124598385672563,-3.6961630699368446,37.47509230812389,78.81981957473265,0.47545265277589294,9279.573593159708,2.10325885061652,4.674498130319395,663.1139324982147,0.4666666666666667,0.4864864864864865,0.6944444444444444,0.047619047619047616,49.19786096256686,49.135248521428196,49.2607415623191,50.0,0.505668657808119,0.494331342191881,26.650965697376517,26.350508819916424,0.5125955182631798,0.48740448173682027,56.4316616952599,55.02755233612654,0.5113181925007836,0.48868180749921636,44.129391647126766,43.141516148448225,1.3665879290936573,1.6051185639311836,1.6344511061197853,1.9675043012226903,-0.14043658808716408,-0.6266694839488336,-0.29250554906847115,0.0034750237716081375,0.2562880953633756,0.46309263695883374,2.169053700369523,5.995355023771521,1.3941371607596742,1.0939171425069938,0.8169164972594083,0.8888370153723535,2.083386791442435,1.7457988976034706,3.0897040902336865,0.9966109904793409,Relax
75.63512198767361,794.527027027027,67.18798469168998,,,,,,,59.0894376672821,59.46043540872732,0.08456349803869476,0.07437058231786504,783.0,70.42349999999999,0.08994061302681991,101.25,1.1370557470864553,734.6,846.2,44.5945945945946,67.56756756756756,653.0,943.0,12.333333333333334,93.75,,,0.052505549037748594,0.02432916212630534,0.004442134153459452,0.08127684531751339,2.158132235099794,0.6460086982046631,0.2993369394599637,-3.7160795606627555,42.04487708981579,84.1146839789748,0.49985181065799733,11110.53003016903,2.0005929331007426,4.7527048875063445,673.1169693533569,0.4864864864864865,0.5068493150684932,0.7297297297297297,0.047619047619047616,52.26204465334901,52.106375342607855,52.421066546114844,49.31506849315068,0.5581637136893646,0.4418362863106354,31.431914955627153,27.965380383610018,0.50137952754365,0.49862047245635016,59.56005854735558,59.39595513768909,0.5127425675474266,0.4872574324525736,47.6201945184089,46.42166512910957,1.1894512329947453,1.8813766096343612,1.5059619427436717,1.7620017824036105,-0.37930516614187937,-0.4309179523562028,-0.3639082476369794,0.002110126727986429,0.2691199125788743,0.5194193188543599,2.1041341542702074,5.874927858842956,1.3702053274721318,1.063466712214377,0.9485198834504672,1.1344807780995272,2.1057217398337515,1.771607491307745,3.5912275014164035,0.7552037877116291,Relax
74.45411279448678,806.4931506849315,64.02714773344005,,,,,,,63.72728353434396,64.16474297463962,0.0793895740826362,0.0790177616266452,802.0,63.751799999999996,0.07949102244389027,83.0,1.0047054288597517,744.4,865.6,47.94520547945205,72.6027397260274,653.0,945.0,14.6,93.75,,,0.048866838187500095,0.028119274087943867,0.004318447151325868,0.08130455942676984,1.7378413836241862,0.6010344134699351,0.34585113413314295,-3.571300027168618,45.37132487045957,78.68668679761672,0.5766073870558975,11215.860344385908,1.7342823252853294,4.756802702948838,545.8597205934766,0.5205479452054794,0.5416666666666666,0.7948717948717948,0.05,51.06666666666667,51.04012189982679,51.090458831371976,51.388888888888886,0.5324379967442306,0.4675620032557694,33.11173997155181,31.028950588891778,0.4611229350451575,0.5388770649548424,53.43300769258955,57.76251698212167,0.4789213503801658,0.5210786496198344,44.44926115820147,46.36434051487081,1.3025539566963367,2.653759038449633,1.6730045608735904,2.32843243285043,-1.706416578821731,-1.975656571878118,-0.25301907125684225,0.004860938237448621,0.5731370659654144,0.47619513169000394,2.3978952727983702,5.79592199035723,1.4744227682487345,1.087735866544406,0.8523740461192126,1.092796392693007,1.9598513447807207,1.8324421218921274,3.9687214289465507,1.1022975241841126,Relax
73.377141569332,817.6760563380282,66.2997036511126,,,,,,,62.440257160630864,62.8880516420844,0.08108309291583833,0.07636307395409166,818.0,69.6822,0.08518606356968214,93.0,1.0618102273434444,762.0,874.0,45.07042253521127,73.23943661971832,653.0,945.0,14.2,171.875,,,0.05706401213145085,0.02831740127377058,0.007738995173828062,0.09312040857904949,2.0151570965061416,0.6127981288120044,0.30409446979318255,-3.5642787772989233,44.46856777172767,82.55481208221363,0.538655066253956,11533.082745160124,1.8564756235459536,4.768915517886655,613.0439849481863,0.5492957746478874,0.5714285714285714,0.825,0.047619047619047616,50.60992907801418,50.56145905501277,50.65875074703865,51.42857142857142,0.529080482934247,0.4709195170657531,32.34707611722168,30.517398221390017,0.5018581386315131,0.4981418613684866,58.48343582247791,58.26649751210136,0.5079807915026787,0.49201920849732106,47.2580448121546,46.509656666818195,1.0870997101704867,2.1750781186512556,1.4539661777387975,1.8331480155621402,-1.0790227177700356,-1.2503209204919927,-0.325669784192179,0.002037803542075029,0.3361454946833601,0.43134248822272925,2.302585092994046,5.762285499725431,1.4415241217241064,1.0965418686683501,0.8285465011681314,0.9222198635284842,2.013272862571179,1.8068141441949885,3.0262750377218497,1.126010035965646,Relax
72.53240521156995,828.4788732394367,74.22915467945569,,,,,,,66.6956841610781,67.16244637368825,0.08959691921800268,0.08050378388080216,827.0,72.64739999999999,0.08784449818621523,101.0,1.1129528936262705,764.0,898.0,43.66197183098591,70.4225352112676,679.0,1056.0,11.833333333333334,148.4375,,,0.03713209101060999,0.047022690158828685,0.009043222744891064,0.09319800391432974,0.7896632643770234,0.3984215267608399,0.5045461081125008,-3.057125024430922,47.491021271912814,93.61180138304172,0.5073187415504223,13966.64145146021,1.9711473637734909,4.852062094139098,738.0906220570813,0.5633802816901409,0.5857142857142857,0.8536585365853658,0.10526315789473684,48.63888888888888,48.47886821901844,48.79999759497593,55.714285714285715,0.5651996582975252,0.4348003417024749,35.711505067735494,31.322191975417805,0.44838483006415675,0.5516151699358434,62.68390705348615,69.52623357185374,0.47230411057966876,0.5276958894203315,51.01266410261764,53.921131594361455,1.144059794541926,1.524775979505503,1.4296072593904527,1.7657095513987604,-0.3838625865822234,-1.0971703066964622,-0.27957267393646357,0.0017141658094029164,0.2073565436194571,0.40494443348408726,1.7346010553881064,5.7516532813851,1.2843619753912892,1.2046104164547755,0.9829564081810813,1.0934145962508413,1.9499632112324787,1.769367034216226,2.804051798172322,1.126010035965646,Relax
72.48910169963929,827.830985915493,74.59471178412677,,,,,,,65.82162041674236,66.26448667738231,0.09010862489235404,0.07951094068307996,822.0,75.6126,0.09198613138686132,101.5,1.1332858612692691,766.0,898.0,39.436619718309856,73.23943661971832,679.0,1056.0,14.2,148.4375,,,0.06246698656821454,0.04009946969681409,0.005646767015063347,0.10821322328009199,1.5578008148366498,0.5772583486079987,0.37055979372339054,-3.21639216927541,46.85606788142267,94.51150422378124,0.4957710520666183,13912.346583316295,2.017060084148735,4.850370498202199,762.5415306505749,0.5211267605633803,0.5428571428571428,0.8421052631578947,0.05,47.98657718120805,47.965549999247926,48.023469823017834,57.14285714285714,0.5621715016783501,0.43782849832164983,35.14895838232363,31.01916191319652,0.4524297208455998,0.5475702791544003,63.571175005891575,69.9366151526661,0.47409830367407063,0.5259016963259292,51.36508331051363,54.09860693589636,1.1708316048194782,2.446114063667588,1.471092125260416,2.1135691115672683,-1.9601215583278169,-2.324513298913992,-0.23734790382442245,0.0025808388195389972,0.41994876845076506,0.4296785799624918,1.6739764335716711,5.744748703981254,1.276411941285264,0.922219863528484,0.0,0.0,1.9924758611960183,1.7766198500315769,2.7534731542430713,1.039393879352904,Relax
72.3187117964266,830.3521126760563,72.21280032783054,,,,,,,67.97972386780383,68.4674969357429,0.08696647991308572,0.08186855049807602,824.0,66.717,0.08096723300970873,90.5,1.062269691890166,779.0,886.0,42.25352112676056,77.46478873239437,679.0,1056.0,14.2,125.0,,,0.04701492930851299,0.02604221617391879,0.005962850896609043,0.07901999637904082,1.8053351909273496,0.5949750881155846,0.32956488695595787,-3.648036358737824,48.41383137413296,88.35412525329738,0.547952132798985,13438.356478668456,1.8249769279880652,4.835316267378195,644.9769603193416,0.5211267605633803,0.5428571428571428,0.868421052631579,0.05,49.406175771971505,49.27524347074712,49.531776274436915,54.285714285714285,0.5612466652446622,0.4387533347553379,36.27152034869502,32.070009467513046,0.4761319395524121,0.5238680604475878,60.96639131164987,63.94959405430299,0.49578781723547355,0.5042121827645267,50.16235669289778,50.5867378220642,1.253656441165211,1.094626785144932,1.354142704951503,1.800969833737677,-0.6953818678882069,-1.7007712424898032,-0.09179956597991278,0.0015684646441864417,0.12461974735103759,0.42451859776741374,2.0149030205422647,5.868056978659612,1.3514140361241491,0.964835686899808,0.9060852332440912,0.971676299360964,2.210391444059306,1.8508983532504275,2.3825261062339407,1.126010035965646,Relax
73.31213010324915,818.7638888888889,71.688782208395,,,,,,,59.78341189684785,60.20440367056191,0.08755733268315108,0.07301666903993223,813.5,68.19959999999999,0.08383478795328825,94.25,1.1991417005789005,761.6,875.6,37.5,73.61111111111111,678.0,1056.0,12.0,125.0,,,0.04366136245867123,0.029738416493487435,0.00357310557371504,0.0769728845258737,1.4681804751854508,0.5672304309187591,0.3863492537231231,-3.515315584374841,42.57094209274659,92.56761192047657,0.4598902489708673,12380.044157519853,2.1744318394177284,4.799692303703483,805.1278506349931,0.5138888888888888,0.5352112676056338,0.8421052631578947,0.1,49.21780986762936,49.22283192720226,49.226361289123645,54.929577464788736,0.5447946468682761,0.4552053531317238,31.424058117490627,28.724305288130367,0.4706267068901708,0.5293732931098294,63.50345351004583,67.35038358433756,0.4835762769275585,0.5164237230724414,50.10069877892913,51.77431739406673,1.2461681778285982,2.3126471812275984,1.5421141471095163,2.0984254831214733,-1.6004670104968657,-1.866757888433372,-0.2594482459202203,0.0024567675970044766,0.37785406587133513,0.4506212067066646,1.55814461804655,5.9754805569978675,1.2679424638224872,0.0,0.510370335803804,0.7928029559328719,2.092967049447198,1.78397684224436,2.977001225598823,1.0283208335737186,Relax
72.60990922437126,826.3661971830986,80.62279710153231,,,,,,,62.31670264520923,62.76345549565999,0.09756303848869638,0.07541051758606926,815.0,85.9908,0.10551018404907975,115.0,1.2937590353672286,758.0,899.0,40.845070422535215,73.23943661971832,678.0,1056.0,14.2,62.5,,,0.0625941192305496,0.028140409494654697,0.0033630361357552194,0.09409756486095952,2.224349977651868,0.6652044537288498,0.2990556613897027,-3.570548675352922,44.38046499168126,105.46647048951398,0.42080165180168605,14704.698799877908,2.3764165271653366,4.874426243130573,1002.5290541323051,0.4788732394366197,0.4927536231884058,0.7647058823529411,0.1111111111111111,50.64935064935065,50.60204089782483,50.69883614615676,50.72463768115942,0.5501773127915361,0.44982268720846386,32.920413472318444,29.766969341337315,0.5377709404640082,0.4622290595359921,77.34158669331126,71.70394246676081,0.5396374638901088,0.4603625361098913,59.436834771997184,54.89775873860726,1.3279927588748213,1.7483146118543278,1.5582150522801075,2.1316088045442187,-0.964082501427102,-1.8260139270496856,-0.17203056682346868,0.002898215063729824,0.29324016070049214,0.4813975547850178,1.3437347467010945,5.980733034997641,1.2443339975635372,1.0043109956375524,1.1387787454762968,1.356945859946004,1.8824771256236836,1.7618825872541803,3.0050079105594785,0.779545409514678,Relax
72.6034975162602,826.3098591549295,85.08123707027566,,,,,,,65.84841900694568,66.26690026244908,0.10296529337951818,0.0796897414176918,802.0,88.95599999999999,0.11091770573566083,119.5,1.2920771425248845,758.0,900.0,40.845070422535215,71.83098591549296,678.0,1056.0,10.142857142857142,125.0,,,0.058738311951772246,0.024977930424804857,0.0019939009224219694,0.08571014329899906,2.351608438041005,0.6853134260534856,0.2914232722452647,-3.6897626270041326,46.85777454379035,108.14006569964624,0.43330632583427064,15919.087146350585,2.307836143574964,4.908888270180695,998.2782087608593,0.5070422535211268,0.5217391304347826,0.7777777777777778,0.05555555555555555,47.33314716559619,47.64474634909088,46.998415306922,52.17391304347826,0.4992768210436838,0.500723178956316,33.137941825131456,33.18590586116472,0.49819163657472476,0.5018083634252752,76.32816916263357,76.60472832537297,0.49836342554179125,0.5016365744582085,58.839241141118585,59.03214696091566,1.3580972194905472,2.155723661268576,1.6902614549148554,2.148287525565027,-1.0355259851342833,-1.3418040172848134,-0.2875302484824806,0.002748390707307082,0.36452022575757104,0.6142371116420193,1.6964492894237304,5.924395006828627,1.1966251001077683,1.1110437648332885,0.8532935005433505,1.2999760612624047,1.793784052764652,1.8098948070491483,2.124256046174115,0.86616156612742,Relax
73.38097196691977,818.2535211267606,74.9606979518237,,,,,,,63.35545979404052,63.80034203585698,0.09161060235781264,0.07742766533628609,798.0,59.303999999999995,0.07431578947368421,109.0,1.1831766069650531,758.0,886.0,36.61971830985916,73.23943661971832,678.0,1025.0,10.142857142857142,125.0,,,0.06004105612619504,0.025204032979461485,0.006759933861154611,0.09200502296681115,2.382200347663483,0.6525845458226077,0.27394192367685516,-3.6807512584020934,45.11365449557561,96.46517731690854,0.4676677714214706,13671.886640104805,2.138270073562076,4.842798558754265,825.0744071904189,0.5211267605633803,0.536231884057971,0.8108108108108109,0.05,48.705120659211296,48.678044992468685,48.74571683227772,50.72463768115942,0.5088691480350496,0.4911308519649503,32.18819209189804,31.622203720106885,0.5573391139070174,0.4426608860929827,72.01622099885914,64.18095003835707,0.5486377679860908,0.4513622320139089,55.77820271890019,50.59228259301031,1.379879483589567,1.881019289882885,1.6876501197287448,2.119602288286576,-0.8006032746028051,-1.3433186921132574,-0.2703627119184274,0.0023356002669888856,0.2957009301405248,0.5930816213563075,1.5926307941177191,5.868056978659613,1.2325533773840274,0.0,1.1562879140080857,1.3974958702647546,1.7454541751448087,1.7644713748270984,3.055256991012653,0.86616156612742,Relax
72.52266421951441,827.9577464788732,73.20839854624765,,,,,,,65.43699259593154,65.8931250871243,0.08842045244167021,0.07903421747573598,812.0,71.1648,0.08764137931034482,104.5,1.118761661286972,769.0,890.0,39.436619718309856,76.05633802816901,678.0,1025.0,11.833333333333334,210.9375,,,0.055924088588294424,0.022471073711976833,0.005412220714714952,0.0838073830149862,2.4887145716801022,0.6672931020682776,0.2681276148183582,-3.7955264096819,46.593475582679005,92.86162371733701,0.5017516786536668,13592.872810564935,1.993017746713406,4.840281363156657,740.2994562291008,0.5492957746478874,0.5588235294117647,0.8157894736842105,0.10526315789473684,51.42378559463987,51.42502470320509,51.419476295332686,47.05882352941176,0.520838059651698,0.4791619403483019,33.63443714883364,32.26071330873522,0.5590332473734734,0.44096675262652635,69.43126723289166,61.66506539244949,0.5513483310788204,0.44865166892117947,54.55261786515866,49.21043544332583,1.169665447591433,2.0877754641839843,1.4800635464079286,1.8679865578948078,-1.0169434199208602,-1.154698664042435,-0.3141931361194052,0.0018343136564246967,0.30230899668805294,0.5660849745561709,1.4939250253122562,5.857424760319283,1.3414989260077674,0.0,0.0,0.0,1.7651865949529995,1.7807745837847238,2.7715793580592614,0.9527777227401621,Relax
71.43760988711465,840.7571428571429,72.10910326947022,,,,,,,63.98811030863128,64.43347779321368,0.08576686369195989,0.07610772129890048,825.5,86.73209999999999,0.10506614173228344,109.25,1.1269140926598595,778.8,900.8,34.285714285714285,72.85714285714285,731.0,1025.0,11.666666666666666,156.25,,,0.06023596523446921,0.016299437325144453,0.0076751090527829415,0.08421051161239661,3.6955855611988357,0.715302212053084,0.19355585203148223,-4.116624691695035,45.56134908301421,91.46618431406917,0.49812233258325656,13092.030545411431,2.007538981065177,4.823977119864497,734.4877218391443,0.6142857142857143,0.6153846153846154,0.85,0.1875,51.77136052396546,51.75594066723856,51.78199761082942,49.23076923076923,0.5535521504748353,0.4464478495251647,33.910457349423325,30.453677455903993,0.5537336864779407,0.44626631352205937,68.06299167652588,61.102307951635055,0.5536975763308986,0.44630242366910167,53.77029827705017,48.274830437841416,1.3956153609948718,2.0103564849497912,1.7042564982890112,2.3190945161487453,-1.2821041349237365,-2.122002633402465,-0.19416468051182997,0.0033576887944576743,0.37308636776667514,0.5346507231558335,1.6314168191528755,5.843568731230682,1.2967957610643883,0.8280126132795766,0.0,0.0,1.8394300787572406,1.7864261378094217,2.7191810572247737,0.9631730455199232,Relax
70.89700969713716,846.1714285714286,72.73058711627063,,,,,,,64.75830202498688,65.13298743997488,0.08595254420142734,0.07653094850332727,843.5,81.54299999999999,0.09667219917012447,108.5,1.1231083095447385,781.6,905.8,34.285714285714285,77.14285714285715,713.0,1025.0,10.0,171.875,,,0.060067049193200994,0.04064206421625766,0.014131805181915936,0.11484091859137459,1.4779527160230443,0.5230457047015686,0.35389880814929486,-3.2029516842789416,46.05597709774446,90.14246089722086,0.5109243373137641,13042.633279129805,1.957236966353179,4.822335393316325,705.7206268243465,0.5857142857142857,0.578125,0.8108108108108109,0.13333333333333333,46.39205375401694,46.44016186017595,46.34207917255958,56.25,0.5533088425876327,0.44669115741236726,34.31107692859552,30.828629741925052,0.48581278264587857,0.5141872173541213,62.82953984819253,64.63831819494823,0.4998188140940989,0.5001811859059009,50.620159410730885,50.63850605436579,1.13458766517001,2.0857245582802166,1.5033390248502005,1.716082496037211,-0.6076901505547152,-0.44392494456097786,-0.39800020796493474,0.0016625433303911776,0.2941816756006349,0.47778314752326434,1.8191584434161698,5.87214015980211,1.3467014547560636,1.1118647845559646,0.801363201134015,0.9412671481178708,1.8884032199660956,1.8721474063229917,2.3979560747073365,0.9631730455199232,Relax
72.22767455573705,830.8591549295775,73.18026583613292,,,,,,,64.56878945302113,65.01875665033981,0.0880778233012737,0.07771327916401655,827.0,71.1648,0.08605175332527207,102.0,1.1333690232705589,779.0,889.0,32.3943661971831,74.64788732394366,639.0,1025.0,11.833333333333334,148.4375,,,0.06340264390353312,0.02366379815027715,0.0048993229807462214,0.09196576503455649,2.6793096991824426,0.6894157176826543,0.25731094762692824,-3.7438089028727077,45.9752037317732,93.09682452726324,0.4938428777268278,13446.473578739968,2.0249355515726526,4.835578512805799,754.060278895105,0.5633802816901409,0.5606060606060607,0.8378378378378378,0.13333333333333333,48.52295992980403,48.496254212078696,48.56016474095805,56.060606060606055,0.591151285469043,0.40884871453095717,35.35749105795041,29.40447565262467,0.33851332488102276,0.6614866751189774,54.16549943911084,75.71735209033477,0.3880665374274208,0.6119334625725791,45.73867894573126,57.43579282980919,1.3393287503331452,2.059391543387876,1.6226395994125167,2.1354042921774563,-0.910825105048092,-1.3345116443015792,-0.2510115575586963,0.004212934980327289,0.38477846060862064,0.42741934532011827,1.8562979903656258,5.755380922321584,1.2922131292218806,1.1924358928189438,0.8106480878713791,0.9505520348552348,1.7715511909667674,1.7884955923256547,2.535034407306528,1.126010035965646,Relax
71.68458843518643,836.8450704225352,84.27228791878383,,,,,,,60.640156426485014,60.99440968172707,0.10070237717506483,0.07246282325098351,838.0,85.9908,0.10261431980906921,109.0,1.3897109256462492,775.0,909.0,35.2112676056338,76.05633802816901,639.0,1068.0,11.833333333333334,148.4375,,,0.042115622897672234,0.025615151224013376,0.0043728378572921375,0.07210361197897774,1.6441684270905337,0.5840986566657895,0.35525475799300643,-3.664571257879592,43.12956070041962,110.37951658328379,0.3907388076652556,14955.92900879287,2.559254367323289,4.881783504986184,1129.9570395152095,0.5070422535211268,0.5,0.7575757575757576,0.14285714285714285,46.69051878354203,46.598433998595425,46.790810973060424,57.57575757575758,0.5390006448956123,0.4609993551043876,31.707677486599405,29.323779735412938,0.36950840459585255,0.6304915954041475,67.096620792251,87.64520043573573,0.39201175191412185,0.6079882480858781,52.475391057777415,65.35122499766666,1.3973561806517232,1.8175587007472105,1.3973561806517232,2.2557050376966834,-1.7388571209785795,-2.5690966044318015,-0.02774628038583442,0.004098544642157289,0.32340058525100523,0.5245277154437757,2.512305623976115,5.783549936406092,1.2126024929149268,1.0304358841025538,0.9027294781610562,1.0760162733010423,1.809878371090008,1.7690607983945787,2.324529315361399,0.9527777227401621,Relax
71.80944785134396,836.1142857142858,88.58215589883382,,,,,,,66.11068891189834,66.57385696632386,0.1059450333672493,0.07906896227161159,839.5,91.17989999999999,0.10861215008933887,119.75,1.3399067133740177,765.2,913.0,38.57142857142858,71.42857142857143,639.0,1068.0,14.0,148.4375,,,0.061434666566416746,0.014436222261204126,0.0020405282656916508,0.07791141709331252,4.255591626038908,0.7885194347426386,0.18529020264018853,-4.2380147960050625,47.074825710630876,116.6341234601959,0.40361109008288004,17249.011960095762,2.477632613600022,4.943734333280202,1155.906032574531,0.5,0.49230769230769234,0.71875,0.14285714285714285,48.328974135425746,48.300839367794254,48.36928111623165,56.92307692307692,0.58721768858618,0.4127823114138203,36.08496917000207,30.254314228085963,0.37075461800416204,0.6292453819958378,71.01807797768232,92.52000516474287,0.40109383234518586,0.5989061676548141,56.32802321954929,68.83049791006822,1.3305549318275247,1.6044542407408637,1.593412268753655,1.9302641998950951,0.02359942133220727,-0.49653530131778645,-0.29005201732278924,0.005097540482382966,0.2955781755813466,0.46238823951799235,1.9169226121820613,5.786425874087824,1.2449158687761797,1.2436833427769372,0.7538837252125428,0.9471811972709132,1.7602655496164423,1.773945720989704,2.5123748309933394,0.9631730455199232,Relax
73.23649802509202,819.1666666666666,100.45768501649457,,,,,,,65.304055910103,65.76782527228855,0.12263400002013579,0.07972010894417457,810.0,107.48849999999999,0.13270185185185185,145.25,1.5383069798112348,724.0,923.2,37.5,68.05555555555556,636.0,1068.0,14.4,148.4375,,,0.053550313580498436,0.021612427019283228,0.0022086255282686806,0.07737136612805035,2.4777556695839533,0.6921205642391289,0.2793336618034436,-3.8344868047611604,46.50487523392723,133.72056813389744,0.34777653043891377,19536.491347573603,2.8754096739591457,4.997816679313238,1538.0056608780872,0.3888888888888889,0.391304347826087,0.5925925925925926,0.06666666666666667,50.37922987164527,50.27418691847863,50.48346940092969,56.52173913043478,0.6159392049883086,0.3840607950116913,36.49843440869367,28.820751452481495,0.3841924429716313,0.6158075570283689,82.884366443581,104.9350853685196,0.4091982417897166,0.5908017582102831,64.03887067648652,76.94805993520632,1.4061477355990732,2.3983437454509966,1.7715135707293732,2.314953776897806,-0.9294328123761257,-1.1835759709412272,-0.2734102097753124,0.006642499141130672,0.5513618886093945,0.525979423152962,1.7047480922384255,5.9754805569978675,1.1453941382057558,1.0644798865604408,1.034092960428115,1.0731658867502765,1.831346185874756,1.7012707007057934,2.3730718798021537,0.8569340279780989,Relax
73.9917242954213,811.4109589041096,95.28011854183174,,,,,,,63.088562090656865,63.53040749165976,0.11742523008379985,0.0777516761369161,809.0,69.6822,0.08613374536464771,96.0,1.5102597901172057,727.0,894.0,34.24657534246575,67.12328767123287,636.0,1068.0,10.428571428571429,179.6875,,,0.051170503399590186,0.014406637321456016,0.0022299789534186844,0.06780711967446489,3.5518700344723197,0.7546479432433436,0.21246496519275296,-4.240066253492414,44.92278194889725,128.01196882617776,0.3509264200904219,18066.211613380474,2.849600208905142,4.963837202871655,1459.131732437739,0.4383561643835616,0.4347826086956522,0.7,0.058823529411764705,50.363196125908,50.319478261976045,50.39980645981041,53.62318840579711,0.5969459682034532,0.4030540317965468,34.70884938098802,28.52031645519077,0.40182054274184287,0.5981794572581571,81.14591188607923,99.0070964473303,0.4232158869970849,0.5767841130029151,62.40738434342304,72.8553827717458,1.5420545879795529,1.2701479107257883,1.760773019747941,1.8967755262260042,0.18829957447628587,-0.072313527467462,-0.3929238828568016,0.0011161104680356866,0.12589772970519836,0.5728348930560077,1.4552872326068418,5.823319250631203,1.1213110706202258,0.7242764984171677,0.5877917418052172,0.5800711675233615,1.7326190780509847,1.6465177612777948,2.3693588564696655,0.8479211724493175,Relax
73.28991495072002,819.7222222222222,99.87671586739806,,,,,,,64.82207500883248,65.26376756008514,0.12184214744921486,0.07907809896028362,812.5,71.9061,0.08849981538461538,95.5,1.540782454955185,745.2,901.2,36.11111111111111,63.888888888888886,636.0,1068.0,12.0,140.625,,,0.04399508975412818,0.010396734030181147,0.0018246797745410132,0.056216503558850335,4.23162597277307,0.782600961798911,0.18494095811734912,-4.566263557713807,46.14845260751882,132.6974107392507,0.3477720654112848,19238.422796283892,2.875446591195795,4.99113957480768,1526.2572694827468,0.4583333333333333,0.463768115942029,0.6875,0.11764705882352941,51.69415292353826,51.992027011335566,51.43281645254476,47.82608695652174,0.572597918447383,0.42740208155261705,34.93115678424799,30.179108194719266,0.4526984821191223,0.5473015178808778,89.28262858725525,98.16931826926191,0.46564210015109736,0.5343578998489027,67.7922321572888,72.62228866154044,1.4535018968931872,1.295168149645158,1.7537559983275932,1.8085706388047682,0.33948457748297756,0.06042185178444193,-0.45767758766134514,0.0014453003492248741,0.14738785754612044,0.539405427456173,1.6397432619294294,5.8051380221855,1.124775022175027,0.9660985171720343,0.7426678412786453,0.8604280219522137,1.7010393618642914,1.6379892491286536,1.9395000179626376,0.8569340279780989,Relax
71.89580916979058,834.8571428571429,105.54829730593569,,,,,,,78.72572089498313,79.30169979762627,0.12642677637603522,0.09429843365244385,818.5,110.4537,0.13494648747709223,140.75,1.340709187620305,742.0,929.8,38.57142857142858,68.57142857142857,636.0,1101.0,11.666666666666666,179.6875,,,0.04872331884675911,0.01978300032512024,0.0023256750365773316,0.07083199420845669,2.462888239701981,0.6878716234272279,0.2792946965025352,-3.9229322795018575,56.0747696865214,139.21862540874,0.4027820955844683,24525.321690328103,2.482732005624336,5.096584822544587,1382.5701483252167,0.44285714285714284,0.44776119402985076,0.7,0.125,49.67462039045552,49.54882518133867,49.81489557571579,52.23880597014925,0.6350843224738333,0.36491567752616677,44.68764140249121,33.87411817823368,0.43333787793650136,0.5666621220634986,91.64539924263826,104.79955371258268,0.4614996604455749,0.5385003395544251,72.09668680480473,77.87940145092746,1.4424793638199302,0.7664958917181379,1.518288628046419,1.2963208103546966,1.0613722191362354,1.3886097076620953,-0.7895877461184699,0.0010739346224165889,0.06380975078930738,0.5984162365933181,1.6422277352570913,5.782644981137961,1.0753608493131546,1.2722820470608454,0.8033802609341728,0.8959622727260997,1.8475901588115036,1.6642624753027333,2.6636110193459634,0.9631730455199232,Relax
73.9108613259902,812.8767123287671,92.57323605387002,,,,,,,74.98842503272681,75.50698622446201,0.11388348891022096,0.09225067454312533,801.0,81.54299999999999,0.10180149812734081,108.0,1.2345003380650916,733.8,886.0,34.24657534246575,65.75342465753424,636.0,1101.0,12.166666666666666,140.625,,,0.04061665133045174,0.01730985377394782,0.0037665320140790673,0.06169303711847863,2.3464468193013737,0.658366863223954,0.28058034719064073,-4.0564793573197155,53.39150198627632,120.31694215220726,0.4437571386973354,20181.28413452146,2.2534848744868308,5.0119189068871295,1084.5296371380243,0.4657534246575342,0.4714285714285715,0.7272727272727273,0.1111111111111111,51.08664973186565,51.007501845821615,51.175055368172686,52.85714285714286,0.6692979314603272,0.3307020685396727,43.68436726864625,30.706814401761466,0.392741083884362,0.6072589161156379,75.40149434025626,93.75916605918535,0.43824865512260647,0.5617513448773938,61.61862256009002,69.76277542793908,1.3384812926570568,1.8719193578689532,1.5683166481360418,1.3007122347273161,-0.22739139108149686,1.2465889299756379,-0.642957233859355,0.0005418986238239005,0.15334914742864234,0.4606153081629354,1.4781019103730133,5.830034661530834,1.0946601753798337,1.0746525349915024,1.0152364554400855,1.2144889790190203,1.791254049840245,1.6129613679645032,2.1894997034906964,0.7631290552043858,Relax
73.83863180529399,813.4722222222222,88.82424047747679,,,,,,,71.54187191162752,72.01304934283732,0.10919148564757264,0.08794629977184876,807.0,71.9061,0.08910297397769516,97.25,1.24156997998595,739.0,876.4,33.33333333333333,68.05555555555556,636.0,1101.0,12.0,187.5,,,0.043431580846444114,0.026621150067762476,0.004820183279933681,0.07487291419414027,1.6314689912303464,0.5800706612517984,0.35555114094712115,-3.626049263801801,50.92091552424172,114.62761859898357,0.44422902740730275,18337.29813862463,2.2510910775831054,4.970305456021639,1032.1488378910844,0.5,0.5142857142857143,0.7777777777777778,0.1111111111111111,52.40314593649869,52.529498895292946,52.299668408163555,50.0,0.6660823621678889,0.33391763783211115,41.58047275207094,29.440496890216664,0.4429579981216866,0.5570420018783134,76.29051451939357,85.55260568819773,0.4797646642264822,0.5202353357735175,61.43768517741987,63.97652380828103,1.3099538342661003,2.156233861673927,1.5632399528727525,1.8375494454408887,-0.7273043447131045,-0.3262034377612526,-0.3727830512989049,0.002620803346536781,0.30417494461501704,0.4803049156532393,1.2809338454620645,5.898955904159993,1.0915101025026994,1.1093687088577049,0.7717232629877421,1.1715701571328918,1.8228478913668913,1.6333965499462604,1.969703219272995,0.9426274307759088,Relax
72.67433144366106,826.3380281690141,78.57661296230428,,,,,,,73.58513048552288,74.11205773320071,0.09509015715567758,0.08904967214031233,813.0,63.751799999999996,0.07841549815498154,90.0,1.067832759741636,772.0,877.0,36.61971830985916,71.83098591549296,703.0,1101.0,11.833333333333334,78.125,,,0.040638136021367614,0.020676061511080403,0.005625542172426522,0.06693973970487455,1.9654679398003065,0.6070853606622009,0.3088757381226383,-3.8787786966537174,52.40513859083512,98.75153168610585,0.530676716563865,16258.017512781715,1.8843864235744245,4.918037696991615,744.3441824659097,0.5492957746478874,0.5652173913043479,0.8205128205128205,0.05263157894736842,50.777345918933925,50.6585255273714,50.90538072093239,52.17391304347826,0.659531862576972,0.34046813742302806,42.56154963398744,30.580020947661566,0.4305447402781973,0.5694552597218028,64.79671433112968,74.52013702511516,0.48086613354995633,0.5191338664500437,54.818334959009846,56.95782871301082,1.0929617595117467,1.2762845444212205,1.206069673861353,0.9206022547476649,-0.05073328771602448,1.0125601687861217,-0.7236706699626643,0.0008074178044422137,0.07826867457395749,0.4466677883831305,1.363304842895192,5.913762788488296,1.191166527086498,0.9820635500891821,1.009510930941227,1.2700027398827183,1.9736652416548155,1.6918254628109526,2.466883998204325,0.9527777227401621,Relax
72.98320965837344,822.1267605633802,80.93452902147244,,,,,,,71.45698006493137,71.92784658163788,0.09844531634757916,0.08691722918247294,806.0,71.1648,0.0882937965260546,95.5,1.132632934500297,758.0,874.0,36.61971830985916,67.6056338028169,703.0,1101.0,11.833333333333334,31.25,,,0.032975558214923664,0.046035927874417,0.012835093799503898,0.09184657988884457,0.7163005013145131,0.35902870041357726,0.5012263704335103,-3.0783331465984465,50.860668074021774,99.47000390579379,0.5113166389557094,15893.665486258633,1.9557352994464563,4.908194178149347,778.147991498551,0.5352112676056338,0.5507246376811594,0.8157894736842105,0.10526315789473684,47.438494934876985,47.63710351207387,47.23361476461168,59.42028985507246,0.6348009523623005,0.36519904763769934,40.548325078437784,30.75522814044816,0.36350535726536265,0.6364946427346373,59.971863368489636,79.35778021800914,0.4197894524067745,0.5802105475932254,51.18979909393792,60.18114878888927,1.04596257483694,1.912720178580539,1.2743086923231073,1.1930979881412211,-0.6770063768685333,0.3277458777169615,-0.5424582252497351,0.0003212114489804612,0.15146755389136993,0.4272638168459304,1.1394342831883646,5.829255746234775,1.095544165519646,0.9403363134002257,0.801554230219014,0.9840572718304028,1.8605652100403272,1.704301284898823,2.175235148544254,0.779545409514678,Relax
72.6569090015322,827.0,78.22440247683035,,,,,,,74.76754452491879,75.25183255095807,0.09458815293449861,0.09040815541102634,810.0,71.1648,0.08785777777777777,90.0,1.0462347396036182,767.0,880.0,39.436619718309856,70.4225352112676,705.0,1101.0,11.833333333333334,23.4375,,,0.04058594381202341,0.025067793448208156,0.005615874767335166,0.07126961202756674,1.6190473204543057,0.5694705310914976,0.3517318634835848,-3.686171386313453,53.21108109349702,96.35286522818693,0.5522521926823898,16107.07159213872,1.810766916366266,4.913986698985642,697.890322609194,0.5211267605633803,0.536231884057971,0.8108108108108109,0.05263157894736842,52.79244234509585,52.72739192743096,52.85337000639168,56.52173913043478,0.6381285569352411,0.3618714430647589,42.537962584843726,32.03315764026077,0.47417853708787727,0.5258214629121228,66.34918307110418,69.86888108076627,0.5125380264381018,0.48746197356189813,55.730119123650105,54.349718177208864,1.0958084930692529,0.8054552947544313,1.206308461759097,1.179757196174745,0.4961755160535297,0.3278374241724715,-0.5329642945515018,0.00011504654869102067,0.03184867798338666,0.4450517202952855,1.563975538357343,5.868056978659612,1.189702936757598,0.8389337518963496,0.9012268722141471,1.1086769672660854,1.9381792704441414,1.7833611132709888,2.1706586897928095,0.86616156612742,Relax
73.20219976310017,820.4583333333334,66.473321451457,,,,,,,60.39529409892607,60.81146111397835,0.08101974073612146,0.07361165295689531,813.0,50.4084,0.062002952029520296,67.5,1.1006374328201012,772.0,864.0,40.27777777777778,72.22222222222221,705.0,1047.0,12.0,23.4375,,,0.055077193851694545,0.03018759098329725,0.007395229298889386,0.09266001413388118,1.8244978170722095,0.5944008790255034,0.32578875867297263,-3.5003243336344343,43.000196527556135,83.98568911341461,0.5119943288134303,11345.551282355878,1.9531466340995312,4.761795713141612,656.1454640175815,0.5833333333333334,0.6,0.8809523809523809,0.10526315789473684,51.348947524458936,51.36903522825732,51.314650160728405,51.42857142857142,0.47298043470706114,0.5270195652929388,29.57943300915109,31.22350305230249,0.5932883319560237,0.40671166804397624,64.69015528507263,53.560991262749404,0.568292216482361,0.4317077835176391,50.29790774947636,43.83883511172178,1.1567760202793003,1.7526028956887663,1.1659801432802652,2.0220736599666522,-0.9290774342280717,-1.866653955598017,-0.011530239512730286,0.0052681521674300446,0.36888168624781265,0.48195093160321933,1.8718021769015916,5.91992500144231,1.3715095274593434,1.349307559553249,1.1774598379653003,1.315246030079831,1.9233477712429963,1.8505056674359637,2.4745352765789894,1.0283208335737186,Relax
72.50363308675153,828.0985915492957,65.19819343018146,,,,,,,61.95413049760513,62.3600312617369,0.07873240468650199,0.07481492074717178,826.0,45.9606,0.05564237288135593,58.5,1.052362334948785,782.0,868.0,38.028169014084504,71.83098591549296,711.0,1047.0,10.142857142857142,132.8125,,,0.057805229982366264,0.033808036887460355,0.007233129122734848,0.09884639599256148,1.7098073506837257,0.5847985594408146,0.3420259944530959,-3.387056727022296,44.09520098017926,80.21850078064799,0.5496886697091806,11112.60148611579,1.8192115921346206,4.752785850163577,583.7377060952597,0.6056338028169014,0.6231884057971014,0.9302325581395349,0.15789473684210525,52.33866193013617,52.25709171019444,52.409492152749316,52.17391304347826,0.5007108775429688,0.499289122457031,31.222901294040422,31.178541487301203,0.5819497636082017,0.41805023639179834,61.195190230160485,51.86671919631405,0.5630795470822944,0.43692045291770554,48.57839474768037,42.791693174403925,1.1054178034715614,0.9685591853645352,1.2611296238427538,1.3073883266808624,0.3594269332904565,0.10131904559388527,-0.4522396735923802,0.0002878156373579177,0.05700926922886184,0.4935036447184533,1.9459101490553132,5.857424760319283,1.3948858833021025,0.8888370153723534,1.1570462452256438,1.3587896766930905,1.8819651742281551,1.8224803315331566,2.5703510197211243,1.039393879352904,Relax
71.99764934722435,833.9577464788732,66.55533393236858,,,,,,,62.12280464646503,62.561540716414534,0.07980660196919778,0.07449154937256619,829.0,51.891,0.0625946924004825,70.5,1.07135108131593,785.0,869.0,39.436619718309856,70.4225352112676,711.0,1047.0,8.875,132.8125,,,0.051977062825252884,0.02311477956946794,0.0067562071637334185,0.08184804955845425,2.2486505947004063,0.6350433896183671,0.28241087837969586,-3.7672830578423206,44.23768968205502,83.57890669237268,0.5292925144962695,11615.529076240467,1.8893144577185366,4.772009106246874,631.6273470968331,0.6338028169014085,0.6521739130434783,0.9333333333333333,0.2777777777777778,48.851774530271385,48.82706344235182,48.875947964244666,55.072463768115945,0.4761777846875961,0.523822215312404,30.53128592591303,32.022297485219326,0.5256800860779663,0.4743199139220334,60.59788246476314,57.56153476653563,0.5148442551155384,0.4851557448844612,47.98053136170494,46.57659187247911,1.190054309907463,0.9442638213688825,1.3425790933695907,1.4723464788499903,0.24638294764501012,-0.2348430211705761,-0.36257295626101815,0.0004732056214030287,0.06386320308732231,0.4781104016833968,1.5686159179138452,5.846792541978951,1.3061080226308666,0.991627797678054,1.1418641545822903,1.3437913168477256,1.8704312666099563,1.771002784776589,3.182652861324425,1.126010035965646,Relax
72.74189366592196,824.9305555555555,69.59142864270054,,,,,,,58.64382824773035,59.05730259620429,0.08436034787902078,0.07108941213631761,823.5,52.632299999999994,0.06391293260473588,63.5,1.1866794976058523,777.0,867.0,38.88888888888889,69.44444444444444,673.0,1047.0,10.285714285714286,179.6875,,,0.05475309498843325,0.020249891806150187,0.008672117256554084,0.08367510405113751,2.7038709891676524,0.6543534735848221,0.24200617418742132,-3.8996058283500257,41.75981914436195,89.36216638311822,0.46730983406699245,11723.631808132734,2.139907887871759,4.77603228050888,764.9072188821729,0.625,0.647887323943662,0.9347826086956522,0.21052631578947367,49.25465838509317,49.20161962331905,49.30114946033893,54.929577464788736,0.46914520673612475,0.5308547932638753,28.604944627509017,30.428135476420973,0.5456890547425124,0.4543109452574876,66.01251971259966,60.232416702949465,0.5319680698252385,0.4680319301747613,50.87187639525996,47.716954274393785,1.411690546900472,0.7117136236954122,1.4968419288403199,1.4039379569844024,0.7041592069034124,0.7597807395814362,-0.6305356097773351,8.605172652274489e-05,0.022761366955124825,0.43429788283214776,1.4087672169719494,5.919925001442312,1.2546638226908602,0.9734184666899874,1.1438961548484663,1.300532855056077,1.866105860369979,1.7304369218123574,2.49717018036925,1.0283208335737186,Relax
72.99693545411228,822.2957746478874,71.97507393261665,,,,,,,61.91907160618147,62.16480467240761,0.08752942207861504,0.07530024294809934,829.0,56.3388,0.06795995174909529,72.0,1.1624055733650773,767.0,864.0,42.25352112676056,74.64788732394366,658.0,1047.0,10.142857142857142,210.9375,,,0.05322432167728107,0.013982592131999953,0.008038734432329088,0.07524564824161012,3.8064703007015557,0.7073408618446659,0.185825924272757,-4.269942142196733,43.957154934996595,87.2528630579034,0.5037904017639561,12049.225570530238,1.9849524653479522,4.787929244735462,692.7711425418105,0.676056338028169,0.7,0.9591836734693877,0.2222222222222222,44.93891797556721,45.119460113091286,44.715288488199946,55.714285714285715,0.43161138394354237,0.5683886160564576,28.97212553422711,33.24731655293423,0.4301727836421805,0.5698272163578194,57.22702264380313,65.86448201517176,0.43046550112418297,0.5695344988758168,45.355904679795394,52.1704612261474,1.241324667194832,2.2333531160224496,1.5146405409736452,1.8908922996155297,-0.8216988730264756,-0.5211000938234109,-0.3315305555836239,0.004003199701001902,0.37714460104925623,0.43115449106576387,1.4307461236907246,5.896225992744119,1.2195954045911954,0.805626398229695,1.0218710815805234,1.0539330636884328,1.8577427778711975,1.7407383408262094,2.0529790688263665,1.126010035965646,Relax
73.67077691463997,814.75,66.27232549685097,,,,,,,54.487496950618514,54.87355136893396,0.0813406879372212,0.06687633869360972,820.0,56.3388,0.06870585365853658,72.5,1.2162850049234768,752.2,862.2,37.5,76.38888888888889,657.0,971.0,12.0,218.75,,,0.0464757967049419,0.009621893036996733,0.004009668602400887,0.06010735834433952,4.8302134025227454,0.7732130971168967,0.16007845465234713,-4.643714252270849,38.80146028076156,85.9692425462962,0.4513411905410959,10479.511616868953,2.2156187402287344,4.7273111533880146,761.9002594753732,0.5972222222222222,0.619718309859155,0.9090909090909091,0.16666666666666666,49.516983483951385,49.51261722867995,49.525590233708705,53.52112676056338,0.5367164632266084,0.46328353677339157,28.42722538091157,26.411036654074316,0.4660466531099561,0.533953346890044,58.68914694433511,62.81954070932184,0.4780070494586455,0.5219929505413544,46.111403751734244,48.186292408074934,1.436280359235262,0.8496708852268036,1.5604352755628552,1.409399433355512,0.662589427751394,0.9349546624371925,-0.6777580529513225,4.5260844388788644e-05,0.03277887841072163,0.41175862461096946,1.2656663733312756,5.94770277922009,1.2638786057609548,0.8920628665813303,0.9609126739435899,0.9613749950907109,1.9326285322483792,1.6820166117068123,2.99049975385653,1.1140142363715286,Relax
73.76680423452919,813.5416666666666,66.33651672121641,,,,,,,53.205818807058854,53.58165697123127,0.08154040467652722,0.06540023822634636,818.0,59.303999999999995,0.07249877750611246,73.25,1.246790636974757,750.0,859.0,36.11111111111111,73.61111111111111,657.0,971.0,14.4,218.75,,,0.05199929182980947,0.007791023700587291,0.0030979432047702244,0.06288825873516699,6.6742566610200065,0.8268521481694574,0.12388677723446914,-4.854783015591157,37.88795299156907,86.42187712072925,0.4384069665443685,10286.667677995885,2.2809856510316107,4.719244819666732,788.508246590402,0.5833333333333334,0.6056338028169014,0.8837209302325582,0.17647058823529413,50.638716017032415,50.60698347956222,50.66782404650198,52.112676056338024,0.5827126587757662,0.417287341224234,28.923544536785744,24.476081619176124,0.4718745883576248,0.5281254116423753,59.365890979731645,62.804711871427585,0.48974494901052656,0.5102550509894735,46.69518412207415,47.66293321167723,1.5015808615556816,1.4764443756659897,1.714440830941567,1.7782179120698265,-0.1540506445523402,0.11619508244756993,-0.45680360047462604,0.0003800224061795495,0.11277451690797492,0.38937749076219186,1.2130226398458537,5.94770277922009,1.263560073694354,0.8231160453814224,0.8636891020430211,1.0569068282664154,1.9237209148687084,1.691783544638362,3.2915285623457273,0.9426274307759088,Relax
73.86418068138356,812.3835616438356,70.69331850735932,,,,,,,60.659454699530926,61.01245255025553,0.08701963191415808,0.07466849104724399,812.0,62.2692,0.07668620689655171,91.0,1.1654130235349114,752.4,859.0,39.726027397260275,73.97260273972603,657.0,1012.0,14.6,171.875,,,0.054921522958239696,0.00946288716517126,0.003910256117353544,0.0682946662407645,5.803886488299443,0.8041846601112389,0.13855968095386847,-4.66037774531755,43.14231893510815,88.73046909783797,0.48621763610353064,12026.136677609791,2.056692159531353,4.787096245276562,729.9650404202495,0.547945205479452,0.5694444444444444,0.8536585365853658,0.11764705882352941,46.842573376815885,46.98077157848092,46.70858821036668,51.388888888888886,0.5045653741191036,0.4954346258808965,30.681691563261282,30.402812138279135,0.47635098647104135,0.5236490135289584,61.24015933912991,64.20855885659138,0.48175612258773226,0.5182438774122677,48.4340960123399,50.23479877712189,1.3460525083739974,1.4383173608988251,1.5541830425781273,1.4985220773988317,0.009887699356779578,0.5435769735220459,-0.5386986674098909,0.00015520138724738533,0.09520921747484329,0.3710775947303304,1.519825753744413,5.970646476688235,1.2394427083548871,1.1012370148294661,0.7198280831177907,0.9181349667181146,2.0895234644769523,1.7681118509413973,2.2479176160154615,0.9327132896942493,Relax
75.68052582926384,793.3066666666666,76.82007292110313,,,,,,,60.74136575278427,61.155963181480296,0.09683527965784959,0.07656732043865039,803.0,71.1648,0.08862366127023662,100.5,1.2647076990951895,728.2,851.2,37.333333333333336,72.0,621.0,1012.0,12.5,187.5,,,0.05330512069498634,0.010244460753167373,0.0051654371854090424,0.06871501863356275,5.203311524084419,0.7757419230175441,0.14908619624769526,-4.581018133799306,43.24379627561954,100.45686271329453,0.4304712998955384,13647.506075740623,2.323035241240631,4.842023406283628,933.4593292298202,0.48,0.5,0.7567567567567568,0.05555555555555555,50.05858230814293,50.040771414764265,50.07629870110407,48.64864864864865,0.5437580578996718,0.4562419421003281,31.887967413327313,29.20932952854018,0.47169083183745425,0.5283091681625458,68.99352405848005,73.01694943086598,0.48295751769657314,0.5170424823034269,53.74452915302863,55.60872159875863,1.5020717685605982,1.0329813147629023,1.693656814973036,1.5352491530839143,0.5978285473766682,0.8547310456856829,-0.6533499779959531,0.00013051775357971252,0.057521950130164944,0.42512721971169887,1.7346010553881064,6.068818690495879,1.1640601208731616,0.9829564081810813,0.9796226302966065,1.2569987521105546,2.1038468190956756,1.6978719410569516,2.8310940646170972,0.8305091587327841,Relax
74.79467679788738,802.1369863013699,86.98839562909993,,,,,,,67.73262384799021,68.19389041652371,0.1084458105219669,0.08444022031735919,804.0,71.1648,0.0885134328358209,101.0,1.2842909470674682,731.2,855.8,39.726027397260275,73.97260273972603,621.0,1045.0,14.6,187.5,,,0.055760677205507606,0.012248608884442758,0.004023612388543186,0.07203289847849355,4.552408990406293,0.7741001456737959,0.17004187174419694,-4.40234290889353,48.220362349016234,112.37806076227055,0.4290905361948156,17024.010391268825,2.330510499877304,4.938031985665404,1047.5930022492846,0.4931506849315068,0.5138888888888888,0.7837837837837838,0.05555555555555555,48.646431501230516,48.744931799233036,48.55201151960734,50.0,0.5474501612097543,0.4525498387902455,35.685539739211926,32.44540376312356,0.43529354192727154,0.5647064580727285,74.1434252369591,84.4486887690983,0.4527388530724461,0.5472611469275539,58.18378318890676,63.969857199200234,1.3504051330091378,1.2173598217972534,1.5048203925494787,1.3850067444855205,0.053970972982195775,0.6251496561150667,-0.5984208989968726,2.9335332100302336e-05,0.05701692453308224,0.44423299256250903,1.6582280766035322,5.998043736962208,1.088446548342652,0.0,1.108260993504501,1.5425153317063036,1.953481502306854,1.7153575008250639,2.2599755290915957,0.8479211724493175,Relax
73.39740270400424,818.3098591549295,90.20098060114675,,,,,,,68.68686711654357,69.1824245563483,0.11022839281723613,0.08393747960885703,814.0,77.09519999999999,0.0947115479115479,98.0,1.3132201887749428,750.0,900.0,39.436619718309856,71.83098591549296,621.0,1045.0,17.75,140.625,,,0.06193100492364028,0.01715637794965987,0.005856984698474379,0.08494436757177454,3.6097948591105786,0.7290772383620503,0.20197193104255473,-4.065385282396472,48.91936154272061,118.73207830329365,0.4120146993280044,18247.304646654145,2.42709787206864,4.9681688328071605,1152.6974983848445,0.49295774647887325,0.5142857142857143,0.8055555555555556,0.05555555555555555,49.773755656108584,49.729910963331584,49.81784159186834,47.14285714285714,0.557937574942771,0.4420624250572289,36.540626586093836,32.52557522132792,0.4940943700283362,0.5059056299716638,83.45897036152893,84.45061683855775,0.5033594439676589,0.496640556032341,64.42288849900675,63.99148274532774,1.2746414917626727,1.9881129020682247,1.6429167215528102,1.6163946100432223,-0.4911328748854391,0.08926377951758813,-0.5133403447470197,0.0004894797773622956,0.21023245476054087,0.39455189557041903,1.3083328196501787,6.008902049082148,1.0540186208294657,0.0,1.1139352045557238,1.3929312768176692,2.0187141095313907,1.7384485722531153,2.711779721350375,0.86616156612742,Relax
74.8281207366573,803.1621621621622,97.43097690680536,,,,,,,67.5949864396822,68.02189581673157,0.12130922184445933,0.08416106936326821,779.0,98.5929,0.12656341463414633,134.5,1.4413935417199475,717.6,887.0,36.486486486486484,70.27027027027027,644.0,1070.0,12.333333333333334,70.3125,,,0.02368529898640718,0.009740737532469162,0.0016028467101517807,0.03502888322902812,2.4315714192540443,0.6761648332191015,0.27807730748313153,-4.63143844217504,48.09874380117573,129.2629167094154,0.37210009665264077,19532.487628137944,2.6874489122573655,4.997727667861714,1389.5499396237315,0.6351351351351351,0.6527777777777778,0.9148936170212766,0.21052631578947367,52.302720172367344,52.300315600908355,52.28756783573867,44.44444444444444,0.5698695520517593,0.4301304479482405,36.33142196807361,31.56419824914156,0.5394546650233172,0.4605453349766827,94.94048101351423,87.72232726705218,0.5431576073138974,0.4568423926861027,71.8806898871306,65.92232289694788,1.4545929651984426,2.0671987470506954,1.8284297771823341,1.993538047060595,-0.6796945226953266,-0.4736672140141529,-0.4201294650000038,0.0010974076317965444,0.2647124935858184,0.4990574995937824,1.455287232606842,6.047291203466787,1.0374061082766355,0.8836821935716694,0.8847195439235064,0.9527946193093793,1.7747706222189816,1.5396332988388366,2.3133037665633633,0.8391153196795879,Stress
73.69535938851914,814.7222222222222,95.60455853092772,,,,,,,67.30830892768161,67.78576146020963,0.11734620208364807,0.08261503993851135,799.0,84.5082,0.1057674593241552,125.25,1.4203975713258312,740.2,887.4,38.88888888888889,68.05555555555556,644.0,1070.0,18.0,62.5,,,0.03982855149640318,0.00956669081558565,0.002043526570894433,0.05143876888288326,4.1632527134164485,0.7742905275801907,0.18598211083486987,-4.649467920610611,47.93177159640795,127.32449869450434,0.3764536447256148,19172.790588503256,2.6563695530929667,4.989655438749377,1352.8836867796263,0.6111111111111112,0.6285714285714286,0.8863636363636364,0.15,49.5480690221857,49.49417315700158,49.60519903222532,47.14285714285714,0.523625951706621,0.4763740482933792,34.68521710634496,33.08322837934653,0.5413505439605705,0.4586494560394295,93.68094514790205,86.22881469672771,0.5391503609594955,0.46084963904050436,70.63704329004193,65.30661713793864,1.3483750519551865,2.2904285347187203,1.6456835221680821,2.169410489633186,-1.2173707528509539,-1.3872126378333052,-0.2713410571312931,0.0035720002247449935,0.4104081851048355,0.5601269988225743,1.8123787564307907,6.031036112553425,1.073539419711711,0.0,0.9472632945564469,1.2013794085529486,1.8830588672924287,1.5779742741091998,2.5820175831923566,0.8569340279780989,Stress
71.91530341798268,835.169014084507,97.19317817264645,,,,,,,68.52152946337375,69.00850009155486,0.11637545997702917,0.08204510501205013,839.0,106.74719999999999,0.12723146603098925,128.5,1.418432701864869,750.0,923.0,39.436619718309856,67.6056338028169,644.0,1070.0,17.75,140.625,,,0.03654405585637453,0.013105409749927136,0.002171828239881243,0.051821293846182906,2.7884710629957765,0.705193814049595,0.25289622811863594,-4.3347301760090176,48.79637837425092,129.3765973186318,0.3771654177461015,19833.218098315345,2.6513565479462264,5.004363297639023,1372.0939538070265,0.6056338028169014,0.6285714285714286,0.9090909090909091,0.14285714285714285,50.981461286804794,50.97130542593921,50.98277236888924,47.14285714285714,0.539225470389212,0.4607745296107879,35.8361812147719,33.12689699244144,0.5533142224801362,0.44668577751986405,96.23690366349933,86.46827341291001,0.5515592943122054,0.44844070568779437,72.61464559851416,65.47577266194568,1.4908793578608555,2.0236758105525015,1.8853119167402577,2.1224003604876738,-0.6740292927113618,-0.792228198542066,-0.382842675436889,0.0016480969464245107,0.2909786015423587,0.5573809332300037,2.0368819272610397,6.065240077251162,1.0940537586201957,0.0,1.1036415676552687,1.407018397548647,1.9137628404305767,1.6014944792903074,2.6983432141839314,0.9527777227401621,Stress
71.4756977579179,840.2857142857143,95.14156391538353,,,,,,,69.58125268085995,70.05447581894884,0.11322525457458087,0.08280665908976872,845.5,88.95599999999999,0.10521111768184505,112.5,1.3673447983432838,765.4,923.6,40.0,72.85714285714285,644.0,1070.0,17.5,140.625,,,0.04937984499573382,0.023060231647187047,0.0026490082563163397,0.07508908489923721,2.141342105804792,0.6576168169048421,0.3071049764174354,-3.769645718780272,49.53599490404774,124.52749142682156,0.397791638910172,19379.207019574515,2.513878880762038,4.994306112084744,1252.18812308865,0.5714285714285714,0.5942028985507246,0.8536585365853658,0.10526315789473684,52.06721792477994,52.32466460531603,51.82839647585591,46.3768115942029,0.5543678363921011,0.44563216360789903,36.901697713217025,33.08533974258618,0.5714701284477851,0.4285298715522149,94.13735821740835,81.51842680587289,0.5691315134682429,0.43086848653175736,71.49677442469103,62.20889652930201,1.3561611305243468,1.9006297077487782,1.6181657607909494,1.9621168671049722,-0.9825044253823947,-1.1002306006862979,-0.31903307892550015,0.0011730767631430784,0.22708880468023096,0.5375167058328882,1.9459101490553135,5.986425874087824,1.2065278278392348,0.0,1.2398285987326434,1.477928055534407,1.940588526241463,1.6515160172977872,2.1343975237079915,1.05073423147628,Stress
70.01586645158248,857.4705882352941,85.59091711265938,,,,,,,71.20539976170261,71.74229598372729,0.09981790429547983,0.08304121533573056,854.5,91.9212,0.10757308367466355,123.0,1.2020284613119179,788.4,929.6,44.11764705882353,73.52941176470588,652.0,1070.0,17.0,132.8125,,,0.04105835562854,0.025379388653352354,0.0030939848485123283,0.06953172913040469,1.6177834773461581,0.5904981242669268,0.36500442273992734,-3.6738179047183834,50.72946398798597,110.89192892405428,0.4574675946229475,17672.992134661443,2.1859471834813062,4.954280194135384,969.6155988093826,0.6176470588235294,0.6417910447761194,0.8837209302325582,0.23529411764705882,50.23796932839767,50.215536330937205,50.255462142887616,47.76119402985074,0.5333937781127099,0.4666062218872902,37.04992536695545,34.65282357641555,0.5128412308669349,0.4871587691330651,79.41296381426862,77.39897337000778,0.5163980828264797,0.4836019171735201,61.964166223162024,59.964236260246636,1.427677524238082,1.0104275766556574,1.571702270365304,1.6844618896487273,0.05446351183743303,-0.2965393132308618,-0.3884040559773335,0.00021656119646891253,0.05681555206756994,0.44055596910691674,1.791759469228055,5.940404017720928,1.3092660221193517,0.0,0.8811568551569795,1.2281637214340129,1.917044709750072,1.7032953928616794,3.0310221382459797,0.8952151237132852,Stress
70.49732871335401,851.8840579710145,77.01366117008149,,,,,,,67.25379936785552,67.73795730905871,0.09040392345586293,0.07894712753286885,862.0,83.0256,0.09631740139211137,95.0,1.1451198578216055,790.4,917.6,44.927536231884055,75.36231884057972,652.0,1022.0,13.8,242.1875,,,0.04061222202168304,0.04533726165722808,0.0044763527073365325,0.09042583638624765,0.8957802155924489,0.44912188423904387,0.5013750877965135,-3.093626031464893,47.89796895696028,96.07373144856645,0.49855426904702554,14456.78191674434,2.005799693404443,4.867041739618693,770.8186443350214,0.5797101449275363,0.6029411764705883,0.8536585365853658,0.15789473684210525,51.32957292506043,51.150493684054766,51.52056169504302,47.05882352941176,0.5343028718759044,0.4656971281240956,35.01971726063655,32.69419593385336,0.5451028716303694,0.45489712836963053,70.93227575213234,64.79794850976943,0.542952054400562,0.45704794559943784,55.93642972335412,51.32097319242847,1.2064421075042122,1.349431371184009,1.4126311479084563,1.8019714651013539,-0.6147387447212758,-1.4438627967103033,-0.21147823779190403,0.0010488554628078843,0.14843350976658934,0.42074863361698833,2.0149030205422647,5.9056259060535305,1.3996303856290429,0.7783788273025936,1.0610992146118174,1.435999024803127,2.090858151180923,1.8132611602825355,2.6382782109577074,1.1508814193929884,Stress
70.26539310766985,854.4057971014493,72.22031627974543,,,,,,,65.79346025073241,66.28255656394978,0.0845269502205522,0.07700493193507711,866.0,74.13,0.08560046189376443,94.0,1.0976822925032503,797.6,906.4000000000001,43.47826086956522,72.46376811594203,652.0,1022.0,11.5,242.1875,,,0.041165950684163254,0.059733916128034144,0.007719269605605303,0.1086191364178027,0.6891553970097629,0.3789935368830289,0.5499391552724934,-2.8178553105492976,46.868845220749805,91.44807809740189,0.5125186466010747,13465.072886889271,1.9511485223646163,4.836178818566219,713.715129811319,0.5797101449275363,0.5970149253731343,0.875,0.15789473684210525,49.901602473994934,49.88461983168821,49.91719461925418,50.74626865671642,0.5415634756435214,0.45843652435647875,34.49129243347288,31.73396880504238,0.4759319973555923,0.5240680026444077,63.08803992015893,66.20158764516867,0.48958539261316775,0.5104146073868321,50.84166615434092,51.9119205137912,1.1259014641222478,1.7832887255534287,1.4142320169653924,1.7589210466028935,-0.8663307944907377,-1.2567365463495346,-0.30671159711923274,0.001151626599109751,0.2176484943713552,0.3514746356533771,1.466337068793427,5.8476548915607784,1.3703686618494748,0.7131578574783294,1.1240752880039906,1.3413937012810422,2.084948743409783,1.8080537286635014,2.80055807833652,1.1508814193929884,Stress
69.55150544234992,863.0735294117648,72.42398303532204,,,,,,,66.80479471576068,67.3071595845738,0.08391403578868098,0.07740336418531114,872.5,62.2692,0.07136871060171919,68.5,1.0841135481887152,803.6,917.8,42.64705882352941,72.05882352941177,652.0,1022.0,8.5,242.1875,,,0.05347640120316791,0.05599714472399204,0.005925858238316815,0.11539940416547677,0.9549844276302161,0.46340274969258527,0.48524639385221635,-2.8824545766184433,47.59334896465725,91.51506686161883,0.5200602545220646,13683.233546048628,1.9228541141237567,4.843158849543498,703.8804912766979,0.5588235294117647,0.5757575757575757,0.8421052631578947,0.16666666666666666,50.46755454803061,50.44079239889954,50.48862583017184,50.0,0.5563403597836883,0.44365964021631166,35.5,31.701734968294716,0.48874311269911713,0.5112568873008827,63.97833395917533,65.43531345149037,0.5031341802550766,0.4968658197449232,51.737207192656655,51.41390982260928,1.1669567709187074,0.9098623915782307,1.349239137319392,1.4773036787269391,0.12582473663792015,-0.5467696688797536,-0.3592484505427147,0.000305712892532436,0.05737018812384705,0.34682738245357214,1.575536360758419,5.811655672100877,1.3834006531878205,0.6685371623566321,0.8275343540366313,0.8919916313621563,2.2073470765144694,1.793973598660574,3.1513761452489133,0.9847366360846136,Stress
71.01034685777071,846.2463768115942,74.46444192820795,,,,,,,66.59667894917001,67.06245042022573,0.08799380885832317,0.07869656021463463,856.0,60.7866,0.0710123831775701,96.0,1.1181404704135924,783.6,895.0,44.927536231884055,73.91304347826086,652.0,1022.0,11.5,250.0,,,0.05313375846320725,0.05661497203622539,0.01124316921292474,0.12099189971235738,0.9385107252055045,0.4391513695505724,0.46792365580522477,-2.8714818051449784,47.42031345512824,93.91080706677627,0.5049505476127952,13990.391443133813,1.9803919507120076,4.852799975934298,743.9208255996482,0.5797101449275363,0.5909090909090909,0.8717948717948718,0.16666666666666666,48.15121412803532,48.01996680567151,48.283890844890955,51.515151515151516,0.5216354762125816,0.47836452378741867,34.26401009893182,32.81210642976475,0.47258127331415867,0.5274187266858412,64.55855883998609,68.20140881563466,0.48255464318403024,0.5174453568159698,51.68089544287931,53.51666325919217,1.1470245976665423,2.5359236040942865,1.4803581766721332,2.2413101640648616,-1.1421927649909556,-1.7102858970174726,-0.19993102861452125,0.012515461952522096,0.7725478048071273,0.38451016759971957,2.159484249353372,5.8367144929786985,1.3231847219422028,1.0794953938149472,1.1916528060220182,1.4729186415240472,2.4528702081974676,1.8402605494125082,2.976091825334039,1.0623520794396815,Stress
71.24194105272849,842.7,69.63868448507334,,,,,,,60.30394031397372,60.721714390039025,0.08263757503865354,0.07156038959769041,839.5,74.87129999999999,0.08918558665872542,101.75,1.1547949291953077,781.2,894.2,38.57142857142858,72.85714285714285,717.0,1022.0,11.666666666666666,187.5,,,0.026297608158301483,0.04424277573664993,0.006716361643922333,0.07725674553887374,0.5943932703236116,0.34039238871470656,0.5726720097779426,-3.118063181045296,42.93673601046936,88.82092221632753,0.4834079059199016,11981.03060866569,2.0686463497055327,4.78546428764824,734.9563060811399,0.6,0.6119402985074627,0.8780487804878049,0.10526315789473684,48.22888283378748,48.15504330688624,48.30987281515321,52.23880597014925,0.5176050023313924,0.48239499766860733,30.90295531270146,29.83336071857654,0.4635555450526979,0.5364444549473021,60.47364808844446,65.05454719106025,0.4738001119853957,0.5261998880146042,48.02111389890829,50.60693392213458,1.1023052125735358,3.445519305108173,1.6292396330721972,2.3763646675428394,-1.8329729729139288,-1.7421038446090598,-0.28316039809645305,0.01190007624067105,1.0877188857683093,0.40216212546753694,1.9095425048844386,5.757854445516395,1.2819587249846198,0.7064583091896484,0.963863163484938,0.9811113813566759,2.3383238797459676,1.8189813984620364,3.3566223401000257,0.9631730455199232,Stress
72.69212016527013,825.830985915493,70.72340205042114,,,,,,,60.86659886294664,61.30590574059687,0.08563907537571888,0.07370345736721376,812.0,65.2344,0.08033793103448275,103.5,1.1619410870922666,769.0,886.0,35.2112676056338,66.19718309859155,711.0,1022.0,11.833333333333334,54.6875,,,0.04339646684222341,0.02478648751425993,0.006649148861998481,0.07483210321848181,1.7508114781191553,0.5799177756038999,0.33122799504769546,-3.697456632596392,43.34982167595934,90.68796409831977,0.47801074935325966,12350.56541582892,2.0920031638472207,4.798656950258166,758.8780312661924,0.5774647887323944,0.5882352941176471,0.85,0.047619047619047616,49.84529702970296,49.81948361905334,49.87249745481328,50.0,0.5418652538059322,0.4581347461940679,31.910540714560952,29.341690179822557,0.48664381766697623,0.5133561823330238,63.26379750326534,64.97690941991605,0.4969147964728377,0.5030852035271622,50.10284763977899,50.412962323060675,1.1153421040027907,3.0816181335656627,1.6873935859453204,2.302770196841392,-1.1045055045310974,-1.2513049104730842,-0.3003073112163854,0.013628013762438884,1.0251072978687126,0.4566740068169852,1.6916760106710724,5.811718950490598,1.2119666720742406,0.9985652759162795,0.8708588699747819,1.0223928208673607,2.1478155092826694,1.8266740863310547,2.645853689480497,1.126010035965646,Stress
73.15497507713455,820.3333333333334,65.4550700647635,,,,,,,53.211377582480914,53.59001904128296,0.07979082088349879,0.06486555576897307,811.0,59.303999999999995,0.07312453760789149,83.25,1.2300953863354527,769.0,868.8000000000001,27.77777777777778,63.888888888888886,711.0,1012.0,12.0,54.6875,,,0.024966500210864922,0.011407843533783803,0.003232069268206605,0.03960641301285533,2.188538099854524,0.6303650927126718,0.28803021192757544,-4.473454130886039,37.89386586800738,85.09175187657465,0.4453294829676598,10129.925497264949,2.2455283969433952,4.712576361220817,764.3037807380391,0.5833333333333334,0.5942028985507246,0.8780487804878049,0.047619047619047616,50.12267788293025,50.10824761240911,50.137567790486884,49.275362318840585,0.5448558196912946,0.4551441803087055,27.971158615361542,25.564903397319647,0.4698907672779308,0.5301092327220689,58.329186694662496,61.95411380177876,0.4822973101582342,0.5177026898417659,45.74210169387993,47.391330972436506,1.2285963497631829,1.646593511852343,1.5132038479066143,1.801592785515779,-0.7495891431848527,-1.1933933688355776,-0.324857236753751,0.0007702734430752675,0.17728909425452505,0.5435525555970444,1.7227665977411033,5.8088138903312005,1.2150947295553098,1.0301654676348684,1.1943475972808215,1.4120952426165374,1.9416974208676518,1.7325161626878955,2.9199535058147776,0.9426274307759088,Stress
73.3397608694734,821.9577464788732,78.3201190389651,,,,,,,73.29139493438893,73.49134679559374,0.09528484812567938,0.08916686441408547,818.0,66.717,0.08156112469437653,88.0,1.0686127492740167,768.0,871.0,32.3943661971831,67.6056338028169,528.0,1012.0,11.833333333333334,250.0,,,0.027705145193895536,0.015250805468749119,0.004690891130503074,0.04764684179314773,1.816634882050458,0.5814686588079363,0.3200800912463078,-4.183122959700625,51.96622967769658,89.13061576510432,0.5830345637311525,14551.17246182409,1.7151641810057725,4.869868098004386,611.4945583651814,0.5915492957746479,0.6086956521739131,0.8809523809523809,0.05,42.763157894736835,42.293279988908154,43.07124472276434,49.275362318840585,0.2643731350428441,0.7356268649571557,26.839296303870494,44.77042890511353,0.48617322053786316,0.513826779462137,62.147322630544004,63.89035104397015,0.4295280763158733,0.5704719236841269,47.86772156804564,55.16506258887758,1.227285666596022,1.3724600666639013,1.4749644969463955,1.711402566434984,-0.3079639153658835,-0.8553544539933,-0.32772681316454716,0.0007397788736109358,0.13533063989537664,0.5875550941679943,1.8101086078962516,5.896225992744119,1.126467742231441,1.302332612500465,1.2645725959996046,1.4353340527249008,1.8916239754602617,1.8033001749555109,1.8346823047561234,0.9527777227401621,Stress
75.03901011009015,800.7297297297297,80.43670144686429,,,,,,,98.68720476111197,99.3415134843931,0.10045424624612613,0.12324658507986441,796.0,73.3887,0.09219685929648241,98.5,0.8150671775695145,737.6,854.2,29.72972972972973,67.56756756756756,526.0,1020.9999999999999,12.333333333333334,250.0,,,0.026228445620824162,0.01701666786684559,0.016373732621414113,0.05961884610908387,1.541338517391312,0.43993547900666,0.2854243075370899,-4.073561952509961,70.24505783814922,89.26512828565184,0.7869260839839084,19699.14970135393,1.2707673825442145,5.001417590540658,453.7408536961252,0.581081081081081,0.6027397260273972,0.8636363636363636,0.047619047619047616,47.8498632861049,47.731025650989636,47.98437125361212,47.94520547945205,0.4787997620115928,0.5212002379884072,48.620340393707636,50.72748542730831,0.5120477968783597,0.48795220312164034,63.875907661376104,62.35488391689326,0.499328182731498,0.5006718172685019,56.76296803182795,56.83928802363296,0.799645753130287,3.790664054011902,1.4185462365845662,1.8543793245578897,-1.8592964344027294,-0.9786031178698937,-0.3850246073607992,0.0067084433363892035,1.0149930249551333,0.5597295042677053,1.662547737748049,5.983035966951064,1.0973223675930808,0.8007481946737995,1.2927011843419778,1.6713478166929157,1.8199676276400116,1.7735728312469712,2.3354331861591113,1.0069383836155055,Stress
73.63911600158333,816.7777777777778,104.55825550855452,,,,,,,108.76580344942981,109.49548652531983,0.12801310020092377,0.13316449884979842,806.5,90.4386,0.11213713577185368,120.25,0.9613155255839988,725.8000000000001,904.6000000000001,31.944444444444443,69.44444444444444,526.0,1068.0,14.4,250.0,,,0.023892155003335504,0.016150440766889526,0.01081918710171689,0.050861782871941916,1.4793500281625431,0.46974670674620994,0.31753587575867254,-4.12580793761843,77.42500103137388,125.81323787642418,0.615396299612144,30602.537009228072,1.6249691469224856,5.192727541784416,817.770519294435,0.5833333333333334,0.6056338028169014,0.8837209302325582,0.09523809523809523,52.546296296296276,52.40204601508663,52.67220643020595,46.478873239436616,0.5658947769456978,0.43410522305430205,58.267364058156204,51.03346241158133,0.5177719508353003,0.4822280491646999,90.53064179463908,87.36803603836154,0.5309983878846302,0.46900161211536984,76.12779655958448,71.54574762665746,1.0979808576163013,1.29942892887714,1.0585090146484237,1.5921493507034306,-0.25373352479543243,-0.9426415820925511,-0.08932703113194877,0.0009067327015320768,0.12579449804836818,0.6002635240353671,2.120263536200091,6.058813890331202,0.9639293502857701,1.5069869533918698,1.1660154259540707,1.4502886282631142,1.9674904053880509,1.6714307944376865,2.4324041742638682,1.1140142363715286,Stress
72.41924481188664,832.7142857142857,154.2815178479989,,,,,,,197.75914936968223,199.20478202917394,0.18527545461245368,0.23748739845389874,808.0,104.52329999999999,0.12936051980198018,159.25,0.7801485713290152,728.6,924.0,35.714285714285715,67.14285714285714,526.0,1746.0,14.0,265.625,,,0.031063540927866735,0.015307994369518109,0.008608908590152366,0.054980443887537214,2.0292365007477207,0.5649925451931122,0.2784261691453545,-4.17938007923178,140.85905221761698,167.9539902439793,0.8386764256865663,74323.29597288689,1.1923549647665002,5.578095070784534,801.0430964790121,0.5714285714285714,0.5942028985507246,0.8780487804878049,0.15,50.62672961093928,50.707712279313576,50.50363891254162,46.3768115942029,0.5108565910159684,0.4891434089840314,100.6795294340355,98.51668267205247,0.5164420665478425,0.4835579334521573,120.69829393165334,116.79239992766178,0.5141356057771529,0.48586439422284705,111.14055471579807,108.04166197714837,0.6945021047463694,2.1080514685241374,1.3683109024925217,1.1165176053100354,0.35243217382259395,0.6178276862446318,-0.6194436193527897,0.003792587944056486,0.420878335214359,0.6720819552805146,1.2305398317106577,5.986425874087824,0.8078883592055975,0.7690916305522472,1.1848836195638595,1.4622226920131498,1.4929713676607514,1.7351982737223244,1.7252769865017688,0.9631730455199232,Stress
71.73885308299353,837.8142857142857,109.22524166212253,,,,,,,112.48491042119278,113.27321947680035,0.13036927577452517,0.13425995753377828,842.5,120.83189999999999,0.14342065281899108,160.25,0.9710212796821848,742.8,930.6,40.0,71.42857142857143,526.0,1068.0,17.5,335.9375,,,0.026441181422774865,0.013723943036742006,0.006304487108437861,0.04646961156795473,1.9266461068794896,0.5689994069373414,0.29533156343845973,-4.288613304625413,80.09626161887765,132.3328193001971,0.6052637738880121,33298.88443776522,1.6521722315815044,5.229399794199698,874.5464374987145,0.6,0.6231884057971014,0.9069767441860465,0.15,52.141445200966395,52.022125324169664,52.240593334097774,43.47826086956522,0.549816905619056,0.450183094380944,59.40984271789233,53.758104724119605,0.5042188538021702,0.49578114619782976,93.96737728888317,93.17782498742552,0.5164502547559909,0.4835497452440093,78.61105967456494,76.06589542270804,1.1283155770468671,1.3969393308489624,1.4413734687712516,1.598336668885004,-0.20085575567237157,-0.7584190419585743,-0.3876377830822753,0.0007651432817319608,0.1412626237376589,0.5758774327279412,1.6945957207744073,5.986425874087824,1.0454773318707926,0.7702225204735744,0.922271936014136,0.927374685329168,2.3066188756712944,1.6156561050948866,2.6304393588048,0.9631730455199232,Stress
72.88441295404037,825.0416666666666,113.09854079331645,,,,,,,113.22973033168415,114.0222982887218,0.1370822170112416,0.13724122660271804,813.5,125.27969999999999,0.15400086047940995,168.25,0.9988413861096073,728.4,928.8000000000001,43.05555555555556,73.61111111111111,526.0,1068.0,18.0,140.625,,,0.02232259245060105,0.013968338860785579,0.00485207633479117,0.041143007646177794,1.5980849743894048,0.5425610262276201,0.33950699426037817,-4.2709620203863725,80.62594032643045,139.02870525654717,0.5799229747385826,35215.11765802665,1.724366930713134,5.253699253723688,958.9460070570127,0.5694444444444444,0.5915492957746479,0.8809523809523809,0.14285714285714285,48.74258842772438,48.57436209837619,48.93501621923206,49.29577464788733,0.536416456751647,0.4635835432483531,59.05771995018335,54.90218574883881,0.47359715393862173,0.5264028460613784,95.67732404189469,100.87036507068936,0.489409721435201,0.5105902785647989,79.50460559468239,81.2067748081838,1.1119444769290587,1.5362145652872954,1.4228891917525242,1.481125373819765,-0.26329776604957544,-0.4442780183098409,-0.462091114494576,0.000491094259954186,0.14212913849606054,0.569162992494535,1.704748092238425,5.992773786134486,1.0869490190297126,0.9361285162777618,0.9969023685424133,1.2417660386966898,1.939598033241552,1.6386812094532344,2.6554480194989947,0.771240625180289,Stress
74.60469666151786,805.027397260274,101.02749524025897,,,,,,,71.22333809144926,71.70924463988699,0.12549572298294798,0.08847318530256429,776.0,84.5082,0.10890231958762887,150.0,1.4184605488518636,722.0,900.4,38.35616438356164,73.97260273972603,649.0,1068.0,18.25,15.625,,,0.02221625104058635,0.015041056157772,0.0015161832499057176,0.038773490448264065,1.4770406285004654,0.5729752669605477,0.38792112816981134,-4.196971739669864,50.70609315862918,134.24092475948493,0.37772455195371774,21384.296033534876,2.647431825195544,5.037065067908212,1421.5747858077632,0.5342465753424658,0.5555555555555556,0.9,0.08333333333333333,51.376396838375584,51.343765604830224,51.41604307269777,48.61111111111111,0.6411664690791509,0.358833530920849,40.609701886666734,30.380219658173527,0.47549038041790503,0.5245096195820953,92.5669177146127,97.22135375059229,0.4961839149662743,0.5038160850337254,71.47650712824397,72.02412572040245,1.4050855505019142,0.86309960053506,1.4506713854993265,1.5964998857470656,-0.035583766671097194,-0.3288326331090312,-0.3310409364604782,0.00028412795281321755,0.03717625410389181,0.5730913079602487,1.5939337258981352,6.0254409972361795,1.0702438046904112,0.8825392833351047,1.0939578375790227,1.3626598107984937,1.984452172114913,1.5857759534460405,2.2227259439520517,0.8479211724493175,Stress
72.75071498078447,825.6805555555555,106.8471102496511,,,,,,,83.13157736341574,83.70508735972622,0.12940490063709867,0.10068249373691625,797.0,100.8168,0.1264953575909661,161.25,1.2852770708603443,735.4,918.4000000000001,43.05555555555556,75.0,650.0,1156.0,18.0,93.75,,,0.013905447959278134,0.01847124452560756,0.002273344954921685,0.03465003743980738,0.7528159751228649,0.40131119579406244,0.533080074089243,-3.99154010612016,59.18843489187476,138.44925124761835,0.4275099674321492,25744.077859293844,2.3391267483341465,5.1176474501804865,1295.401387520555,0.5416666666666666,0.5633802816901409,0.875,0.09090909090909091,51.490186576205474,51.64510476129494,51.380258220667926,49.29577464788733,0.6344760542196299,0.36552394578037006,47.15619941065165,35.79225774222289,0.4740550968117782,0.5259449031882217,95.32460656885956,100.40624758210164,0.4988529851607037,0.5011470148392964,75.20135557410188,75.37406804665649,1.1900274608935673,1.9392869558871948,1.4353078521212554,1.5296193840604617,-0.5634980057133667,0.1061548566182835,-0.45136793363514366,0.0007007251568369225,0.19008037609070416,0.5926162336747023,1.6094379124341003,6.058813890331202,1.126955524162613,0.9195010945854777,1.144488880743647,1.2471865706476164,2.0078968972391493,1.6922196219453114,1.9698965573612761,0.9426274307759088,Stress
73.284924596194,819.1666666666666,88.93770568750774,,,,,,,71.67522604198061,72.14742340669798,0.1085709530264591,0.08749773270638528,803.5,92.6625,0.11532358431860609,128.25,1.2408430443653766,743.0,893.6,41.66666666666667,72.22222222222221,658.0,1156.0,12.0,117.1875,,,0.03270687117632417,0.017931293150428095,0.0035701855942500325,0.0542083499210023,1.8240107337458435,0.6033548562903651,0.330784707089578,-4.021207871800236,51.015932336013186,114.95959923703823,0.4437727051468063,18424.721916006223,2.2534058278081477,4.972371051743605,1036.202523532924,0.4722222222222222,0.49295774647887325,0.8,0.0,47.827232025283124,47.82919693411218,47.8586548528906,49.29577464788733,0.5138519154162703,0.4861480845837297,36.58922558037309,35.58922389070682,0.46924400149919254,0.5307559985008075,78.74891991723825,83.75151979880027,0.4765898913971647,0.5234101086028352,61.400992730993494,64.346367130366,1.2222755235104148,2.578245361828605,1.5239082738776646,2.2323993661191412,-1.4078764081990052,-1.6576501420922316,-0.22520416298199658,0.008285993307631984,0.6418227158516365,0.5067027780635422,1.62924053973028,6.031036112553425,1.2213719022416964,0.9356834781851154,0.7833294841266385,0.9423266758066378,1.8579030181778182,1.7135993574394766,2.597430405773767,1.0283208335737186,Stress
73.47437952055023,816.8055555555555,87.44714925235165,,,,,,,68.49200631882135,68.95918951752174,0.10705993446980648,0.08385350203970647,801.5,88.95599999999999,0.11098689956331877,124.0,1.276749710693195,743.0,893.0,40.27777777777778,70.83333333333334,658.0,1156.0,12.0,117.1875,,,0.037870155041239,0.020717039511451638,0.003435880768800995,0.062023075321491636,1.827971367255719,0.6105817043889245,0.3340214815867566,-3.8767987525207235,48.761510532967904,114.16503462437484,0.42711422716598607,17488.805029193532,2.3412940529639106,4.949730246086729,1069.175666489871,0.5138888888888888,0.5352112676056338,0.8421052631578947,0.0,48.36111111111109,48.29209281621503,48.459464582764625,52.112676056338024,0.5431107988663111,0.45688920113368886,35.94589187733617,32.96935806819071,0.46328956348254013,0.5367104365174598,77.70686196291301,83.63790250037054,0.4756106400974696,0.5243893599025302,60.541157649075224,63.569950865523175,1.3284332221407413,2.167933495347784,1.5873640619968836,2.1848109138807548,-1.101650676803839,-1.4545619231790452,-0.22441643013222246,0.005039537484642689,0.4320913635240846,0.579150217282729,1.7730673362159024,5.919925001442312,1.1949294613182853,1.0279194151480568,1.0572098829854788,1.4012581348507616,1.7772523494662147,1.6979500826736547,2.510399967131388,0.6855472223824791,Stress
74.44260540404439,806.8767123287671,96.28458184025212,,,,,,,76.89494998589525,77.42906794854424,0.1193299798706055,0.09529950339496712,779.0,72.64739999999999,0.09325725288831835,129.0,1.252157415511857,736.8,886.4,41.0958904109589,71.23287671232876,640.0,1156.0,12.166666666666666,148.4375,,,0.05890887289690462,0.021614732049567747,0.0046372027736519324,0.0851608077201243,2.7254038015281656,0.6917368972180838,0.2538107919385079,-3.8343801574433,54.75061900736959,125.57515877267475,0.4359988037640719,21599.447498099016,2.293584274467691,5.041412752242551,1152.0688376991613,0.4794520547945205,0.5,0.8055555555555556,0.0,50.82706766917293,50.79221266405287,50.8606614263749,52.77777777777778,0.6086008775638677,0.3913991224361323,42.71556763417594,34.25546116633536,0.4688009616949995,0.5311990383050003,85.98010732635285,91.52344860707181,0.49113399704849503,0.5088660029515047,67.88666501663273,69.10129616964369,1.4216001530891953,2.40017024720594,1.7814068760960395,2.3170890107657733,-0.9339209307402179,-1.1856736363854754,-0.276814942484465,0.0065005743004722324,0.5410423691218572,0.5144817972986186,1.6625477377480486,6.0254409972361795,1.1466468789145954,0.746075894432592,1.2405485422567297,1.4074566322924733,1.7516439963126418,1.743480166448813,2.17752261554841,0.6783369379594539,Stress
72.7986046790872,824.3661971830986,95.99616650629036,,,,,,,77.7575903506716,78.23964486745518,0.11644845074229652,0.09432408875615383,804.0,84.5082,0.10510970149253732,121.5,1.2345568589942966,749.0,898.0,39.436619718309856,70.4225352112676,640.0,1156.0,17.75,218.75,,,0.06153498364230332,0.017325418440586684,0.0029476657347231616,0.08180806781761317,3.551717025093657,0.7521872265641619,0.2117812937375908,-4.055580581783019,55.32378344340482,123.14001061929835,0.44927544804624653,21402.323887568746,2.2258060269010387,5.037431042037752,1096.3431111563686,0.49295774647887325,0.5142857142857143,0.7777777777777778,0.0,53.16292279886393,53.06457197269042,53.24208409601121,48.57142857142857,0.6296873855546656,0.3703126144453344,43.94553612060656,33.70051390826495,0.5130724037304156,0.4869275962695844,88.20404756976878,85.92734260775715,0.532690766620192,0.467309233379808,69.68200683324774,65.26573697320838,1.33522413499208,1.9936742916292483,1.7122089365253421,1.9607480760790534,-0.3499638379071559,-0.4954490825329385,-0.37533613660102777,0.0024816379000268244,0.32179007131879167,0.5169070257505224,1.8123787564307905,5.97010081665731,1.1590441489551975,1.0344713185172048,0.9648877593854601,0.9512022302802492,1.828260120399671,1.6887380999899446,2.0935319522409146,0.9527777227401621,Stress
70.4893932775948,851.9420289855072,99.28300074533982,,,,,,,83.97750048813845,84.60186544351883,0.11653727292168699,0.09857184835468075,833.0,91.9212,0.11034957983193278,128.0,1.1822571542167206,773.2,932.0,43.47826086956522,68.11594202898551,640.0,1156.0,13.8,273.4375,,,0.06087021714050325,0.023445641831271385,0.001946324201504018,0.08626218317327866,2.5962273747317774,0.705641973125472,0.2717951362786064,-3.753070650774725,59.822552756144006,128.11811513868784,0.46693281969833933,24078.274142816044,2.1416357082075477,5.0885954647604965,1097.5293209970396,0.4927536231884058,0.5147058823529412,0.7714285714285715,0.0,50.03652300949597,49.95402276004205,50.121184751614,51.470588235294116,0.604133866887985,0.3958661331120153,46.49771299142395,37.63909526725255,0.48360155715704306,0.5163984428429571,89.09521619882032,92.06679030560119,0.5051768017396507,0.49482319826034904,71.0633339456691,70.33134212324138,1.401674053620113,2.7996476496845473,1.8572566182102437,2.3641656708451007,-1.0623562109858362,-0.9990339525110263,-0.31893826793097574,0.00755700095215003,0.6964779856829035,0.4768516557878639,1.7707060600302227,5.894685507471452,1.1681521056502049,0.8450359931160807,0.8906163823145694,0.8763267788545823,1.8038956254648342,1.728664795842863,2.7319455991945456,0.8852933995330681,Stress
70.32589159273249,853.8260869565217,89.91776578396819,,,,,,,73.81853744546986,74.34468758715688,0.10531157006982729,0.08645617482665274,849.0,90.4386,0.10652367491166077,123.0,1.2180919440511935,777.4,922.8000000000001,43.47826086956522,71.01449275362319,640.0,1060.0,13.8,132.8125,,,0.044913751183044734,0.023367511670830107,0.003243432386916288,0.07152469524079114,1.9220596448491778,0.6279474667014037,0.3267055048911752,-3.7564086114605604,52.56963273807397,116.19413986392846,0.452429294623952,19189.737812404055,2.21029012020801,4.990039151012843,1027.291037469235,0.5072463768115942,0.5294117647058824,0.7777777777777778,0.058823529411764705,48.38625715773036,48.235433170616524,48.541603645919565,52.94117647058824,0.5809107690314782,0.41908923096852196,40.07949190847847,34.04244497243834,0.48725849603056176,0.5127415039694382,81.10804540033567,83.20194174450052,0.503179251824387,0.496820748175613,63.97218419088371,63.56670185622638,1.2525369264658472,2.0742049583870394,1.4997436668422877,1.9599715403629416,-0.9198809785539144,-1.113489988226668,-0.2781184199470142,0.0035315537595575364,0.3396788435269414,0.46253874897539626,1.5581446180465497,5.8657000002250745,1.19984716236686,0.0,1.087992986270425,1.3164173202957168,1.8991865857871848,1.7416326133898257,2.8842902015559435,0.8852933995330681,Stress
70.49363712879209,852.1884057971015,95.43835019072273,,,,,,,79.38384040626315,79.96694883549044,0.11199207773949198,0.09315292236581277,840.0,102.29939999999999,0.12178499999999999,129.0,1.2022390161813452,769.8,941.4000000000001,46.3768115942029,72.46376811594203,640.0,1060.0,11.5,148.4375,,,0.056541920085951186,0.026562495033539614,0.0035313385642382843,0.08663575368372908,2.1286373894680266,0.6526395590942984,0.3065996878206679,-3.6282550192701453,56.545171792372976,123.1393441125992,0.45919662963827224,21874.70659716389,2.1777163320814017,5.04691234655501,1072.6502431831964,0.4927536231884058,0.5147058823529412,0.7714285714285715,0.0625,50.86538461538461,50.88492201354563,50.84046420533116,51.470588235294116,0.5801895818651083,0.41981041813489167,43.074388969254414,36.640447432580594,0.5181156884981744,0.48188431150182576,88.63601197399471,85.48073145350939,0.5289269331430947,0.4710730668569052,69.684092889729,65.76274719735594,1.3725444609942563,0.6480375889017216,1.4951069538677173,1.4345090726528213,0.6435188763624602,0.2988129723194488,-0.5935098245112537,5.451831252978911e-05,0.02263750524666932,0.4794733721294988,1.5224265354444704,5.8476548915607784,1.2837373359673767,0.867084171124946,1.0820399725034118,1.2914115019153876,1.8789513341547506,1.7614255403202732,2.664956434102054,0.8852933995330681,Stress
69.98847891567618,858.2352941176471,95.94543188663128,,,,,,,73.57329577194615,74.00631031561419,0.1117938548370618,0.0857262527843101,857.5,108.97109999999999,0.12708,147.25,1.3040795696312375,779.0,949.8,45.588235294117645,72.05882352941177,640.0,1060.0,11.333333333333334,156.25,,,0.05568275079960009,0.024798942532682233,0.007242712330092145,0.08772440566237447,2.245367951726831,0.6347464012911832,0.28269148528775556,-3.6969542665315034,52.33036387476672,123.38578254498326,0.42411988476620816,20284.70738047914,2.357823898191522,5.014138857079295,1163.6877871264953,0.45588235294117646,0.47761194029850745,0.71875,0.06666666666666667,46.35403246585931,46.49336035913893,46.21076941501141,52.23880597014925,0.49678084665800865,0.5032191533419912,36.94477861168837,37.18341109427779,0.4891230064500844,0.5108769935499156,86.29272135558631,88.19080210138152,0.4902937491986651,0.5097062508013349,66.37526054796142,67.67652338843618,1.169916668976115,1.391725863871918,1.3943084232390985,1.402866793892358,-0.04958786353706657,0.16208600076692026,-0.49385053416378333,0.00022652440306689779,0.09823015030787136,0.495347713701884,1.7047480922384253,5.793345194191517,1.2508309533871742,0.0,1.092796392693007,1.4377343793982587,2.080214260717309,1.754476311122057,2.1224038760289066,0.8056936113419567,Stress
69.97049323099257,858.463768115942,81.92259253676875,,,,,,,69.52718469609356,70.03988578948956,0.09542929542217381,0.08099023776936312,856.0,96.369,0.11258060747663551,127.0,1.1782814577471543,786.0,935.0,43.47826086956522,73.91304347826086,734.0,1060.0,11.5,85.9375,,,0.057719930441667636,0.01826111580272639,0.00436175617375978,0.08034280241815381,3.1608107119637254,0.7184206762076495,0.2272900030009435,-4.00298129928977,49.52567819527936,105.47583140064644,0.46954527437814375,16410.932585084025,2.1297200814647317,4.922103371395611,898.5359849725801,0.4927536231884058,0.5147058823529412,0.8,0.05555555555555555,50.69444444444445,50.71330332591225,50.670642260481124,51.470588235294116,0.5442664443863054,0.4557335556136946,36.539489984921914,33.43583741856329,0.5169346354799271,0.48306536452007287,75.83518894178673,73.30876569565949,0.5218724898776592,0.4781275101223408,59.52356764423106,56.9742501122292,1.3953849289723728,1.2883501311362364,1.552491274908704,1.845185376306024,-0.4912167720550684,-0.9501605099119317,-0.27281478510877805,0.0006801480058392408,0.10864219642931419,0.5126289462923763,2.8622008809294686,5.749757971239569,1.3329237832487064,0.0,1.3532827088262083,1.7849939030671793,2.0296174512142584,1.7675533366491762,2.7456894134543104,0.7967640595797612,Stress
70.30480368249384,853.2647058823529,75.57572413822233,,,,,,,68.86608246032901,69.38295918217686,0.08857242496637686,0.0807089312209571,849.5,86.73209999999999,0.10209782224838139,117.5,1.0974302797281734,785.4,917.2,44.11764705882353,77.94117647058823,734.0,1048.0,11.333333333333334,132.8125,,,0.055098978119834496,0.014843188962502196,0.005293324148250942,0.07523549123058763,3.7120714597805784,0.7323535371220323,0.19728971951561566,-4.210214174671895,49.061160936506695,92.87539129639083,0.5282471519278888,14314.901035785982,1.8930532731703402,4.862758459891143,703.2722539624351,0.5147058823529411,0.5373134328358209,0.8333333333333334,0.125,49.435787211176795,49.48771067325887,49.37633476530745,53.73134328358209,0.5283713611329662,0.47162863886703377,35.66362207339489,33.69425812068029,0.48124339702338786,0.518756602976612,64.42924591935453,66.89327753011544,0.4915258160977825,0.5084741839022178,52.072169482030425,52.96231494668675,1.1891285507794873,1.2181592367302114,1.3418436209140654,1.617466669861614,-0.43325755633037133,-0.9510145597801252,-0.27373807903195213,0.0005204768816103613,0.09503806465779274,0.4688315859788479,2.70805020110221,5.881580488309163,1.3592554040107856,0.0,1.21887006451505,1.530901184238495,2.1971451707955154,1.8610202715629456,2.634842285792306,1.0742581484559421,Stress
71.43956482205907,839.9857142857143,71.23943966634742,,,,,,,61.674578419219095,62.08832020228399,0.08481029909767716,0.07342336586243536,823.5,67.4583,0.08191657559198542,93.75,1.1550859607359345,779.2,901.0,41.42857142857143,75.71428571428571,734.0,1048.0,11.666666666666666,39.0625,,,0.04671450029633821,0.012507467760237997,0.0037372489134676473,0.06295921697004386,3.73492869954432,0.7419803254313833,0.19865983667155643,-4.381429392239616,43.90307224751672,90.183928047576,0.4868170326796578,12438.669612515481,2.0541598441935247,4.801744042499817,741.008814347875,0.5142857142857142,0.536231884057971,0.8378378378378378,0.05263157894736842,47.842455835505355,47.92149843892599,47.76602602931139,53.62318840579711,0.4880152709566066,0.5119847290433935,30.68866431839383,31.433286029116253,0.5431244992531284,0.4568755007468716,66.46283222048228,60.95763128044253,0.5325558374095509,0.46744416259044935,51.7643805353403,48.496826091563044,1.3174258348478773,1.3794242797089238,1.5288608015587544,1.6031230736799569,-0.25729063135420915,-0.19396157784431978,-0.4461642996911198,0.00019239832673560253,0.09364691484676817,0.510612426814316,2.833213344056216,5.814997302659252,1.3493737963996064,1.3077771542136467,1.2808739346626388,1.7279960001822923,2.1262609257549765,1.820738098086835,2.776122653946599,1.05073423147628,Stress
71.25080910562525,842.5428571428571,70.55775426819224,,,,,,,61.4444488123628,61.88663562696078,0.08374381631749903,0.07292738676905619,825.0,71.1648,0.08626036363636364,103.75,1.1483177997683627,782.4,901.2,41.42857142857143,75.71428571428571,734.0,1048.0,11.666666666666666,54.6875,,,0.05803916252624035,0.012983861482395215,0.006027088613629976,0.07705011262226555,4.470100255223417,0.7532651225414106,0.16851190790658502,-4.344048117157375,43.76045971664495,90.19023656903508,0.4852017400259175,12399.131744010907,2.0609983796566436,4.8003613844798965,743.5277257185227,0.5142857142857142,0.536231884057971,0.8378378378378378,0.05,51.00235849056604,51.03903163759451,50.959541170698685,50.72463768115942,0.5253201486349537,0.4746798513650463,31.72121205309858,30.153528717509115,0.5686878636875171,0.4313121363124828,68.01371639384705,59.23185928768282,0.5604220274281858,0.4395779725718143,53.06647205072288,46.99813000957328,1.0840025105836568,0.7262125945028224,1.1538414387109974,1.2207275530148163,0.16278504830628293,-0.20274479612651763,-0.4078973363858964,3.931560509555728e-05,0.021382174497475318,0.49375263101019096,2.2772672850097555,5.9007115883735395,1.3381143140878355,0.9359010884507957,1.1659610260508084,1.4508280998154426,1.9356886153847013,1.881822842091327,2.513328002471039,1.05073423147628,Stress
71.91153756853545,834.4225352112676,68.90027202347939,,,,,,,55.96618877245694,56.324997851955345,0.08257240081134017,0.06707176090143209,815.0,66.717,0.08186134969325153,108.0,1.2311053072348532,776.0,899.0,40.845070422535215,77.46478873239437,701.0,1012.9999999999999,11.833333333333334,109.375,,,0.056441257549963895,0.02682023504265943,0.009156374146712278,0.09241786673933561,2.1044281476351787,0.610718030412413,0.29020616888188777,-3.6185986374586006,39.82778793143534,88.47882213769408,0.4501392194106498,11070.707877695553,2.221534931591302,4.7511455011700665,786.2351763397647,0.5633802816901409,0.5797101449275363,0.9,0.047619047619047616,47.610350076103494,47.67486233886666,47.55047693042463,55.072463768115945,0.5030307176575219,0.49696928234247784,28.270433164427242,28.09958997070489,0.46036622442262504,0.5396337755773751,60.033139959315314,64.99633892381142,0.46756419909650737,0.5324358009034929,46.921185431951145,50.070505439932916,1.3035927368449314,0.19170822897213968,1.3759101473723918,1.3994468513310012,0.6276092685210823,-0.37384109183869296,-0.37722642849081917,2.4715355095534174e-05,0.0029104092265392506,0.4750631218648791,2.772588722239781,5.913762788488296,1.2765162665071064,0.9678002527269727,1.2424533248940002,1.3823416066836713,1.9369835871428083,1.787959675075802,2.558160737745333,0.9527777227401621,Stress
72.3082670442048,830.7323943661971,61.0397897736688,,,,,,,55.92469426444304,56.31730571853953,0.07347707900597615,0.06731974657989652,815.0,56.3388,0.06912736196319018,96.5,1.0914639870007825,778.0,894.0,39.436619718309856,73.23943661971832,701.0,986.0,10.142857142857142,109.375,,,0.04164147976873446,0.01569565616818542,0.005868699019661224,0.06320583495658111,2.6530575926567743,0.658823347517517,0.24832606323399511,-4.154371282095711,39.822348771735236,76.80208761827949,0.5185060719919443,9608.37112601198,1.9286177231412178,4.689619879425987,592.487469419434,0.5915492957746479,0.6086956521739131,0.8809523809523809,0.047619047619047616,51.21042830540037,51.16879569772815,51.24814493428982,52.17391304347826,0.5380898003928195,0.46191019960718027,29.21732660448323,27.070225367537585,0.46867655430315275,0.5313234456968472,52.578675208308084,55.98252920211026,0.48338870497139463,0.5166112950286053,42.533335518001614,43.97067589493254,1.2355107856034766,1.3612400744801043,1.3864772375807886,1.7939027244257586,-0.6201956029665627,-1.332541304593069,-0.2006953479528016,0.0012394104688726916,0.14805153771913884,0.4710907738203769,1.8607523407150062,5.896225992744119,1.3553406549794165,0.8133668568143856,0.8675475632872767,0.8675475632872767,1.8034996912661538,1.771125886392594,3.3762857844722984,1.039393879352904,Stress
71.87251773263988,835.4285714285714,63.653630525595524,,,,,,,56.181512251278704,56.59079721183259,0.07619278619684827,0.0672487321749232,824.0,69.6822,0.08456577669902912,101.5,1.1329995931917398,777.8,899.2,40.0,74.28571428571429,701.0,986.0,10.0,125.0,,,0.022727276106110715,0.01845262587078469,0.0031132277866999574,0.04429312976359536,1.23165538960468,0.5131106387697697,0.4166024385558537,-3.99254859500288,40.01573646123959,81.31552377930139,0.4921045158590674,10222.43012547024,2.0320886473766633,4.716524260616248,660.9614109096218,0.5714285714285714,0.5882352941176471,0.85,0.05263157894736842,49.451926088318196,49.438351056396854,49.46838950007934,54.41176470588235,0.5312986422638425,0.46870135773615756,29.16875342675083,27.39659704072323,0.4523251129229902,0.5476748870770097,54.68885287281516,60.17760197081391,0.46772242148301135,0.5322775785169888,43.82742751414354,46.75423675117299,1.2500168629026414,1.0037728038109828,1.3880322043397832,1.7519032648081327,-0.7642947529846005,-1.776394668684744,-0.1374965937641912,0.0012117566342959808,0.10006507184227022,0.4253685893972179,2.079441541679836,5.872140159802109,1.3694837264368347,0.6931471805599454,0.845196596100507,1.3717125458353174,2.0178096274040356,1.759454750986843,3.521546519094391,0.9631730455199232,Stress
71.55897525613989,838.6285714285714,66.32117099816082,,,,,,,55.94860477984768,56.35780755399615,0.07908288992012909,0.0667144033556374,824.0,74.13,0.0899635922330097,108.25,1.1853945466402278,777.0,903.4,38.57142857142858,71.42857142857143,701.0,986.0,10.0,132.8125,,,0.030418548543543145,0.014693717554634698,0.002198363708287913,0.047310629806465755,2.07017376170733,0.6429537858188893,0.31057962269245815,-4.220335253784861,39.85098789423711,85.19595661190677,0.4677567983157975,10666.156418461682,2.1378631023655763,4.73497805825452,728.5491684453361,0.5142857142857142,0.5294117647058824,0.7777777777777778,0.05263157894736842,49.69482814005782,49.69295802152224,49.69876538186294,57.35294117647059,0.5654553283299458,0.4345446716700544,29.967016181520798,26.270090351173586,0.3908888027124499,0.6091111972875504,53.26544978740115,66.49167528317925,0.42222733447006316,0.5777726655299366,43.21591257787855,50.55324187934229,1.2480121579060202,1.507463803116769,1.4062965143326256,1.8353003294754666,-0.6834793667117296,-1.2807306318328866,-0.21541352153474552,0.0017642329987193886,0.18389700448153284,0.4804221883535611,2.0281482472922856,5.832784624056917,1.3126935401571502,0.819753334198075,0.9613885909285289,1.621709717126016,2.0546198767319397,1.781618934321427,2.8627563993723277,0.7880506736072099,Stress
70.3677460585222,853.2463768115942,73.1369396078949,,,,,,,67.15051136417792,67.64779125075876,0.08571608575847994,0.07870002520855175,841.0,83.0256,0.09872247324613555,107.0,1.0891494066404162,787.8,915.6,40.57971014492754,75.36231884057972,701.0,1083.0,13.8,210.9375,,,0.05236785749310041,0.019093214631750396,0.006137474316191122,0.07759854644104193,2.7427470178865065,0.6748561654165601,0.24605118919665717,-3.958422261929696,47.834211925703514,92.40475900294082,0.5176596145246282,13886.18141297088,1.931771326063961,4.849552944664376,714.0194553349269,0.5217391304347826,0.5373134328358209,0.7777777777777778,0.05555555555555555,50.49476957873904,50.477990635354786,50.51435933477349,58.2089552238806,0.6078630248675093,0.3921369751324909,37.29531201783225,29.955065851192078,0.3844878205359812,0.6155121794640189,57.29749459151914,72.49576953123821,0.43169783913100707,0.5683021608689931,48.342234045256056,55.465947076001775,1.2857644502227243,1.539235798721906,1.4622761082419569,1.6768024494662637,-0.1952637409049185,-0.16470071094967853,-0.3606280198248785,0.001714165958545133,0.16047401482617898,0.4527202215203121,2.6741486494265287,5.8657000002250745,1.320515787101775,1.13648770658203,0.0,0.0,2.0465798388482237,1.8866014135656428,2.53942199405558,0.9738227394863748,Stress
