PPG_Rate_Mean,HRV_MeanNN,HRV_SDNN,HRV_SDANN1,HRV_SDNNI1,HRV_SDANN2,HRV_SDNNI2,HRV_SDANN5,HRV_SDNNI5,HRV_RMSSD,HRV_SDSD,HRV_CVNN,HRV_CVSD,HRV_MedianNN,HRV_MadNN,HRV_MCVNN,HRV_IQRNN,HRV_SDRMSSD,HRV_Prc20NN,HRV_Prc80NN,HRV_pNN50,HRV_pNN20,HRV_MinNN,HRV_MaxNN,HRV_HTI,HRV_TINN,HRV_ULF,HRV_VLF,HRV_LF,HRV_HF,HRV_VHF,HRV_TP,HRV_LFHF,HRV_LFn,HRV_HFn,HRV_LnHF,HRV_SD1,HRV_SD2,HRV_SD1SD2,HRV_S,HRV_CSI,HRV_CVI,HRV_CSI_Modified,HRV_PIP,HRV_IALS,HRV_PSS,HRV_PAS,HRV_GI,HRV_SI,HRV_AI,HRV_PI,HRV_C1d,HRV_C1a,HRV_SD1d,HRV_SD1a,HRV_C2d,HRV_C2a,HRV_SD2d,HRV_SD2a,HRV_Cd,HRV_Ca,HRV_SDNNd,HRV_SDNNa,HRV_DFA_alpha1,HRV_MFDFA_alpha1_Width,HRV_MFDFA_alpha1_Peak,HRV_MFDFA_alpha1_Mean,HRV_MFDFA_alpha1_Max,HRV_MFDFA_alpha1_Delta,HRV_MFDFA_alpha1_Asymmetry,HRV_MFDFA_alpha1_Fluctuation,HRV_MFDFA_alpha1_Increment,HRV_ApEn,HRV_SampEn,HRV_ShanEn,HRV_FuzzyEn,HRV_MSEn,HRV_CMSEn,HRV_RCMSEn,HRV_CD,HRV_HFD,HRV_KFD,HRV_LZC,Labels,HRV_DFA_alpha2,HRV_MFDFA_alpha2_Width,HRV_MFDFA_alpha2_Peak,HRV_MFDFA_alpha2_Mean,HRV_MFDFA_alpha2_Max,HRV_MFDFA_alpha2_Delta,HRV_MFDFA_alpha2_Asymmetry,HRV_MFDFA_alpha2_Fluctuation,HRV_MFDFA_alpha2_Increment
92.34029726546412,651.054945054945,48.63317629340938,,,,,,,65.09130339590519,65.42471347727111,0.07469903525470502,0.09997820290023583,657.0,28.1694,0.04287579908675799,36.5,0.7471532102776856,621.0,672.0,28.57142857142857,52.74725274725275,508.0,786.0,5.6875,171.875,,,0.037657192595767636,0.06334589999729587,0.02718508655725753,0.12818817915032105,0.5944692963139707,0.29376493874375564,0.4941633496721466,-2.7591450941626707,46.262258556965314,48.93334468664718,0.9454137838566603,7111.8339147144425,1.0577379101885571,4.558951715802847,207.0346149895621,0.6593406593406593,0.6704545454545454,0.8813559322033898,0.29411764705882354,52.32110797640422,52.54214758972255,52.1214720328185,48.86363636363637,0.5469069204524296,0.4530930795475705,34.228741454704895,31.155012942713956,0.4983700740311661,0.5016299259688339,34.54465658614165,34.657451198375256,0.5212892298166409,0.47871077018335917,34.38706181274792,32.95279771907415,0.6841672139888648,1.6574540602382841,1.048997482958736,1.1469364613889366,-0.40783183151867064,-0.5662058802870198,-0.44090998913350254,0.0008734576029539036,0.1779214875695424,0.6184516804286146,1.2078115806331013,5.732747112583522,0.9490667661564784,0.8968931143603059,0.8954116044045531,1.0665597115951713,1.5950972116590367,1.9408057888807089,2.4206119643002753,1.215741855861295,Relax,,,,,,,,,
92.19870847746368,650.8901098901099,45.05489258164251,,,,,,,62.97265720577111,63.323176792554584,0.06922042891272254,0.09674852367383922,657.0,23.7216,0.036105936073059355,33.5,0.7154675470406142,627.0,670.0,24.175824175824175,45.05494505494506,526.0,786.0,5.055555555555555,156.25,,,0.03913845597602038,0.044316219099763667,0.015148107952411347,0.0986027830281954,0.8831632474763421,0.39693054064030586,0.4494418690706881,-3.1164045493029944,44.77624771628996,43.6803135035143,1.0250898888966877,6144.454265015407,0.9755242060540739,4.495453425952794,170.4448126028353,0.6813186813186813,0.6896551724137931,0.9,0.3333333333333333,49.32470455824422,49.224806081518956,49.41607139733675,50.57471264367817,0.500680862986831,0.49931913701316905,31.684274623651497,31.641158660016146,0.4376508247719145,0.5623491752280857,28.89679136609072,32.75584278430213,0.46994776547269984,0.5300522345273003,30.322580774748886,32.20332403540225,0.5828153033761874,1.9796463206897938,1.0673794557095169,1.108003684262516,-0.3675043024640612,-0.3051803383810838,-0.47947904727807955,0.0018102962949913086,0.28466014925271005,0.6867098946000842,1.1067094989007293,5.706763288664838,0.9634048502725965,1.1389631602719859,1.0666136572335019,1.080389796771345,1.5183514964137053,1.9481110594446271,2.7737256608908307,1.0727134022305544,Relax,,,,,,,,,
92.7846292095097,647.7912087912088,39.43870532118768,,,,,,,57.86824114601491,58.16357750186307,0.060881816217884605,0.0893316246974055,655.0,22.238999999999997,0.03395267175572519,32.5,0.6815259033305461,627.0,669.0,20.87912087912088,43.956043956043956,526.0,768.0,5.352941176470588,156.25,,,0.04573692502754649,0.02762590292135208,0.012693340322824724,0.08605616827172329,1.6555811825501057,0.5314775912765678,0.3210217637639058,-3.589001434742539,41.12786006963668,36.07604328188451,1.1400324516821092,4661.276712928744,0.8771680126513132,4.375474995200944,126.57900475957356,0.7032967032967034,0.7126436781609194,0.9193548387096774,0.4117647058823529,52.492401215805465,52.425662089164874,52.564844371490224,49.42528735632184,0.595916864087914,0.40408313591208617,31.764671917437962,26.156937765312417,0.40834330468834984,0.5916566953116502,23.053221276775073,27.749412383696512,0.5143973093685841,0.48560269063141587,27.752886275650923,26.96493353319155,0.7360461774845148,2.185644071876733,1.1594948382654215,1.671925599049724,-1.0666008053656064,-1.7527155766192921,-0.2655470223272461,0.0032401798728453183,0.42515314004982807,0.699008298671778,1.4434527749598394,5.698467821608096,1.0959198956819338,1.3609504285412426,1.449455470557301,1.7088190352997514,1.6368518799273326,1.949941582003261,2.6247556281798623,1.0727134022305544,Relax,,,,,,,,,
93.47492977112941,642.3913043478261,36.29366079172224,,,,,,,47.93287430939688,48.19619802716293,0.05649774607171651,0.07461631872190377,649.5,27.428099999999997,0.04222956120092378,42.5,0.7571768084979443,615.2,667.8,20.652173913043477,42.391304347826086,526.0,768.0,7.076923076923077,156.25,,,0.04878065369851609,0.03974612811320169,0.012460872404478568,0.10098765421619635,1.227305803462994,0.48303581340829554,0.39357412964670313,-3.2252428485832545,34.07985845241661,38.61458694310124,0.8825643662234023,4134.272023394159,1.1330618346615542,4.323369158540522,175.01085890579353,0.7391304347826086,0.75,0.9242424242424242,0.47058823529411764,49.276361130255,49.28000462256881,49.278099827552325,50.0,0.5349199820162811,0.465080017983719,24.926558794453225,23.24244202124878,0.46209698544799843,0.5379030145520015,26.249314195355574,28.320660816086704,0.4939850069822636,0.5060149930177361,25.596482464001074,25.906282444331335,0.9006322700735357,1.1253037072091328,1.223217284738067,1.2984037408484808,0.38865651968149173,-0.2821658553233881,-0.43318563190653303,0.0013181030361112695,0.130345165792733,0.6104729288553701,1.3776362983767756,5.882045108136863,1.1192437011741432,1.610692784423617,1.3716313346333529,1.754042519957122,1.720850192468676,1.9053366263479106,2.978570305343008,1.1345325140968718,Relax,,,,,,,,,
95.03297919385349,631.7765957446809,39.31432589457052,,,,,,,47.96683442026455,48.22681431992311,0.06222820876773753,0.07592372801294672,636.5,39.2889,0.06172647289866457,55.75,0.8196147686152372,602.6,663.4,20.212765957446805,45.744680851063826,526.0,768.0,9.4,164.0625,,,0.04462812067374693,0.036838662951187116,0.011878092140781633,0.09334487576571567,1.2114478946448515,0.4780993097656277,0.3946511541099235,-3.301207361652482,34.101507440642116,44.18145200491119,0.7718512156832557,4733.293496934985,1.2955864805042552,4.382133544526428,228.96356762644228,0.7553191489361702,0.7666666666666666,0.927536231884058,0.5294117647058824,49.967018469656985,49.95613699964764,49.98091185078352,51.11111111111111,0.5385417056118444,0.4614582943881557,25.0255304421913,23.165402426144407,0.4023327119761522,0.5976672880238477,28.024163429408574,34.15621415414874,0.4531845904929966,0.5468154095070036,26.567187561268547,29.182895974434132,0.7644475210606403,1.6999670229006396,1.1499049984342786,1.4141987415462922,-0.32240206956050343,-0.9233215214927206,-0.3445300764358056,0.002035173992096136,0.25774094453393287,0.5264059864364752,1.3862943611198906,6.003796963264686,1.1333880721499063,1.504784222158712,1.0955066586684703,1.1378587357416727,1.815200530399277,1.8937845796069759,3.314146770510611,0.9762153608881589,Relax,,,,,,,,,
96.30652796679054,623.5957446808511,39.27660912945903,,,,,,,47.44289153276018,47.699143335020295,0.06298408779161944,0.0760795626612893,621.0,35.5824,0.05729855072463768,54.5,0.8278713177154858,595.0,656.6,20.212765957446805,40.42553191489361,526.0,768.0,8.545454545454545,93.75,,,0.03562294949965131,0.03393639375244683,0.008681887107018504,0.07824123035911665,1.0496975535912054,0.4552963870346465,0.4337405431469237,-3.383267278432249,33.728387708981955,44.177905721114634,0.7634673296172485,4681.128664261023,1.309813742130044,4.377320688156237,231.45931204816574,0.7127659574468085,0.7222222222222222,0.9076923076923077,0.47058823529411764,50.45996592844975,50.47733379682076,50.44573663944115,52.22222222222223,0.5460881778270361,0.4539118221729637,24.9249961842045,22.72424485759265,0.397869611940081,0.6021303880599189,27.866056235607253,34.28075646448991,0.45245107288989916,0.5475489271101006,26.436457070763424,29.082310500762254,0.9173173587438792,1.8819699618701464,1.356839681331102,1.6020740528213941,-0.3903315247366379,-0.8753478159270185,-0.3696927281205921,0.0022533301882100014,0.30706332560657734,0.6018143999025467,1.6835458845878222,5.956028612246888,1.0383368706590843,1.2208593116717747,1.2434178101898536,1.5053098096921418,1.7757794469816617,1.8614032283838862,2.5102563310203263,1.1156746981578958,Relax,,,,,,,,,
97.09905578343209,618.21875,35.699094231469914,,,,,,,37.627397632995816,37.82683477230652,0.05774508494197226,0.06086421292300794,616.5,31.875899999999998,0.05170462287104623,43.25,0.948752676963369,595.0,653.0,12.5,35.41666666666667,533.0,715.0,7.384615384615385,85.9375,,,0.028276069533916696,0.027968935111135896,0.0035627910159358586,0.059807795660988455,1.0109812698109666,0.47278233918192486,0.4676469815017698,-3.576660845030197,26.74761137832103,43.07230047616531,0.62099333173816,3619.3696907093076,1.6103232496893334,4.265603055168657,277.4413074974958,0.65625,0.6630434782608696,0.9016393442622951,0.2727272727272727,50.23354564755839,50.20807289562724,50.25768899501363,53.2608695652174,0.5850501475803513,0.41494985241964855,20.458962557670667,17.229983761615443,0.38543317581651426,0.6145668241834856,26.740690325165936,33.76623386228685,0.4409885625177624,0.5590114374822376,23.80791536446013,26.805138403561536,1.038015713373656,1.859226660242061,1.4758997024929863,1.4942747292213936,-0.00558467507357463,0.129055802656445,-0.49011684421198276,0.0016379113053583436,0.2610689635649991,0.640500159448373,1.5040773967762742,5.993765755906954,0.9984258735021113,0.9253254935281234,1.0280553186122592,1.3651215623523172,1.860742846460406,1.791441736450502,2.934662636816422,0.9603070313551686,Relax,,,,,,,,,
98.42961478382655,609.7628865979382,33.61850098156405,,,,,,,33.88599145172923,34.06232516452796,0.055133727749703494,0.05557240723650794,608.0,29.651999999999997,0.04876973684210526,38.0,0.9921061636769216,582.0,636.8,9.278350515463918,27.835051546391753,533.0,715.0,6.466666666666667,85.9375,,,0.04517198419210154,0.03265375829258994,0.008317090903241973,0.08614283338793347,1.3833624842611865,0.5243847040493219,0.3790652920079588,-3.421795321382183,24.085701106818906,41.169833717581774,0.5850327516997716,3115.216814116046,1.7093060125173678,4.2004583882113575,281.4873772312111,0.5979381443298969,0.6021505376344086,0.875,0.23809523809523808,49.248666989820656,49.22711227536068,49.27207746110924,52.68817204301075,0.5878094581477417,0.41219054185225834,18.46704034076301,15.464220163433973,0.3998637767383406,0.6001362232616595,26.033654968261516,31.893636000413085,0.44779123208915783,0.5522087679108421,22.569700595642114,25.063380883173,1.1533282153407134,1.8829093155154788,1.5855822823099608,1.499100869634504,-0.08947114538251633,0.30772176219373515,-0.5459296748721969,0.001014481329428317,0.22997730673473643,0.64217310527573,1.4816045409242156,5.903935780286851,0.9194449419020997,0.885188360636628,1.001980283879704,1.1773820702227473,1.7746106472469236,1.7002302918342478,2.8600988689659657,0.8845244015302336,Relax,,,,,,,,,
99.82828666980036,601.295918367347,27.844638634650988,,,,,,,28.447093232913303,28.591866769429814,0.04630771269869154,0.047309639669854284,603.5,22.9803,0.03807837613918807,34.25,0.97882192766306,579.2,621.0,6.122448979591836,25.510204081632654,525.0,680.0,6.125,109.375,,,0.0426112180575455,0.039141637560180555,0.006604904740460498,0.08835776035818654,1.0886416796443543,0.48225778793857216,0.4429903768668124,-3.2405684793564413,20.217502879446123,33.82961527147194,0.5976273367937256,2148.6933766381,1.6732835639095867,4.039144555078593,226.42615682855495,0.6224489795918368,0.6315789473684211,0.8833333333333333,0.21052631578947367,48.89012208657047,48.89302085435107,48.8900256212132,52.63157894736842,0.5993299021606197,0.4006700978393804,15.653307690921642,12.79872226695566,0.39414697316479214,0.6058530268352078,21.238613253700674,26.33180921386788,0.44815257799926506,0.551847422000735,18.65616164443984,20.702312288029617,1.119459214317295,1.262668429189719,1.442362784700561,1.077639850699334,0.8614213584835415,1.4646760734561872,-0.7888509172873494,0.0007515493430295838,0.12261078406529471,0.6179640908378476,1.4628344382422251,5.706347088924861,1.039196370396774,1.5143927496819598,1.1721536891475446,1.4932952407998683,1.7898357916600145,1.6897908975049525,2.5463761686036492,0.9449585491593154,Relax,,,,,,,,,
100.10949748911672,599.5612244897959,33.49567330930862,,,,,,,37.341555304744865,37.5355329935969,0.055866977284617064,0.06228147148195103,603.0,31.1346,0.05163283582089552,42.5,0.8970079857667964,570.0,627.0,11.224489795918368,26.53061224489796,517.0,710.0,8.166666666666666,132.8125,,,0.05496774610229856,0.02776731944943491,0.0055696336870787715,0.08830469923881225,1.9795841727681498,0.6224781532140566,0.3144489442667219,-3.5838955091703055,26.541629915223762,39.48346961517229,0.6722213162600236,3292.2497345552138,1.4876053106491904,4.224462881285011,234.943276329545,0.5714285714285714,0.5789473684210527,0.8363636363636363,0.15,50.04424778761061,50.015925966303364,50.07598230242174,56.84210526315789,0.5797672561660849,0.42023274383391496,20.20945014096128,17.205710050251728,0.3462374371273595,0.6537625628726405,23.232841072078894,31.92459034305307,0.41892093558482213,0.5810790644151779,21.773685715565886,25.643867950302376,1.1332972460294222,1.164099655698212,1.6801401735206927,1.1287958134350513,0.892529164792565,1.2165772791519909,-0.9736229904259804,0.0014912185885900253,0.1363245396853425,0.5918977417004179,1.252762968495368,5.894003818777547,0.9958707983411017,1.3174667360873555,1.2293600449074755,1.5903093949285576,1.7132806605023447,1.705555680860274,2.723196849631278,0.9449585491593154,Relax,,,,,,,,,
100.3234830924903,598.6060606060606,35.24341541680073,,,,,,,41.23761409595044,41.44393727533581,0.058875807874578516,0.06888940291416243,602.0,31.1346,0.05171860465116279,44.0,0.8546424469368527,569.2,624.6,14.14141414141414,33.33333333333333,516.0,710.0,8.25,125.0,,,0.05515204857828377,0.02753815666619306,0.010696430341327312,0.09338663558580414,2.002750193007313,0.5905775299893932,0.29488327203832987,-3.592182720884954,29.30528908645988,39.529220563407456,0.7413576252901896,3639.268795139546,1.3488766634167553,4.267984243573504,213.28017256413617,0.5353535353535354,0.5463917525773195,0.8113207547169812,0.08695652173913043,51.29393588258014,51.11670057481589,51.48087006578379,57.73195876288659,0.6467810360449556,0.35321896395504426,23.571343776345895,17.41918009125419,0.3603744197947871,0.639625580205213,23.729862901637848,31.61412477074112,0.46197422527775195,0.538025774722248,23.650736148724935,25.523329720782257,0.9314503226651336,1.114237446705887,1.2895413119432837,1.026748777740319,0.8505879526288673,0.864182364600143,-0.735849670085923,0.0011714448606525072,0.12177485927438016,0.6080470296744052,1.3862943611198906,5.932189448275025,1.0514615579494713,1.176882931474241,1.0060074068828377,1.181855641436387,1.822976459332022,1.7480421664421333,3.3226789314166125,0.9374847745567124,Relax,,,,,,,,,
101.19528138578319,592.84,36.45191103607352,,,,,,,40.24570997904214,40.441100144669065,0.061486929080482956,0.0678862930622801,593.5,40.0302,0.06744768323504634,49.5,0.9057340783665083,563.0,622.2,15.0,41.0,509.0,710.0,8.333333333333334,125.0,,,0.060016445166869034,0.046235006092348485,0.009752892823069308,0.11600434408228683,1.2980736943560447,0.5173637732419469,0.39856271295799084,-3.074018060183354,28.596176150939762,42.359897975606756,0.6750766058834011,3805.5088981649483,1.4813133669347143,4.287382851721904,250.99313237302815,0.56,0.5757575757575757,0.8245614035087719,0.08695652173913043,48.43522561863173,48.280366914459606,48.58627148112685,56.56565656565656,0.56811888844542,0.4318811115545799,21.559007776948608,18.79711766875606,0.3490258959240324,0.6509741040759675,25.025555747172675,34.17722218157827,0.41763681809090375,0.5823631819090961,23.356682735155026,27.580918664015048,0.9594466881379213,1.859437296020885,1.3350947015552637,1.3368939151886683,-0.3070450187492213,0.07150221206073804,-0.49903238811157824,0.0007605632217565994,0.2044234714083621,0.5668438734177874,1.4939250253122562,6.108758439731454,1.1432973195682004,1.2193605648021213,1.1479476677052909,1.1438557407819845,1.8920936206642325,1.7840503670902803,3.2327595648759826,0.9965784284662087,Relax,,,,,,,,,
102.99410546202208,583.0,38.7226032182755,,,,,,,40.51296088907845,40.716343230459756,0.0664195595510729,0.06949049895210711,580.0,47.4432,0.08179862068965517,60.0,0.9558077802384077,546.0,615.0,16.831683168316832,41.584158415841586,516.0,710.0,9.181818181818182,109.375,,,0.03483244269506038,0.05588056990372548,0.024891003080595074,0.11560401567938094,0.6233372844098025,0.3013082416761849,0.4833791419383393,-2.8845385459387702,28.79080240337707,46.875396833337085,0.6141985849365968,4239.831517608767,1.6281379093428374,4.334318708906735,305.2784423993812,0.6633663366336634,0.6799999999999999,0.8676470588235294,0.25,50.42253521126761,50.40536901403502,50.44045612380508,54.0,0.552513251690733,0.44748674830926705,21.400934559032695,19.259786965057373,0.40393860829746364,0.5960613917025362,29.792204457955883,36.19015586894013,0.44463573886579605,0.5553642611342038,25.93815188544325,28.98850440914101,0.9024902053131639,1.6799005352930476,1.1459042065126068,1.411628220787131,-0.8527583566066355,-1.017967015442517,-0.34182157890189,0.0005114761600729451,0.15799981755855388,0.5836387401902523,1.586965056582042,6.101135616350901,1.1258245108075828,0.8636219897837879,1.1669088027213268,1.1367251258856321,1.8819034172125495,1.832152359109168,2.9130707087762833,0.7910746316140745,Relax,,,,,,,,,
103.01222566170952,583.2843137254902,43.2325916320932,,,,,,,49.86079632237125,50.09708594121997,0.07411924273423828,0.08548283426980197,577.5,50.4084,0.08728727272727273,68.75,0.8670658076252153,542.6,620.8,25.49019607843137,51.9607843137255,516.0,710.0,10.2,109.375,,,0.015170551547163997,0.02093789514295857,0.008758835039782639,0.0448672817299052,0.7245499819147707,0.3381205850287211,0.4666628851955371,-3.8661945970754212,35.4239891867219,48.627963270953344,0.7284695225531171,5411.696336971267,1.3727410262755144,4.440303529284698,267.01440082502603,0.6274509803921569,0.6435643564356436,0.8307692307692308,0.2608695652173913,51.53592978606692,51.37406912110695,51.71246861640485,52.475247524752476,0.5488777200751904,0.45112227992480963,26.250809511327457,23.79863441460455,0.45874876536810133,0.5412512346318987,32.9362032639253,35.77548499236012,0.4900057090370604,0.5099942909629395,29.78169308016759,30.383057173683035,0.7234322617570069,1.870451008908062,1.039720430982174,1.4323870320140952,-0.9333430955012432,-1.4304162141992327,-0.29006849195095813,0.0014936854383315991,0.2577770177800299,0.6876497676423701,1.923687012270603,6.061987474260806,1.2171304037176256,0.9924172316903154,1.1046736391896896,1.4900069505259546,1.9551880195663047,1.8876833338323267,3.9831304004925525,1.0466549556033717,Relax,,,,,,,,,
102.74937503269105,584.3725490196078,44.817323729886574,,,,,,,55.588837115748234,55.86529236555653,0.07669306815502518,0.09512568174019931,578.0,48.925799999999995,0.08464671280276816,67.5,0.806228841171241,542.4,621.0,29.411764705882355,54.90196078431373,511.0,710.0,11.333333333333334,70.3125,,,0.005445453587843443,0.006628170577014965,0.006260190443595723,0.01833381460845413,0.8215620772837494,0.29701694405333534,0.36152708634669883,-5.01642644392898,39.50272706465408,49.64006586028932,0.7957831316306768,6160.4054987416785,1.2566237712916242,4.496579409799895,249.51554707408542,0.6176470588235294,0.6336633663366337,0.8125,0.21739130434782608,49.628344895936586,49.613000965553546,49.645416132173175,51.48514851485149,0.48887543174987663,0.5111245682501233,27.62055394086078,28.242078535405287,0.4624162433480726,0.5375837566519275,33.75583766278134,36.396147629904654,0.47267548768181683,0.5273245123181834,30.841137919311986,32.57525565746042,0.6647164089106671,1.6504084316448706,0.9920776669629169,1.2176757453618015,-0.1769127705004312,-0.5499256136280195,-0.3633077279094827,0.0016625119354868297,0.22426090107390007,0.6092409124269977,1.6650077635889113,6.167427547811426,1.2517459548713552,0.9329813688026346,1.0652862892158794,1.4599674060737655,2.0025455557450025,1.9584095360012999,3.524813262065816,0.9812390208781611,Relax,,,,,,,,,
103.45871279973065,580.4313725490196,43.77835936387414,,,,,,,56.91612728001138,57.2,0.07542383378006828,0.09805832346735291,575.0,45.9606,0.07993147826086956,61.25,0.769173193188231,541.2,613.8,31.372549019607842,54.90196078431373,509.0,702.0,8.5,70.3125,,,0.014699386302344911,0.02440947193849514,0.01512541252051347,0.05423427076135352,0.6022000942659941,0.27103501339635344,0.45007467779743693,-3.712784027810235,40.44650788387052,46.17836277001179,0.8758757447792511,5867.720717801024,1.1417144566002706,4.475439544784645,210.8900174266167,0.6372549019607843,0.6534653465346535,0.8484848484848485,0.2608695652173913,49.99999999999999,49.99963766773474,50.0018854569153,50.495049504950494,0.5056695926451171,0.49433040735488276,28.761693274214576,28.437387362414288,0.4750184309474504,0.5249815690525494,31.826857640488402,33.45881529359485,0.48832470546342344,0.5116752945365767,30.333017219425393,31.049777139706627,0.5766853089161215,1.9558710969329995,0.9940499014602275,1.2468556916194644,-0.2763565173569784,-0.5772523766824049,-0.37074516794298895,0.0029703805156056293,0.34247936723784594,0.5742171277233532,1.5040773967762742,6.160026689947078,1.3041848808263932,1.0477604263669469,1.2118853573406245,1.5038652661591854,1.9696096860952368,1.9565250423532916,2.962957382256013,1.0466549556033717,Relax,,,,,,,,,
103.76008589987573,578.843137254902,43.36667176257768,,,,,,,59.88743566471226,60.186120567045116,0.07491955759938558,0.10346056091935656,574.5,40.0302,0.06967832898172324,53.5,0.7241363949088042,542.4,605.8,32.35294117647059,55.88235294117647,511.0,702.0,9.272727272727273,117.1875,,,0.014393243161645801,0.026234918161557548,0.01447229468781731,0.05510045601102066,0.5486292380639652,0.26121822220068386,0.47612887552709715,-3.640664001285814,42.55801398626873,44.543504154660276,0.9554258200814716,5955.464015078981,1.0466537317514901,4.481885714796123,186.4864993950527,0.6372549019607843,0.6534653465346535,0.8636363636363636,0.25,50.0351041422888,50.01120447046689,50.06046411253464,49.504950495049506,0.5305476801099833,0.4694523198900168,30.99870965056449,29.159303832567744,0.4618941105199535,0.5381058894800463,30.273009106864087,32.67519980033728,0.49465674545247107,0.5053432545475287,30.638008097657686,30.967189749733198,0.5504191558406248,2.021429366918131,0.9684796574165659,1.2322503782160101,-0.4870153290672423,-0.7319100074886595,-0.3695127689761483,0.0024167227835753145,0.3336931225748386,0.6234848226578205,1.6933193964148026,6.020177057530508,1.2868306304397856,1.1808307205411517,1.2479148782039076,1.4847507841092529,1.952126897312504,1.9823917436423166,3.9035014111247586,1.0466549556033717,Relax,,,,,,,,,
102.76315353296808,584.7128712871287,48.30410678889805,,,,,,,63.695290249750805,63.95990773898754,0.08261167003655351,0.10893430498551937,581.0,40.0302,0.0688987951807229,54.0,0.7583622996220986,546.0,611.0,32.67326732673268,57.42574257425742,509.0,776.0,8.416666666666666,93.75,,,0.05095824136912414,0.08572470978464657,0.054465883330993545,0.19114883448476427,0.5944405235916103,0.26658933865058865,0.44847100436534104,-2.4566141660614957,45.226484486304024,47.29157942856724,0.9563327136201385,6719.338532023975,1.045661186486617,4.534296632118094,197.80387622440682,0.6237623762376238,0.6363636363636364,0.873015873015873,0.14814814814814814,52.98057602143336,52.753796966800536,53.25050790135346,49.494949494949495,0.5917172160341525,0.4082827839658474,34.820245475147,28.92379398671375,0.5194790100376059,0.4805209899623939,34.08535494115686,32.78234377502375,0.5540181867751762,0.4459818132248238,34.45475958713209,30.91332982686997,0.5256297953307149,1.97174840523334,0.9832773172962381,1.224074347756844,-0.22482471430128648,-0.6085254381560998,-0.377876391419163,0.003296332580142048,0.3674029574640679,0.7103306387093866,2.040220828526555,6.081333636152881,1.2688590295055362,1.2156363867427116,1.3754130505148507,1.804805173900133,1.8672135689211504,1.9508319463387547,2.5795461118194547,1.0547661754854327,Relax,,,,,,,,,
100.86007659391636,596.3030303030303,46.72181122115009,,,,,,,68.13020247875328,68.4738451759125,0.07835246317196631,0.11425432878335492,594.0,35.5824,0.059903030303030305,45.5,0.6857723817233702,564.0,619.4,38.38383838383838,57.57575757575758,511.0,760.0,7.615384615384615,109.375,,,0.05590941349422402,0.04410246980882581,0.02568996045193771,0.12570184375498755,1.2677161559563133,0.44477799071269125,0.35084982440502926,-3.121239493362264,48.4183202578055,44.373522739387795,1.0911534011435917,6749.684908379389,0.9164614241700043,4.536253609348942,162.66648738071763,0.6262626262626263,0.6391752577319588,0.9193548387096774,0.07142857142857142,50.9730069052103,50.84620552853353,51.099598682900506,49.48453608247423,0.5754282912974373,0.4245717087025627,36.73224376428375,31.552035240774114,0.47354100501836704,0.5264589949816328,30.535336040970623,32.19631614281309,0.5289223982756127,0.47107760172438734,33.77620818781885,31.87580352715064,0.6734398277286173,1.917598657948358,1.0971848944906117,1.45970393198174,-0.4933748062865071,-1.158137212503461,-0.31095155861290186,0.003103159054911124,0.3520193985890835,0.7612546629502175,1.8918429277850377,5.9553257518654625,1.3173301166390914,1.0339272290644055,1.5743492532365182,2.001034502993291,1.7956445699646577,1.9405563400744774,3.858897748505419,1.2053375672872018,Relax,,,,,,,,,
100.39781679453934,599.929292929293,125.22455361088724,,,,,,,178.2267244442383,179.14132243025855,0.2087321874207034,0.2970795501149898,589.0,37.065,0.06292869269949065,53.0,0.7026137859031696,549.0,618.4,37.37373737373738,57.57575757575758,396.0,1705.0,9.9,226.5625,,,0.027333387850433336,0.030182179462900197,0.01859232551900414,0.07610789283233767,0.9056134559146537,0.359139989733359,0.39657095131237186,-3.5005036127793288,126.67204388116158,124.6690137174229,1.01606678439182,49612.27866832969,0.9841872752474268,5.402559284394774,490.79062767333807,0.6565656565656566,0.6701030927835051,0.9384615384615385,0.07142857142857142,49.458432972288655,48.991178013807904,50.09803483374643,52.57731958762887,0.5427377979772864,0.4572622020227135,93.32113936052426,85.65794478712782,0.4486652904368516,0.5513347095631483,83.50639976114832,92.56913189722734,0.49645165228223614,0.503548347717764,88.5498555973275,89.18051268455713,0.05916609326675271,3.452195749917385,1.06466929415774,0.4947937625499532,0.06170159197105285,1.76187896429649,-0.6650762508532213,0.0073079860907717155,1.0059316409611836,0.7920460825576119,0.8696036179015016,6.140826034457387,0.7154302797244898,0.8293795616876822,1.328265040929919,1.1217676821426796,0.9310736355508055,1.9584762162773706,1.7409795315420011,1.1383743691045793,Relax,,,,,,,,,
101.1110103649456,595.1616161616162,74.21764835922527,,,,,,,103.48912986396203,104.02111205220467,0.12470167151886935,0.17388407964108282,597.0,41.5128,0.0695356783919598,52.0,0.7171540475486212,552.0,619.4,31.313131313131315,52.52525252525253,396.0,1108.0,9.0,218.75,,,0.057711804397221275,0.0577474945551246,0.033499972382006284,0.14895927133435216,0.9993819617945631,0.38743344996419904,0.38767304671828906,-2.851675314848208,73.55403371867962,75.44294056912686,0.9749624439848488,17433.114192544606,1.0256805338191473,4.94834508489907,309.5214222233129,0.6868686868686869,0.6947368421052631,0.9393939393939394,0.11538461538461539,50.13217522658611,49.856808267809164,50.42582401796307,52.63157894736842,0.5786590826806914,0.4213409173193086,55.952345334700745,47.74454143787959,0.41493865377798445,0.5850613462220156,48.59712246078115,57.70577934876757,0.4947237164807122,0.5052762835192877,52.403937160874506,52.9598820210263,0.636713127690343,2.068196744975687,1.1569743880149317,1.1449759005135256,-0.0244728663912106,0.18184380557815927,-0.5058014246132791,0.0026284948820388594,0.3496790205242663,0.7296486473089545,1.2114077828134542,5.996738534391825,0.8741930646375974,1.0148968119363633,1.165639703139409,1.6593732307215012,1.3416292029995414,1.846561445761951,1.9669288186993303,0.9374847745567124,Relax,,,,,,,,,
100.9557547947452,595.8787878787879,72.96116841495176,,,,,,,100.88779380467942,101.40603371333181,0.1224429697769227,0.1693092552661931,598.0,31.1346,0.05206454849498328,48.5,0.7231912371501145,555.2,619.4,29.292929292929294,52.52525252525253,396.0,1108.0,8.25,218.75,,,0.05689519997166473,0.09251881090544371,0.026626160531709877,0.1760401714088183,0.6149581843395382,0.3231944136178835,0.5255551057751879,-2.3803432939988993,71.70489409192857,74.85644441995049,0.9578987440234072,16862.729221459602,1.043951676770926,4.933897976211117,312.5860426772678,0.6565656565656566,0.6631578947368422,0.9365079365079365,0.07142857142857142,50.30036043251902,50.03774740291088,50.577316549010874,50.526315789473685,0.5745028963044798,0.42549710369552,54.349669713238775,46.77341742186033,0.42535475944473916,0.5746452405552608,48.82079454793538,56.7451961923247,0.4967234778322046,0.5032765221677953,51.659251728174794,51.99889358546491,0.7024715800276238,2.2464541693196556,1.3093460948867293,1.3735743914079703,-0.3924604551698998,-0.49233415575293293,-0.4714090332229245,0.0028671354585840594,0.4154646363256808,0.7039762894654289,1.1104467463151126,6.011988786960784,0.8627570147609473,1.2253171065552533,1.2261802541618194,1.544941731599184,1.2819898276825563,1.8238003853074674,1.9347807060717017,0.9374847745567124,Relax,,,,,,,,,
101.55862579390904,592.5,73.65747920221165,,,,,,,101.62184804460112,102.13900637551073,0.12431642059445004,0.17151366758582468,598.0,35.5824,0.05950234113712374,50.25,0.7248193239891081,553.0,617.4,31.0,50.0,396.0,1108.0,7.6923076923076925,218.75,,,0.05805054279889439,0.13135024589291575,0.03131000304418595,0.22071079173599611,0.4419522963529168,0.2630163316541935,0.5951238036879988,-2.029887890808825,72.22318403177965,75.79799954282353,0.9528376008258078,17198.249592101,1.0494967863708542,4.942454357382372,318.1990277341311,0.63,0.6391752577319588,0.9193548387096774,0.1111111111111111,49.970845481049565,49.71443833321992,50.26119627487161,51.546391752577314,0.561535760431858,0.43846423956814184,54.1209435487986,47.82376234569964,0.43222364899306087,0.567776351006939,49.83242326200147,57.11450189339492,0.49375854973262245,0.5062414502673778,52.020894546208595,52.67437029252733,0.8085762790713051,1.7664909424692814,1.339989537630536,1.148465397787978,0.5535956255083274,0.7237130514486196,-0.6084206747048682,0.0025067164889230986,0.29458092526453916,0.6827197295137397,1.113318436057805,5.9736606896881845,0.8656080059069469,1.0560567292603975,1.3956030825553765,1.7900793227714602,1.2575184879877215,1.8230259368676935,2.005234382942831,1.063016990363956,Relax,,,,,,,,,
102.49703103542467,586.58,74.82601772975045,,,,,,,101.62691721699672,102.13596783999783,0.12756319296558088,0.17325329403831824,588.0,42.9954,0.07312142857142856,63.0,0.7362814870196228,545.4,617.0,33.0,51.0,396.0,1108.0,8.333333333333334,218.75,,,0.06283923366358965,0.11683062503339016,0.02205051940232476,0.2017203780993046,0.5378661086990694,0.31151653717729316,0.5791711582846419,-2.147030042328247,72.22103546271359,75.76862652858122,0.9531786277724141,17191.073544986306,1.0491212988451155,4.9422731082373055,317.96191950150245,0.6,0.6082474226804123,0.8983050847457628,0.12,51.2204497405343,50.84121028767478,51.606520642620445,51.546391752577314,0.5617535881072885,0.4382464118927113,54.1341398937936,47.81426650731613,0.4580437761823475,0.5419562238176527,51.2793968067001,55.77910208284657,0.5074181124453414,0.49258188755465876,52.72609239693294,51.949553948043054,0.5498843783869457,1.982907593733891,1.0477441125162081,1.1050646816548853,-0.5940582505162624,-0.7091756272255312,-0.4710926674950393,0.0016442378089331607,0.2764941376486663,0.5941087681595101,0.9504820966224345,6.073660689688184,0.8683419056100412,0.9885550505610755,1.3028822572229957,1.6041651627574594,1.334310383976588,1.8595512850076055,2.097402800532631,0.9965784284662087,Relax,,,,,,,,,
103.09025726525189,583.4455445544554,75.2976062365232,,,,,,,102.51019461497476,103.02649654287478,0.1290567850578476,0.17569796456883743,581.0,47.4432,0.0816578313253012,64.0,0.7345377356792537,541.0,616.0,33.663366336633665,51.48514851485149,395.0,1108.0,11.222222222222221,234.375,,,0.039993004768201376,0.06529088363662901,0.026447021373161093,0.13173090977799148,0.6125358172632358,0.30359620863168957,0.4956382958765329,-2.7289028598480845,72.85073434735915,78.38348362410606,0.9294143482665349,17939.418756925537,1.075946376193907,4.960778477613607,337.34570063524546,0.594059405940594,0.5979381443298969,0.8620689655172413,0.07142857142857142,50.14776505356484,49.923821680760476,50.40718497553338,53.608247422680414,0.5570632469067426,0.44293675309325736,54.37342822528019,48.484767992357426,0.44016440130479895,0.5598355986952012,52.00343353077658,58.64821741588235,0.4943429862769245,0.5056570137230755,53.20162965530095,53.80699830567272,0.6283405032871576,2.2705454832043683,1.1370586713954038,1.3079651684352425,-0.9107743837702991,-0.9910829608494305,-0.42472888197833325,0.0016455413160403592,0.3527799562978346,0.6033782708030735,0.9965281625548302,6.120937596548921,0.8834346844209909,0.934423186016791,1.0486766442793316,1.3313132231737168,1.4354787734735444,1.8498651406092008,2.0287822618268723,0.9888432895175933,Relax,,,,,,,,,
102.20621126727485,587.6237623762377,46.869147951535986,,,,,,,55.53512402074925,55.81469612055864,0.07976047081895761,0.094507961686532,586.0,45.9606,0.07843105802047781,63.0,0.8439550424705012,550.0,619.0,29.7029702970297,50.495049504950494,482.0,742.0,10.1,78.125,,,0.05174619280849869,0.023085880031658366,0.016553998845338293,0.09138607168549534,2.2414650313324667,0.5662371940724504,0.2526192406115047,-3.7685341023870667,39.4669501167135,53.142394478505494,0.7426641291573095,6589.076629416644,1.3465037030059412,4.525794668281718,286.2257238076406,0.6039603960396039,0.6082474226804123,0.8813559322033898,0.10714285714285714,50.195771339075954,50.14972814545504,50.247873056822876,54.63917525773196,0.5615323508908451,0.4384676491091548,29.574849402350594,26.13388218347588,0.44332469855255763,0.5566753014474424,35.38360535658149,39.649899910072754,0.4853457342082679,0.5146542657917322,32.60882737236974,33.578969317554886,0.9495117427990877,0.9722161129044301,0.9428014501808635,1.3542224158275973,0.2702246518697091,-0.5669805812828801,-0.076821490421876,0.0009586545989654668,0.09463928036376186,0.6970253445335288,1.8763168572561182,6.026781408387266,1.140427057474329,1.198535746302605,1.183476353315193,1.508471765705909,1.670901168409412,1.798317241581309,3.3739380759839097,0.9229204035497537,Relax,,,,,,,,,
100.91934864638078,595.0505050505051,53.975877782537104,,,,,,,54.531960297403124,54.80649355455834,0.09070806145766717,0.09164257459587352,594.0,57.8214,0.09734242424242424,71.5,0.9898026311206622,550.6,639.6,29.292929292929294,49.494949494949495,482.0,742.0,9.9,78.125,,,0.055890413153513493,0.020113990142778905,0.012657455420771836,0.08866185871706424,2.778683531053565,0.6303771876909297,0.22686181446935627,-3.9063396790276377,38.754043245485,65.97711096319588,0.5873861810515352,8032.674831857171,1.702457484120253,4.611830296744889,449.2929053597009,0.5353535353535354,0.5463917525773195,0.8113207547169812,0.07142857142857142,51.06732348111657,51.02792834356909,51.10659116851281,54.63917525773196,0.56227652989095,0.4377234701090499,29.062854032873002,25.642667407127856,0.41319203865504317,0.5868079613449569,42.410097122136285,50.54070471551451,0.4514409562608404,0.5485590437391593,36.35426950473022,40.074363531398774,0.9554676243880871,1.4855292301493734,1.2728040826425155,1.5000357026562827,-0.42147647749075645,-1.0177969338011459,-0.34703658776817303,0.0010223805475522887,0.16598227500947532,0.6242687182526692,1.900958761193047,6.061026695771627,1.0177047964107624,1.0985639166072083,1.0923176196851345,1.3842738178739717,1.7513317537884823,1.771712302523908,2.892000634890886,1.0044479727393347,Relax,,,,,,,,,
100.49281036558465,597.929292929293,51.68670387689869,,,,,,,46.970355392675984,47.18150890171693,0.08644283611475581,0.07855503309189833,601.0,54.856199999999994,0.09127487520798667,67.5,1.100411173064237,551.6,635.0,21.21212121212121,46.464646464646464,473.0,742.0,11.0,93.75,,,0.0388761194637351,0.013091850677516781,0.008471079936371419,0.0604390500776233,2.9694899843685807,0.6432284990218341,0.21661244941312957,-4.3357653280363575,33.3623648910175,64.07653128862319,0.5206643402830546,6715.922786537087,1.9206231781810883,4.534075804340602,492.26748468150157,0.5252525252525253,0.5360824742268041,0.8269230769230769,0.07692307692307693,52.63494091344617,52.79662330086467,52.49203367713001,56.70103092783505,0.6218242533844568,0.3781757466155433,26.325088969998763,20.529711935751763,0.40775303594301776,0.5922469640569821,40.916416927727404,49.31174999711821,0.4534551632564514,0.5465448367435483,34.40322283945189,37.7698144021336,1.114512588220108,1.212223618475659,1.3651633224111412,1.3766346851654343,0.07444905057714735,-0.13313301649610576,-0.49053692521787523,0.0002979102302479379,0.08709124708952017,0.6426718990726479,1.555853666299994,6.009315428309366,0.9534940239481781,0.8668247852450809,1.021864860416215,1.2305573449816518,1.764424236003523,1.7021652427538763,2.1519898581010244,0.9374847745567124,Relax,,,,,,,,,
100.76159246619694,595.63,51.868453463029574,,,,,,,47.971687778134594,48.214194324107716,0.08708166724817348,0.08053940832082769,592.5,55.5975,0.09383544303797468,71.0,1.0812305312858124,551.0,633.4,20.0,49.0,482.0,742.0,9.090909090909092,93.75,,,0.05411634965993778,0.01829514327871895,0.008851068351266492,0.08126256128992322,2.957962604364314,0.6659444250946636,0.22513618803432422,-4.001119648963664,34.09258375602251,64.69822913675677,0.5269477111028626,6929.504522010472,1.897721498603863,4.547672292474079,491.11688141768866,0.57,0.5816326530612245,0.8245614035087719,0.16,49.396097863115514,49.31427817371412,49.48242820702644,55.10204081632652,0.544917854336843,0.4550821456631566,25.16750009882765,22.999556339997838,0.4137584943438003,0.5862415056561997,41.61652897886602,49.53711102984797,0.4422645570646582,0.5577354429353416,34.3899588940819,38.619327810179584,1.135774577971002,1.0153885839434516,1.4486651891467428,1.3410086938985994,0.6496733095210914,0.30265962569498406,-0.6060249218383362,0.000906064857808091,0.09636626399136872,0.6665886830152785,1.7346010553881064,6.025113159965452,0.9644365351029147,1.218658428231631,1.2921914101871421,1.479556173057216,1.8677732758168077,1.68777272994735,2.615412147573502,0.7972627427729669,Relax,,,,,,,,,
100.34496855362435,598.1428571428571,49.72460238628587,,,,,,,45.998879412617164,46.23776191759033,0.0831316495591118,0.07690283159501318,600.5,53.373599999999996,0.08888193172356369,68.5,1.080995950798027,554.4,634.2,17.346938775510203,46.93877551020408,490.0,730.0,9.8,85.9375,,,0.023968819087269378,0.0062658641467926825,0.004129089743898504,0.03436377297796056,3.8253014310146405,0.6975025443987755,0.1823392370451096,-5.072638767696959,32.69503499881722,62.56417581460516,0.5225839639556924,6426.246895610352,1.913568094264725,4.5149275170380685,478.8832427311888,0.6020408163265306,0.6145833333333333,0.847457627118644,0.21739130434782608,50.13596193065941,50.06800303019154,50.21167793804355,56.25,0.622820865125072,0.3771791348749281,25.8026363317136,20.079659069150882,0.36356119123179,0.63643880876821,37.723717738837735,49.91189452747034,0.419175654925083,0.580824345074917,32.31760295648617,38.04201574348195,1.071208326545151,1.3450481452178402,1.4533032718906025,1.217797153606832,0.5805894282060446,0.800323612604465,-0.6750912181999468,0.0011446564031212425,0.14634574529161182,0.6989257294502291,2.1633230256605382,6.089099895091463,0.9636080613515856,1.6813620941571688,1.2318702972395754,1.4582012252981995,1.9360011656915574,1.6990439583309134,3.160032449414958,0.8099644707079847,Relax,,,,,,,,,
100.87381636639812,595.4646464646464,49.27459773830423,,,,,,,47.34728404166863,47.59013174594124,0.08274982911387625,0.07951317399408313,589.0,45.9606,0.07803157894736842,64.5,1.04070589761684,556.2,631.0,20.2020202020202,47.474747474747474,490.0,730.0,9.9,78.125,,,0.013565445403252678,0.003679843444437148,0.003931309626146808,0.021176598473836634,3.6864191664891837,0.6405866088462026,0.17376933547583379,-5.60488506997876,33.651304875116246,61.40590781359681,0.5480141255670029,6491.752266140756,1.8247704819019945,4.519332048179925,448.206751970586,0.6161616161616161,0.6288659793814433,0.8360655737704918,0.2857142857142857,50.36589245943366,50.331438203134546,50.405199518009894,54.63917525773196,0.5744607247386124,0.4255392752613874,25.50570989236336,21.952150400735114,0.38647417903457704,0.613525820965423,38.174239855954305,48.097951368348525,0.42989203870787174,0.570107961292128,32.46393249202361,37.38522323758757,0.9931978440431294,1.0068040239709153,1.2361114845206362,1.1511233391197304,0.4686028880325761,0.2762741737398122,-0.58441379193709,0.0003410654170535709,0.06743315759736808,0.682896849578297,2.46080909820894,6.129257882662168,0.9708638776013769,1.2136863705202088,1.396985273166873,1.643342500446039,1.920221872121214,1.730241977732301,2.98504228336361,0.9374847745567124,Relax,,,,,,,,,
101.586695518337,591.06,47.423051974602586,,,,,,,44.195045199682966,44.41694005677813,0.08023390514432137,0.07477251920225184,585.0,42.2541,0.07222923076923077,57.75,1.0730400152400517,555.0,625.0,17.0,47.0,490.0,730.0,9.090909090909092,85.9375,,,0.022424278785132742,0.00685796756426757,0.012640164830173814,0.041922411179574126,3.2698140629843664,0.534899547859464,0.1635871451880845,-4.98234415457237,31.40751951370421,59.52151510729463,0.5276666673737792,5872.96602574951,1.8951358155273388,4.4758275984818825,451.2054202971425,0.61,0.6185567010309279,0.8166666666666667,0.38095238095238093,49.14112495789828,49.130130702837896,49.164107998853716,55.670103092783506,0.5575356705125486,0.44246432948745124,23.453057761565912,20.89307081697818,0.3765260303703413,0.6234739696296586,36.5234236082492,46.998407298548834,0.4159526473871592,0.5840473526128409,30.692070559307027,36.3687413637285,0.8896860857723066,1.3561244797042635,1.219558059496889,1.3179782221543572,-0.032763118398058566,-0.5328471204406218,-0.42742542138983347,0.0008570987462770997,0.14069821559681553,0.744243740143876,2.176815705705012,6.053660689688185,0.9701704378367892,1.3361377718816434,1.3323493734460106,1.3735195961275435,1.8572136303298241,1.7372291013623917,3.0695950390538824,0.8637013046707142,Relax,,,,,,,,,
103.40085794452396,580.4950495049505,37.79619657118325,,,,,,,47.09299310937881,47.329341487670895,0.06511028234162558,0.08112557230167593,581.0,34.099799999999995,0.05869156626506023,45.0,0.8025864162721046,554.0,608.0,21.782178217821784,48.51485148514851,490.0,730.0,7.769230769230769,101.5625,,,0.04719352829932248,0.019379801504626603,0.02809709843430323,0.09467042823825232,2.4351915208241848,0.498503378273022,0.204708079019717,-3.9435239148512986,33.46689831502589,41.83161230312296,0.8000384511243761,4398.149024167798,1.2499399230056973,4.350240050602129,209.14800904547877,0.6633663366336634,0.6770833333333333,0.8461538461538461,0.42857142857142855,49.55094456488076,49.53156588769755,49.57904753980421,54.166666666666664,0.5704069439747493,0.42959305602525083,25.276451291646737,21.935741785423343,0.40243395268470794,0.5975660473152922,26.53700528497798,32.33683871969921,0.4679897462391641,0.5320102537608359,25.914394063858982,27.630127633261175,0.672906694781317,1.9236932408417848,1.073943765710315,1.4530111463114346,-0.9714230116668414,-1.6272466999475819,-0.30294811430784874,0.001810359052031308,0.28852445493199025,0.6155789587343268,1.7414976344471667,5.912823240027594,1.1282387699627372,1.3296811248642564,1.3507069370306586,1.5745081468965232,1.7957983492084741,1.8182799939865604,3.3249010225792737,1.0547661754854327,Relax,,,,,,,,,
104.10730246786322,577.5098039215686,40.71362072860211,,,,,,,50.37709286122528,50.588041086704465,0.07049857933516815,0.08723158034571994,576.0,26.686799999999998,0.04633125,35.25,0.8081772570869995,552.2,597.8,21.568627450980394,41.17647058823529,490.0,740.0,7.285714285714286,117.1875,,,0.03790078838103101,0.013318856057127652,0.021440743079913383,0.07266038751807205,2.845648921984423,0.5216155552652998,0.18330284921498655,-4.318574499154953,35.77114689935241,42.255853188793516,0.8465370877622964,4748.644001905254,1.1812831528071164,4.383539722415293,199.66450991765058,0.6666666666666666,0.6804123711340206,0.8787878787878788,0.34782608695652173,53.10872894333845,52.7722656433731,53.4893809279503,53.608247422680414,0.6400205990098431,0.3599794009901569,28.640181563670296,21.479175961847325,0.41006609275012346,0.5899339072498764,27.059128499517797,32.455518691887434,0.5061523677201969,0.4938476322798031,27.86087252001825,27.520135297264208,0.8061997709748365,1.3099989085449795,1.1576785734037385,1.1601620007377351,0.19298344942005308,-0.15528158312908724,-0.4981042523640306,0.0010735384260160002,0.1386437979055653,0.7465453418998793,1.3975939163738236,5.874542224469002,1.0410029784456691,0.9619922563603228,1.264574615566429,1.4582343595339966,1.6770240400926877,1.853843181364799,2.511887958005361,1.0466549556033717,Relax,,,,,,,,,
102.23839476696519,587.6138613861386,42.34594910898319,,,,,,,43.05194536835705,43.243602901691624,0.07206424472202232,0.07326570763119955,586.0,32.6172,0.05566075085324231,42.0,0.9836012925006459,558.0,611.0,17.82178217821782,39.603960396039604,472.0,730.0,7.769230769230769,140.625,,,0.04255494357737814,0.033121109106626315,0.01801285853948536,0.09368891122348982,1.2848284591068984,0.4542153710791412,0.353522190343505,-3.407584462506862,30.577844854724404,50.75176018244256,0.6024982137526479,4875.373076118848,1.6597559580658674,4.394977964601537,336.9421453805564,0.5841584158415841,0.5979381443298969,0.7931034482758621,0.19230769230769232,52.56365538890828,52.48087151416948,52.64696105022425,54.63917525773196,0.6265922836625356,0.3734077163374642,24.21880478162589,18.696134748804486,0.48770989962190947,0.5122901003780906,35.44311588142101,36.32529006398053,0.5247296229382951,0.4752703770617051,30.354282798596504,28.888338069000934,0.8880338882934641,0.5178309125598664,1.0891184850297047,0.9296264463794948,0.7030064033402086,0.17138909060689622,-0.8080002270659558,0.0005004308567281803,0.026814212690483542,0.6662924001760322,1.3375041969504589,5.9910423937888835,1.062207245797228,1.089074188777543,1.0875928231071323,1.2342299216870931,1.6490403588922837,1.7771190893777693,2.329528992126219,1.0547661754854327,Relax,,,,,,,,,
101.78490293413186,589.71,37.71003001372929,,,,,,,38.59920970562726,38.79460313929656,0.0639467365547969,0.06545456191285082,589.5,31.1346,0.052815267175572514,41.5,0.9769637850443259,562.0,618.2,18.0,39.0,472.0,702.0,6.666666666666667,132.8125,,,0.02898978279525163,0.025758841551352017,0.00809631197261624,0.06284493631921989,1.125430378437575,0.46129067022995257,0.40987934844122326,-3.6589773495898106,27.431926953237518,45.95371327947651,0.5969469058224932,3960.2882619384195,1.675190859096869,4.3046969085168225,307.9249617093498,0.59,0.6041666666666666,0.8275862068965517,0.15384615384615385,50.537221795855714,50.48879413435843,50.584237971122846,51.041666666666664,0.5572677966101693,0.4427322033898306,20.478585131292437,18.253179762128337,0.5539553369314911,0.4460446630685088,34.20251055690301,30.690911289456267,0.5548256366383054,0.44517436336169464,28.18850986993329,25.249857496685458,1.001634936650334,0.48561836071229014,1.2350367702978902,1.2444441170064793,0.5980324940571791,-0.4061940028697397,-0.48062810744060297,0.0018716062252949108,0.05144623856258579,0.626214123412089,1.2447947988461912,5.97101406462328,1.0279414920338716,0.9930125535908388,1.023005666192093,1.172765418290591,1.655172034257516,1.8227373569398744,3.0458052594825613,0.9301398665684615,Relax,,,,,,,,,
100.32246283796054,597.9090909090909,35.88675240453937,,,,,,,37.88058573346252,38.05340793766182,0.06002041606354464,0.06335509245371564,599.0,29.651999999999997,0.0495025041736227,39.5,0.947365298336402,573.8,623.0,18.181818181818183,34.34343434343434,472.0,702.0,8.25,171.875,,,0.06329151470625237,0.044954738412113955,0.01903412549940972,0.12728037861777605,1.4078941829455114,0.497260578524183,0.35319456856043285,-3.1020991084453478,26.907822799978664,42.27664542723139,0.6364701486614806,3573.789357822965,1.571165595280526,4.260099061200508,265.6944431165589,0.5858585858585859,0.5957446808510638,0.8392857142857143,0.07407407407407407,47.436940602115534,47.32264760523376,47.549931888364824,54.25531914893617,0.5246899533507794,0.47531004664922066,19.50204853104454,18.56168317998739,0.5359428152258104,0.46405718477418956,30.949935348050296,28.799587679884425,0.5326959084037411,0.46730409159625885,25.867241783341626,24.22759101732545,0.9221481046714064,1.1121478980188546,1.1898647501324384,1.330298107203715,0.08412604051903827,-0.5172854881358524,-0.3737278042592715,0.0008753768747615894,0.10209719032651686,0.6984759951867039,1.3449091449570363,5.941084241418826,0.994436349538431,0.9605784559742654,0.9929137549479687,1.2120043457811898,1.6190595510958359,1.819551802341172,2.403321434931279,0.8705215763740901,Relax,,,,,,,,,
124.50082587969041,483.4016393442623,62.38161148796811,,,,,,,85.08143886694337,85.4295014881739,0.12904716577417735,0.17600568955942503,469.0,47.4432,0.10115820895522387,73.75,0.7331988306582952,438.0,530.4000000000001,31.147540983606557,54.91803278688525,347.0,720.0,8.714285714285714,109.375,,,0.04831454813629736,0.016740806209526365,0.026184030110559073,0.0912393844563828,2.8860347304423093,0.5295361035605654,0.18348223532272237,-4.089906054415838,60.40777981567401,64.24757662300091,0.9402343713311011,12192.689045454219,1.0635646073906955,4.7930696079355535,273.32579442738233,0.6885245901639344,0.6974789915966386,0.891566265060241,0.36,49.07937490329569,49.297749637130615,48.86478144155625,49.57983193277311,0.42922202395019543,0.5707779760498045,39.57882430458658,45.64103599466894,0.5491494466998317,0.45085055330016843,47.61042148247153,43.13929610215942,0.49287240317934455,0.5071275968206556,43.77919350029144,44.40778667562961,0.3160538669374953,2.5927023784337515,0.8606707521608893,1.3679868060587637,-1.3076481671179163,-1.807496646409792,-0.3043292365071446,0.004319728642203645,0.5834045596766196,0.6282600091673451,1.052092273033217,6.192711927584956,0.854890942879254,0.8349942547644208,0.8245237008949107,1.1247124747126453,1.5406388493927665,1.9326033779453677,3.3663670100675573,0.7953305141465608,Stress,,,,,,,,,
128.86821360432174,467.40157480314963,60.758337313128216,,,,,,,89.43051749999806,89.78748419161948,0.1299917257204731,0.19133550745451067,454.0,35.5824,0.07837533039647578,46.0,0.6793915434194993,431.2,493.40000000000003,35.43307086614173,61.417322834645674,347.0,720.0,7.470588235294118,109.375,,,0.019958771212344094,0.0204071520034637,0.017419372356448783,0.057785295572256576,0.978028252494836,0.34539532963687986,0.3531547567831672,-3.891869851168638,63.489338937574075,58.31529326490117,1.0887253648741755,11631.43081645159,0.9185052835758727,4.772603251815615,214.25161990835292,0.7244094488188977,0.7338709677419355,0.9230769230769231,0.4230769230769231,49.92526158445442,50.09976893956177,49.73555278530769,46.774193548387096,0.44050509811704586,0.5594949018829541,42.138248658433824,47.489662032909855,0.5910033624379195,0.4089966375620805,44.83089817122787,37.29428907664585,0.5093728087628784,0.49062719123712184,43.5054101856252,42.69737695533782,0.40949581162705756,2.2394107570079336,0.8784279479476821,1.3456619904887812,-1.0286167367421086,-1.6686307933278763,-0.29135848969245454,0.0033760491074125783,0.44430176579723035,0.6463846197966587,1.1128778658269323,6.244359292969171,0.9649325493481632,1.178627810638164,1.13609804578281,1.2118061995998615,1.5035237471676797,1.9608512076695719,3.621923541645646,0.8804642125067295,Stress,,,,,,,,,
131.46705522440888,458.1085271317829,61.39157621241665,,,,,,,89.57438424292963,89.92633926499155,0.1340109877386244,0.19553092539829975,445.0,32.6172,0.07329707865168539,46.0,0.6853697821234253,421.6,483.4,38.759689922480625,62.7906976744186,347.0,720.0,6.45,117.1875,,,0.010812980150399493,0.012556561225405494,0.006055873785163976,0.02942541516096896,0.8611418330459585,0.3674707762404746,0.42672503197375494,-4.37751194321499,63.58752430155762,59.61228048808532,1.0666849813649864,11908.512737863004,0.9374839033735596,4.782827635502367,223.54221360387885,0.7054263565891473,0.7142857142857143,0.9111111111111111,0.32142857142857145,49.96736718444067,50.12035683130021,49.79120360035621,46.82539682539682,0.44512603004624085,0.5548739699537594,42.42417970476326,47.366264282989256,0.5926083165961145,0.4073916834038856,45.89016373429706,38.048874588213046,0.5141133577767335,0.48588664222326655,44.19116513050228,42.960911591559295,0.3577252915117461,1.2376252582972787,0.7161874801812406,0.668469412946181,0.4988515792458754,0.202354049231389,-0.5385561517229456,0.0015206243847797815,0.1464726820551071,0.6826426633429081,1.1517221139820581,6.307397894807199,1.0470885582308536,0.8159008515926138,1.112026198173278,1.2692482915612857,1.53337812269836,1.9801852605273684,3.2862214436112303,1.0326613787057506,Stress,0.03801945664244786,4.04006387719409,2.698282605846172,1.5198832494900891,-0.9510904034932839,-0.7234984317021773,-0.7916783972174486,0.024448345153825643,1.7635238166553655
132.64456459492,453.9846153846154,60.95480402373429,,,,,,,90.98956410047143,91.33723397430819,0.13426623272705712,0.20042433381445127,440.5,29.651999999999997,0.0673144154370034,40.5,0.6699098366536572,418.0,478.8,39.23076923076923,64.61538461538461,347.0,720.0,5.909090909090909,117.1875,,,0.004401983106552719,0.02489743997843139,0.009969801616322771,0.03926922470130688,0.17680464780178803,0.11209753031885605,0.6340191375767804,-3.692990292908192,64.58517751805564,56.67715717419882,1.1395274699391027,11499.81328321299,0.8775567297675069,4.7676608989477,198.9496828092356,0.7307692307692307,0.7401574803149606,0.925531914893617,0.38461538461538464,49.076183244748165,49.24772297297159,48.89274858379957,47.24409448818898,0.4398241954149983,0.5601758045850015,42.83571450904023,48.34244705742563,0.617012443744685,0.38298755625531494,44.51998610425539,35.07521892484413,0.5169053345086828,0.4830946654913173,43.68596800016621,42.23306270048233,0.3110318374395211,2.621635267345969,0.8418167767891007,1.2821921225249744,-0.9423651345991608,-1.21692986850204,-0.3320226496717482,0.005150411944221295,0.6176909372855481,0.7508605517365421,1.2726147370480994,6.233680697543986,1.043898904913645,0.8322299726478545,1.2133087504327538,1.2632405690507367,1.4814062123070295,2.043521139765718,3.842239203149462,1.0803642789274546,Stress,0.20555094138445534,0.7417128581927619,-0.5293152015832633,-0.15845877248688234,1.0,-1.7678316319726606,0.0,0.0003791461528852926,0.04237711695449682
134.43467013874383,447.6818181818182,41.968784870891945,,,,,,,63.754838163961935,63.98248897992143,0.09374690498117806,0.14241105082822242,442.0,29.651999999999997,0.06708597285067873,40.5,0.6582839213387766,418.2,477.00000000000006,30.303030303030305,56.81818181818182,346.0,596.0,5.5,117.1875,,,0.008149798867443079,0.07087734153451869,0.02239993997967344,0.1014270803816352,0.11498454500404708,0.08035131088046892,0.6988009638829359,-2.6468044799558745,45.24245183489598,36.85378180211668,1.2276203315529888,5238.151626724237,0.8145840976215831,4.4261481755852845,120.08201837287974,0.7196969696969697,0.7286821705426356,0.9361702127659575,0.27586206896551724,51.67796904886106,51.723467109961554,51.64457004300298,47.286821705426355,0.5172055672306387,0.48279443276936107,32.54570750380266,31.44439536706025,0.5404480840510707,0.4595519159489294,27.093121898268556,24.983273983279048,0.526473447301608,0.47352655269839194,29.94378342091657,28.398186376277515,0.34025701281461757,1.5096660923910545,0.6977217931224238,0.511159851206189,0.3285148683337962,0.8071680313757665,-0.6235782818840109,0.0008255606398322582,0.14919925524315053,0.7591061154243328,1.9049021253279363,6.182662256011071,1.249939811956038,1.1897976698995174,1.4567952027428688,1.8997836576141034,1.6814709547318036,2.002258547110343,2.802595838573954,1.1740656865597423,Stress,0.07676401878272186,1.422761487916206,0.292094595368015,0.5058425764627901,-0.3159052853520654,-0.5852922120984796,-0.3497654154191136,0.0006447333861548961,0.1287719237430206
132.56488015789208,453.8076923076923,44.504175599555424,,,,,,,67.40396556318784,67.66673886371068,0.09806835880908898,0.14852979952901804,446.0,40.771499999999996,0.09141591928251121,55.0,0.6602604939888143,420.6,490.2,33.07692307692307,60.0,351.0,596.0,6.190476190476191,93.75,,,0.003028118152436862,0.020767992689097552,0.005563142479727954,0.029359253321262366,0.14580697315184027,0.10314016229574402,0.7073746890578138,-3.8743422904877947,47.847609911309114,41.21903200957297,1.160813526630045,6195.950079216369,0.8614648064130486,4.499078019951444,142.0349817226401,0.7153846153846154,0.7265624999999999,0.9247311827956989,0.2962962962962963,49.95936941329432,49.96282662928743,49.95734546907529,46.875,0.4861991008130219,0.513800899186978,33.363176744728605,34.29712770408041,0.5156313316446594,0.4843686683553406,29.598345676638747,28.687044689413398,0.4987368538062082,0.5012631461937919,31.53699121106672,31.616763763566958,0.34217979451993774,3.0187029735416466,0.8596477008296899,1.4857717136408688,-1.4292111341703517,-1.557908918501146,-0.29258508760251145,0.007700231687497317,0.8193126578677772,0.7051813667441564,1.9183221925364844,6.291448197577271,1.3117607002344918,1.204178701339724,1.3688476075565925,1.745437287530681,1.768166218756694,1.992420497590914,4.123578495765925,1.0263460649810818,Stress,0.254817465493794,1.8331682775107683,0.523691884237216,1.1634677458620468,-4.168553613674584,-5.168553613674584,-0.15099992757153047,0.0012096645392786233,0.20275484157427037
130.43757388609907,460.4296875,48.8964329880687,,,,,,,59.66309612624942,59.89652995551921,0.10619739412017976,0.12958134053041362,452.0,45.2193,0.10004269911504424,62.25,0.8195423329121566,422.0,497.6,30.46875,60.15625,351.0,614.0,8.0,117.1875,,,0.014999655944849585,0.01681157419673975,0.0057595450833141095,0.037570775224903444,0.8922219757242277,0.39923732888288127,0.4474641285973879,-4.085687689501209,42.35324250109081,53.37167608408038,0.793552790704354,7101.455650590581,1.2601556086929067,4.558317489134763,269.0264678507798,0.7109375,0.7222222222222222,0.9340659340659341,0.34615384615384615,49.325309992706046,49.50614760597906,49.12558455224022,48.41269841269841,0.4472150946735092,0.5527849053264907,28.32471857829628,31.490928398962314,0.4758112633788961,0.524188736621104,36.815287878759314,38.64156293976829,0.4647610589724901,0.5352389410275101,32.845510379164494,35.24804219993393,0.6025727592178113,2.4090910558104404,0.584517622386254,1.681007356762166,-1.0671804507599205,-1.8149585900381893,-0.04485334552577027,0.0070086016361925645,0.6118173062007325,0.6548348542675573,1.513556140730818,6.2830122069467365,1.2598047714853093,1.202389918710099,1.33884409152811,1.6983071941007233,1.8053614010666537,1.9266543828133473,2.7906630283939253,0.984375,Stress,,,,,,,,,
126.82187927517148,473.8,50.72172659114728,,,,,,,55.949069582047336,56.17532955082901,0.10705303206236234,0.11808583702416069,473.0,51.891,0.10970613107822409,71.0,0.9065696171545026,428.0,513.6,27.200000000000003,54.400000000000006,378.0,647.0,11.363636363636363,46.875,,,0.025592665737635134,0.010849134509354952,0.007887636734375559,0.04432943698136564,2.3589592068903915,0.5773289146079904,0.24473882927760854,-4.523669970900408,39.72195646078024,59.98336900157775,0.6622161629456896,7485.337010474916,1.5100809312049561,4.581181468213974,362.31896687485215,0.688,0.7016129032258064,0.9080459770114943,0.3076923076923077,49.64795815731241,49.67848861637354,49.62153148195215,51.61290322580645,0.4832013850065825,0.5167986149934176,27.612151207556124,28.555964165667636,0.49562590147496477,0.5043740985250353,42.228713595903436,42.59976883522489,0.49183826984054063,0.5081617301594593,35.67698940685567,36.264193043865546,0.5977655545532757,2.176635403882325,0.9834738085888333,1.34141555831066,-0.8189706678120388,-0.9976273009935825,-0.33555273010657233,0.0024883631115324247,0.36414227062746346,0.6317287448702125,1.3609765531356002,6.409706084627473,1.1974224074697108,1.3788687178808983,1.2232866510761071,1.7179103467534111,1.8454750568748053,1.8741988592538927,3.9460042834261566,1.0587992112686373,Stress,,,,,,,,,
123.18478651485154,487.89256198347107,51.06920168635439,,,,,,,61.30001359434324,61.544745285596136,0.10467304826033508,0.12564244337961433,487.0,48.925799999999995,0.1004636550308008,63.0,0.833102616001166,440.0,528.0,23.140495867768596,49.586776859504134,398.0,659.0,10.083333333333334,109.375,,,0.02520196550515363,0.009800880819356627,0.012245017973508384,0.04724786429801864,2.5713980171435242,0.5333990409850227,0.20743542517682925,-4.625283017818347,43.51870673784382,56.96659760154996,0.7639337536398656,7788.362103975562,1.3090140280297407,4.598416244913364,298.2803015582171,0.6363636363636364,0.6499999999999999,0.8717948717948718,0.25,51.51765434647946,51.53123808713658,51.50013309477408,50.0,0.46683580123435703,0.5331641987656428,29.74026215885312,31.782876844367024,0.5380660282527966,0.4619339717472036,41.78669930486874,38.71776082757628,0.5118092643611234,0.4881907356388768,36.26714375349145,35.42044793622465,0.5805698731837031,1.9763657121109584,1.1159862402635436,0.9647132860905695,0.44344356081705616,0.889580294419088,-0.5765409727794758,0.002913311863886943,0.34228329386857687,0.6817884172877156,1.4628344382422251,6.404279249617646,1.192308822280537,1.3757912644524581,0.9600351801573037,1.5448003377508317,1.7354780315200666,1.855659293989459,2.9636423166208057,1.1436137582272057,Stress,,,,,,,,,
119.2417241853318,504.13675213675214,54.80890092307025,,,,,,,62.96872513262108,63.24153918794647,0.10871832035804996,0.12490405602395,498.0,44.477999999999994,0.08931325301204818,55.0,0.8704146512039892,460.2,536.6,25.64102564102564,52.13675213675214,398.0,662.0,8.357142857142858,109.375,,,0.024246841060408194,0.003932321034869409,0.0102515221973066,0.0384306842925842,6.16603803336556,0.630924000098718,0.10232243081938075,-5.538525433318681,44.718521212471735,63.51569326437815,0.7040546818301275,8923.153190812143,1.42034422298079,4.6574884588878644,360.8565919867176,0.6324786324786325,0.646551724137931,0.8666666666666667,0.25,50.253807106599005,50.35366010703603,50.16038307818581,52.58620689655172,0.47265663217718573,0.5273433678228143,30.744175835856893,32.47406992342204,0.4927476917102564,0.5072523082897434,44.58546926259921,45.23692320978951,0.4860891892599716,0.5139108107400284,38.29535492192405,39.37603610623914,0.649898879291815,2.0673119820373858,1.1574040720868624,1.0500758116476838,0.21500206373353237,0.7942924579801618,-0.5519168182508204,0.0023570097857917756,0.3336856025629174,0.6461191075891954,1.4397195277934711,6.304000082775794,1.1954900521951792,1.2096911811965778,1.1825633229573893,1.6879339986238997,1.731206779516218,1.8228355967202905,3.00056929810305,0.9395370556695254,Stress,,,,,,,,,
117.24367713121057,512.6347826086957,56.3968287080889,,,,,,,68.84421773678217,69.14778774642845,0.11001366005852498,0.13429486268264462,504.0,40.0302,0.079425,55.5,0.8191948512468482,466.6,555.0,31.30434782608696,56.52173913043478,402.0,662.0,8.214285714285714,132.8125,,,0.0357687954123251,0.02224572357673171,0.019365074314302292,0.0773795933033591,1.607895346220074,0.4622510132884396,0.28748824628115494,-3.8056054876410186,48.894869619547606,63.42916372413933,0.7708578633039681,9743.211960994575,1.2972560151542174,4.6956722605757575,329.1354567093657,0.6434782608695652,0.6578947368421053,0.8666666666666667,0.2222222222222222,49.76155539251651,49.82961530362159,49.70307694746383,53.50877192982456,0.4701354417681833,0.5298645582318168,33.52564729499898,35.59164911500538,0.4864895008193727,0.5135104991806272,44.24108012363433,45.453114747372815,0.48039373310795386,0.5196062668920461,39.250746470955846,40.82126361936572,0.6263543105836159,1.7844454960399432,1.704518064369715,1.0167641012676882,0.6008172788209096,0.774278533578268,-0.885416066015071,0.003987522732523749,0.3226721510994802,0.6326107934305738,1.405342556090585,6.332276572608254,1.2019719677224008,1.3892749860600702,1.2795477074174662,2.0216566341771967,1.7535424664173274,1.859197671463224,4.700204382971684,1.0119420075309076,Stress,,,,,,,,,
113.86717075166577,528.4107142857143,60.29126803515582,,,,,,,78.87405858149508,79.21538868854842,0.1140992534881797,0.14926657701881396,519.0,51.149699999999996,0.0985543352601156,68.75,0.7643992095685179,480.6,575.0,40.17857142857143,66.07142857142857,402.0,685.0,10.181818181818182,140.625,,,0.03194964367688019,0.03766570499369831,0.03764551477138985,0.10726086344196836,0.848242285182915,0.29786860418260563,0.35115981528599843,-3.279005280404584,56.01373851600072,63.64685662876335,0.8800707762005474,11200.086894286613,1.136272248826637,4.756191502057222,289.2806276492459,0.6339285714285714,0.6486486486486486,0.875,0.1724137931034483,51.391494684177616,51.573682459293465,51.21854898869783,50.45045045045045,0.4644381820709469,0.5355618179290531,38.18108765534914,41.00049888831731,0.5374126427143807,0.4625873572856194,46.6585135878947,43.28862978301119,0.5055541479401339,0.494445852059866,42.63104704776326,42.16008999979431,0.5093507831354155,2.8864224310258306,1.0074495579669958,1.5538437502703695,-1.7548281692626215,-1.8049806053082502,-0.31070193107209676,0.00394454795718018,0.621630675269555,0.6259901141447926,1.9029851043382795,6.315217283854356,1.3471984155729868,1.474866204539923,1.482538492552329,1.912892542729354,1.96374604409744,1.9164434153358325,3.149811950652742,1.0940391839021149,Stress,,,,,,,,,
112.30271214831801,535.8818181818182,58.92472757340221,,,,,,,82.8735081230658,83.2560936639358,0.10995843780131717,0.15464885224926186,520.5,51.891,0.09969452449567723,69.75,0.7110200703209034,490.4,582.8,48.18181818181818,71.81818181818181,402.0,685.0,11.0,171.875,,,0.01703996730266674,0.029848913240399302,0.04338436834009421,0.09027324888316025,0.570873959980688,0.1887598764139019,0.330650703388691,-3.511606847163097,58.87094840487134,59.113346924138575,0.9958994282699251,10932.927150119529,1.0041174556523227,4.745706564221621,237.42697403423634,0.6545454545454545,0.6697247706422018,0.9041095890410958,0.21428571428571427,49.85515643105445,49.92749093466772,49.78737863829619,51.37614678899083,0.458428509218369,0.5415714907816311,39.86005612231466,43.324144324862104,0.5381267108029596,0.4618732891970405,43.363849054052075,40.17417553343132,0.49844125145988094,0.5015587485401191,41.64881438202465,41.778857459679486,0.42241184399330967,3.050597075697196,0.8921503669812456,1.6376708396072681,-1.995359078459682,-2.2408913375496224,-0.25561489959940437,0.006858242832683873,0.7928066383755008,0.5719755777365654,2.264363880173848,6.218866050061682,1.488095872413401,1.6443350984543723,1.2795262860443517,1.6418588625077357,1.9474195614756662,1.9700024436126087,4.291238532315577,1.048028319362902,Stress,,,,,,,,,
112.58101222115332,534.3063063063063,57.807327750789014,,,,,,,80.47088688689617,80.8391023394983,0.10819136339680281,0.1506081547927004,521.0,44.477999999999994,0.0853704414587332,65.0,0.7183632489603184,492.0,582.0,45.94594594594595,73.87387387387388,402.0,685.0,7.4,117.1875,,,0.02839954166726893,0.035469938798075036,0.024037919019530625,0.08790739948487458,0.8006650879479438,0.3230620156401667,0.4034920724071473,-3.3390697356541135,57.16187744929255,58.82721054566346,0.971691108911611,10564.151306168833,1.0291336319008801,4.730804722769644,242.1642433738256,0.6846846846846847,0.6972477064220184,0.9210526315789473,0.25,50.08880994671404,50.18910949052682,49.993226564416595,49.54128440366973,0.45597434831927597,0.544025651680724,38.59909206518828,42.16155037798336,0.5503234751715523,0.4496765248284478,43.64025454400333,39.448306477191345,0.5045032229086185,0.4954967770913817,41.19685500691942,40.82747368007017,0.45084068161514623,3.1436017720337492,0.8483781574058871,1.7260430856100717,-2.6956874694679893,-3.0018321749323045,-0.2208091253758327,0.005498168345514566,0.7596576564583183,0.5997113313906111,2.0680128458562135,6.237889402288692,1.446837747232049,1.3368811905610973,1.2750155326056885,1.4849590251403182,1.9472234417847418,1.9793091006904076,4.2421547372486605,1.0405862137653317,Stress,,,,,,,,,
112.30120263121836,535.2,56.18919547451623,,,,,,,76.51569365918856,76.84937675376024,0.10498728601367008,0.14296654271148831,522.0,45.2193,0.08662701149425286,60.75,0.7343486386569356,491.8,581.2,46.36363636363636,76.36363636363637,446.0,712.0,6.470588235294118,70.3125,,,0.005704186297832785,0.022767526936231464,0.017592870695704286,0.04606458392976853,0.2505404435804285,0.12383019255160453,0.49425230825797817,-3.782420015422903,54.34071543254369,55.915390733044916,0.9718382491858253,9545.673785229148,1.0289778168720647,4.68677669862436,230.1427867441481,0.7090909090909091,0.7196261682242991,0.935064935064935,0.36,48.53737811484289,48.79971597217423,48.24657076552954,47.66355140186916,0.4139075493961517,0.5860924506038482,34.96943109504516,41.612130976969254,0.52076205172083,0.47923794827917,40.35069586883937,38.708555433256805,0.4688468722064214,0.5311531277935784,37.75605758160326,40.18657554565927,0.4091282172265747,2.4890130893298505,0.7272718800742981,1.4260031538416171,-1.9394794762653262,-2.427379137818538,-0.21927376486579764,0.0034172007690884874,0.4774280552803729,0.6470862817305942,1.9042374526547452,6.110683008880866,1.413827423431764,1.308516795237818,1.127540966910998,1.4141674000592601,1.8325323176494142,2.005343926236383,3.1248470390161063,1.109677044031308,Stress,,,,,,,,,
111.68300266583176,538.8,56.08214813511998,,,,,,,72.98667718064414,73.30397197403121,0.1040871346234595,0.1354615389395771,524.0,48.1845,0.09195515267175572,66.0,0.7683888389152864,494.6,589.4,44.54545454545455,76.36363636363637,443.0,690.0,7.333333333333333,78.125,,,0.006348084660503142,0.026460252417292714,0.021788412315901395,0.054596749393697255,0.23991020797497922,0.11627220907836641,0.48464886117097905,-3.6321115807606055,51.83373567074611,59.176151053873035,0.8759227281199397,9636.273031015886,1.1416532165415745,4.690879206620571,270.23457277281693,0.6818181818181818,0.6915887850467289,0.9054054054054054,0.34615384615384615,51.48118494795836,51.603120008029,51.36152257467009,45.794392523364486,0.4538146108922946,0.5461853891077053,34.92763683410051,38.31775045589185,0.5437168582352889,0.456283141764711,43.63481245207804,39.97274065938903,0.5046742014847736,0.4953257985152264,39.521745106604534,39.15399082994461,0.4896935122251578,2.4228362438881925,0.8058227611228204,1.4229356227096583,-1.714772082356136,-2.067285240572236,-0.24529320207110278,0.002977691625668254,0.4355620404367276,0.5866939882959574,1.8152899666382494,6.068574513919505,1.4200563448829704,1.480685412420392,1.4503575532295647,1.7898856575716788,1.852985697149928,2.008440562319123,3.2106135616201317,1.048028319362902,Stress,,,,,,,,,
110.43011223576781,544.4629629629629,56.16371694803662,,,,,,,72.5478894364422,72.88170606415629,0.10315433880459773,0.1332466932950539,539.5,55.5975,0.10305375347544021,75.25,0.7741605908086487,500.4,591.0,42.592592592592595,74.07407407407408,427.0,690.0,9.0,78.125,,,0.010398230295449274,0.016090102625007603,0.008652124503034596,0.03514045742349147,0.6462500916114797,0.2959048076732785,0.4578797148568514,-4.129550939812505,51.53514858240964,59.83899001318387,0.8612302542381697,9688.07874088516,1.1611296689577908,4.69320776988549,277.9233066591069,0.6851851851851852,0.6952380952380952,0.9178082191780822,0.38461538461538464,50.93896713615024,51.087491829382195,50.80381025644921,48.57142857142857,0.49275696868751784,0.5072430313124819,36.17971390314201,36.70766718532627,0.5149280675413741,0.4850719324586258,42.939554782174774,41.67612459078375,0.5054852857077163,0.4945147142922836,39.70375966457456,39.270549977656344,0.5010293070726468,1.739394486971562,0.7312438948871329,1.2344968582275844,-1.3889743750946142,-2.0794691676182073,-0.21067347452810498,0.0010525824786641184,0.20742293089589886,0.5845927812775278,2.120263536200091,6.229379284550842,1.4258084925794303,1.1465387088416228,1.23785302767108,1.395742191894065,1.9078811689363318,1.9988993885379285,3.0118404290713294,0.9381788197449261,Stress,,,,,,,,,
111.87377383316867,536.8909090909091,51.98294453089159,,,,,,,63.99921157771248,64.28982118277526,0.09682217309082723,0.11920338097376093,530.5,51.149699999999996,0.09641790763430724,72.25,0.8122435144028318,494.6,586.0,37.27272727272727,68.18181818181817,398.0,690.0,9.166666666666666,109.375,,,0.009562823137842343,0.011686480441558457,0.009284143096116968,0.030533446675517772,0.8182808490258413,0.3131917349347257,0.3827435718525964,-4.449322623119391,45.45976851961093,57.69863973719775,0.7878828465743442,8240.293249437265,1.2692242309220532,4.622912777283453,292.93004658277374,0.6909090909090909,0.7009345794392523,0.9066666666666666,0.5,49.16714531878231,49.0790479658311,49.258936687937194,52.336448598130836,0.5141683447081775,0.4858316552918226,32.599704611249784,31.688661951813245,0.44500638897401645,0.5549936110259838,38.49006971924208,42.98427108293008,0.4714983246605502,0.5285016753394499,35.66669460247793,37.76121592869538,0.47845293765813274,2.04055779048297,0.7720326730534877,1.231467364290048,-1.5351505727804948,-1.8959153869011662,-0.27484847849968563,0.0010792212920122616,0.25963328870780417,0.5586236000900384,1.8718021769015916,6.207546845535898,1.384046405016207,1.2566017238336529,1.296803721983246,1.6642155685619968,1.891653656032292,1.9402515649895915,4.185141460349404,0.9247308700260899,Stress,,,,,,,,,
111.69177504655083,538.209090909091,49.34620170812726,,,,,,,59.62674419967278,59.89897486553703,0.0916859312516933,0.11078732263506925,532.0,45.9606,0.0863921052631579,66.75,0.8275850437662847,497.0,583.6,34.54545454545455,66.36363636363637,446.0,690.0,10.0,78.125,,,0.011158949556137438,0.006984827920942514,0.008911940879154694,0.027055718356234645,1.5975983492277186,0.41244329236469895,0.2581645709411722,-4.964014922089554,42.35497131354379,55.6623112923187,0.7609272832942656,7406.542179058962,1.3141860227047217,4.576585610377746,292.6025259672177,0.7,0.7102803738317757,0.9342105263157895,0.38461538461538464,50.67827495444421,50.67817303809694,50.67778426212553,52.336448598130836,0.5096520812421135,0.4903479187578864,30.23878733116226,29.660579899927782,0.4686303524528323,0.5313696475471676,38.104515388346044,40.57510080606441,0.48367370141299526,0.5163262985870045,34.3972262852687,35.53933599142145,0.5149066524087706,1.9373394529959134,0.8034127584605053,1.2729075473896345,-1.4348552034780973,-1.9802669443286538,-0.2576600279300049,0.0010968196057502219,0.24736420919308763,0.5655627537300321,2.580216829592325,6.218866050061682,1.4051559736532457,1.2007036111578477,1.4919689921673958,1.6601040415698347,1.974259507934094,1.9457416027818046,3.471945965003166,0.739784696020872,Stress,,,,,,,,,
108.34298256676219,554.4056603773585,55.900043155599114,,,,,,,71.43081901225761,71.77046491210457,0.1008287742184135,0.1288421531692839,547.5,60.7866,0.11102575342465754,82.25,0.7825759795083211,505.0,598.0,42.45283018867924,70.75471698113208,446.0,714.0,11.777777777777779,78.125,,,0.029811716488583044,0.014245169702280312,0.015787174475132202,0.059844060665995555,2.092759659002932,0.4981566450674124,0.2380381535568937,-4.251337397991235,50.74938242826031,60.634624533410715,0.8369703419256193,9667.213876804602,1.1947854659930937,4.692271436963549,289.7814725138696,0.6981132075471698,0.7115384615384615,0.9324324324324325,0.36,50.59419783292554,50.55947326491869,50.62897402308436,52.88461538461539,0.5160653889515221,0.48393461104847785,36.458683148504925,35.305466454055825,0.46708485675877837,0.5329151432412216,41.43988927442885,44.263904812282085,0.48726308601799956,0.5127369139820005,39.02883549377306,40.03604145497673,0.4953581187816997,2.3261937516012976,0.8172844791294163,1.389484076391272,-1.9410760532326794,-2.3067547940758715,-0.25401894323378393,0.0016704231159880196,0.35274838619033827,0.6510777836346926,1.9236870122706033,6.265471869575899,1.3802304208808802,1.0007821384876099,1.1309279181460414,1.2741391247326737,1.8953974175229373,1.9643978279519019,4.566437661696094,0.9520642152683771,Stress,,,,,,,,,
105.40192522080774,570.3557692307693,60.032825692012764,,,,,,,74.28598634325515,74.64452977440959,0.1052550511989704,0.13024499856193897,556.5,59.303999999999995,0.10656603773584905,74.5,0.8081312323783056,517.2,617.0,46.15384615384615,69.23076923076923,444.0,736.0,9.454545454545455,132.8125,,,0.0060832311120932875,0.01615287882277778,0.004585394135049119,0.026821504069920184,0.37660352552853277,0.2268042499121262,0.6022361304075013,-4.125656989918698,52.78165318196616,65.71510020979558,0.8031891150353668,10896.776313409431,1.2450367930546058,4.744268145850252,327.2708704818637,0.6826923076923077,0.696078431372549,0.9436619718309859,0.3076923076923077,50.737817433081666,50.837774519707466,50.65652990032511,57.84313725490197,0.5585348946860991,0.441465105313901,39.448961814416535,35.07184502881892,0.41090658992082507,0.5890934100791753,42.12469094900996,50.437930251288805,0.46880184118150026,0.5311981588184997,40.80876239109008,43.43972330574496,0.4840745707458598,2.5556057729477315,0.8459048025195753,1.5687110630649284,-1.9375691177558405,-2.5456642481970544,-0.2171683253353896,0.0040095414914117465,0.5336506091529771,0.6400233527318093,1.838279484862948,6.339768804637948,1.351638853896216,1.3154551852019007,1.2394300513381373,1.4275219680924336,1.8126781184682912,1.9516452304997058,2.8242398193183855,1.0308368797140142,Stress,,,,,,,,,
105.17271018978944,572.4519230769231,60.16173667184705,,,,,,,77.78879795560952,78.16168377282884,0.10509482848529593,0.1358870410243284,559.5,61.527899999999995,0.10996943699731902,79.25,0.773398461641978,518.0,618.4,46.15384615384615,70.1923076923077,454.0,736.0,9.454545454545455,117.1875,,,0.006097606808243713,0.01296510510826239,0.0030361659727995457,0.02209887788930565,0.47030909177572616,0.27592382014991534,0.5866861282824055,-4.345493752946671,55.26865662472579,63.6739699774853,0.8679945139947836,11055.813643773474,1.152081014196375,4.750560819608145,293.43028763828323,0.6826923076923077,0.696078431372549,0.9436619718309859,0.25925925925925924,50.919635459817734,50.74312332520384,51.102376636879285,58.82352941176471,0.5776646455830045,0.42233535441699566,42.010561230504415,35.921073611624756,0.38615497991754894,0.613845020082451,39.567876937715,49.88744899607054,0.4684526634442601,0.5315473365557398,40.807500170067506,43.46884572166199,0.484856028849067,2.4277078130148912,0.817205606456013,1.5641294262722807,-1.9666826388036593,-2.6972363823948156,-0.19233372491861483,0.0038108941660532146,0.4924339573464637,0.6335022974330133,1.6486586255873816,6.327796569081827,1.3883946244348038,1.4016850120593989,1.3526238059687248,1.8238136743196094,1.800676928854765,1.972083125106197,5.038677542340104,1.09526418469614,Stress,,,,,,,,,
103.53293629424803,581.3039215686274,64.31817401964635,,,,,,,81.04466437565385,81.43592269355395,0.1106446587287526,0.1394187470075168,570.0,68.9409,0.12094894736842104,83.5,0.7936139228305299,521.4,628.8,46.07843137254902,72.54901960784314,454.0,736.0,11.333333333333334,117.1875,,,0.0044819354522962354,0.02362879575984925,0.009370162888460926,0.03748089410060641,0.1896810780307337,0.11957920321393083,0.6304224145887426,-3.745289151424338,57.58389316879545,69.9838269859827,0.8228171514588524,12660.433720796915,1.2153368439476535,4.8094186939466255,340.21569366609134,0.6764705882352942,0.69,0.927536231884058,0.23076923076923078,51.16837387964147,51.05522645242774,51.27847096106281,59.0,0.5766017678838457,0.4233982321161546,43.732882365561046,37.47525850477886,0.3964790427446952,0.603520957255305,44.06642368741049,54.368063631194254,0.46920965523444963,0.5307903447655503,43.89996979838581,46.69197652169796,0.44563442635111833,2.3432615654337843,0.40967925888646395,1.537166103091828,-2.0946935044457256,-2.9344952924933603,-0.01883867305413522,0.0035965537671605037,0.4637873157458329,0.5561692955925706,1.5968591302272401,6.324290292909467,1.3789106063699197,1.2522440346045507,1.4802930289833325,1.857604663814566,1.8203578078140368,1.998233014443011,4.192322682223524,0.9158230861529503,Stress,,,,,,,,,
99.48045175578476,605.5714285714286,68.42996269043579,,,,,,,90.83683116945029,91.27455302114397,0.11300064610357408,0.15000184434681577,599.0,77.09519999999999,0.12870651085141901,102.25,0.7533283780318588,542.0,661.2,53.06122448979592,78.57142857142857,491.0,795.0,14.0,85.9375,,,0.014108291268772723,0.028360043449288205,0.022246355138063396,0.06471468985612433,0.49747072122792607,0.21800755439203534,0.4382319302207755,-3.5627740452570356,64.54085539102198,70.64693460127411,0.9135690848482758,14324.448557300288,1.0946079684450778,4.863048022058024,309.3227902430917,0.6530612244897959,0.6701030927835051,0.9230769230769231,0.18518518518518517,51.731570627963784,51.71430124479919,51.75579451429934,57.73195876288659,0.5642426900256003,0.43575730997439976,48.498711323085686,42.6206009460214,0.4557255134453928,0.544274486554607,47.69194054120674,52.119748425819374,0.5051127824858198,0.49488721751417997,48.09701754051907,47.607687409549214,0.45890710388942546,3.0597244104887897,0.4553593701186882,1.9267651197119862,-2.432929246565582,-3.3089208677219135,-0.019105137525035638,0.01146573542354602,0.9895759536043864,0.5301812073300103,1.9980959022258833,6.293181527744524,1.478184496579953,1.2591105938958167,1.3455498280743612,2.070574658822051,1.902071950793358,2.025346081477458,3.1681973298582777,1.0124555883849808,Stress,,,,,,,,,
96.34147709707364,625.0105263157894,69.4097446615053,,,,,,,93.3710283555355,93.8416477987665,0.1110537210799482,0.14939112930773163,618.0,69.6822,0.11275436893203883,93.5,0.7433756046598189,561.8,685.6,56.84210526315789,83.15789473684211,510.0,837.0,10.555555555555555,109.375,,,0.01905276078355747,0.020115463074561662,0.028477730457818425,0.06764595431593756,0.9471698818433814,0.2816541059436069,0.2973638745727977,-3.9062664524900828,66.35606551622743,71.18828649801168,0.9321205605655474,14840.175589527702,1.072822596460342,4.878409149524194,305.4896094334384,0.6526315789473685,0.6702127659574468,0.9365079365079365,0.15384615384615385,51.55811341942728,51.55073050615818,51.564878386389225,54.25531914893617,0.5456226067899443,0.4543773932100558,49.03043820901198,44.74329408516317,0.5240486225335581,0.4759513774664417,51.534056762598496,49.11225028556793,0.5340820445774472,0.465917955422553,50.29782737543674,46.978588174314396,0.4921335002840228,2.866790381450066,0.8197108288917899,1.8599142440978493,-2.337389675250904,-3.204164539908615,-0.13715400263066724,0.010057927929327883,0.8593979229132792,0.5102671793090003,1.9810014688665836,6.180176134555645,1.5519844771122793,1.1016821955047282,1.1568407474429232,1.8255793128979885,1.8313898480082575,2.0164635569019587,3.161077926397133,1.1065019971925807,Stress,,,,,,,,,
94.42653410166628,637.1195652173913,72.31278858691235,,,,,,,97.16769236510888,97.7043320837746,0.11349955728049026,0.1525109220777961,620.5,71.9061,0.11588412570507654,99.25,0.7442060918272722,569.4,703.2,58.69565217391305,83.69565217391305,518.0,837.0,11.5,117.1875,,,0.015062586873215433,0.020247400287216992,0.017647493902909744,0.052957481063342166,0.7439269565251326,0.2844279329524596,0.3823331450187214,-3.8997288745492926,69.08739576773938,75.6172572702131,0.9136458827230441,16412.306392776478,1.0945159595308247,4.9221397259492115,331.0571795927861,0.6847826086956522,0.7032967032967034,0.921875,0.2857142857142857,50.35951327433629,50.34690876125282,50.36777949121465,56.043956043956044,0.5442176395687993,0.45578236043120096,50.967418786689386,46.64285106589814,0.4740102369164838,0.5259897630835161,52.061272779180214,54.84153055560525,0.5059528384284266,0.49404716157157325,51.517249058766666,50.90750941284075,0.5407840302506135,2.132822524254553,0.5333959651694569,1.58309073020817,-2.00521473444838,-2.95700561010894,-0.007837734691219088,0.0044598339445111835,0.43374726105440753,0.5594265063348636,2.3608540011180215,6.124052309294366,1.516806512289585,1.1838626126905154,1.4860073758531036,1.8470181322384485,1.9348384308895068,2.0194254502379296,3.5717039713279197,0.9927159498347627,Stress,,,,,,,,,
93.73442965475301,641.9673913043479,67.34501149557927,,,,,,,88.81589799277906,89.28060879175895,0.10490410012687379,0.1383495473381025,629.5,60.0453,0.09538570293884034,79.25,0.7582540177779273,585.4,694.4,53.2608695652174,81.52173913043478,517.0,837.0,13.142857142857142,148.4375,,,0.024395045601196996,0.03483548764523446,0.0282203087977297,0.08745084204416116,0.700292926846232,0.27895724078766354,0.3983436503406467,-3.3571186518831095,63.13092390511604,70.3370743584351,0.8975483339469482,13950.067785412617,1.1141461269305943,4.8515464278767215,313.4631159043187,0.6847826086956522,0.7,0.9206349206349206,0.22727272727272727,51.54750851129681,51.58023650624003,51.51625098474257,55.55555555555556,0.5728931003354545,0.42710689966454557,47.79824497010556,41.27085331481933,0.45558840431553876,0.5444115956844612,47.47561846226395,51.89768473573335,0.5079434489275672,0.4920565510724327,47.637204843465994,46.886314710493636,0.5062990826144752,2.1156738223935836,0.7773261940574057,1.502336942710314,-1.4928992341262308,-2.369301131924325,-0.15731449669653622,0.004196764930535842,0.43082486902332484,0.5099602062241377,2.1400661634962708,6.1892697005987145,1.5226487155201547,1.0135749690044504,1.405815440594198,1.7907883466101124,2.0384360822772685,1.980205199922251,2.9962805632614047,0.9927159498347627,Stress,,,,,,,,,
91.5846405008124,656.3666666666667,61.65880200886602,,,,,,,84.41131241084544,84.88510831642807,0.09393956935990963,0.12860389885355558,649.5,57.080099999999995,0.08788314087759815,80.25,0.7304566206572082,609.4,700.6,56.666666666666664,81.11111111111111,539.0,837.0,12.857142857142858,93.75,,,0.05672198437385259,0.07116733779376606,0.05163859298222565,0.1795279151498443,0.7970227091847347,0.31595077749613015,0.39641377071841843,-2.6427213046686644,60.02283571230089,63.65291281237245,0.9429707622214899,12002.85788843024,1.060478267262665,4.786254774126274,270.0101227419449,0.6555555555555556,0.6704545454545454,0.8813559322033898,0.25,49.367088607594944,49.32475959333008,49.41042806317954,55.68181818181818,0.5383797814078395,0.46162021859216046,44.04368956966584,40.783240764715195,0.48727455803323944,0.5127254419667605,44.432950235974616,45.578572189427916,0.5113297800951276,0.4886702199048726,44.2387480472814,43.24742171563305,0.7311170461003418,2.9000986432842204,0.8289164213914284,2.1811663677424518,-2.111179551077573,-3.09117922008356,-0.03372277543647053,0.015602703099283043,1.0504047625806014,0.5925310074820884,2.197224577336219,6.239021012972304,1.5824103765759627,1.3278700197829525,1.4084891719515171,1.6573815399073315,1.903439467102226,1.9766141107650321,5.128407671835679,1.0819755160549458,Stress,,,,,,,,,
90.69882344111382,662.8876404494382,60.27370114777317,,,,,,,83.62347973886499,84.1020925094751,0.09092596915354699,0.12615030758782622,659.0,59.303999999999995,0.08999089529590287,78.0,0.720774850986741,613.6,704.0,56.17977528089888,76.40449438202246,555.0,837.0,9.88888888888889,109.375,,,0.04395301822157725,0.09121905296236447,0.037051547646962536,0.17222361883090426,0.4818403260524045,0.25520900396787044,0.5296547220502132,-2.394491489660341,59.469159925428194,61.05400208277856,0.9740419611608491,11406.589526571473,1.02664981579255,4.764125923425209,250.72431996673032,0.651685393258427,0.6666666666666666,0.8793103448275862,0.23809523809523808,50.23769100169778,50.23249609192645,50.24143158175905,52.87356321839081,0.5314247920776635,0.46857520792233665,43.352670309780294,40.70845318750812,0.5146664501941366,0.4853335498058634,43.8002981200542,42.5338107265068,0.5228253528550367,0.47717464714496344,43.57705897828655,41.63113748048355,0.760058356529809,2.7600784542816585,0.8061167023781053,2.114495776812712,-1.8084972924980534,-2.7572936787822018,-0.02596308543152355,0.01277804956157298,0.9182524394439463,0.6239216816448101,1.9924301646902065,6.0712390489439265,1.5547129177216306,1.628446476636967,1.3790955535907892,1.647737137659711,1.8519253226381627,1.9871139336618135,3.429033651287495,1.0914157467920895,Stress,,,,,,,,,
91.07573006894238,659.9888888888889,58.96933014396522,,,,,,,78.86056532922487,79.30566762383704,0.08934897410658209,0.119487716622001,659.5,54.856199999999994,0.08317846853677027,75.25,0.7477670226910208,612.8,700.0,51.11111111111111,70.0,534.0,837.0,10.0,140.625,,,0.05683502181188536,0.08666615112756387,0.028486883576365977,0.1719880565158152,0.6557926142148612,0.3304591200299951,0.5039079624671174,-2.445691885180521,56.077575363341595,62.21790372080728,0.9013093018205915,10961.108455293632,1.1094970372324562,4.746824584883478,276.12231936419954,0.6111111111111112,0.625,0.8545454545454545,0.25,50.42341678939619,50.37059242380695,50.47149791208388,55.68181818181818,0.568384252651358,0.43161574734864216,42.27850033893221,36.842339156810525,0.44069089782408666,0.559309102175913,41.30307774541456,46.53088557257303,0.4979286009905552,0.5020713990094448,41.79363481532117,41.96713754065995,0.8118753538409761,1.815799063514167,1.081281833324618,1.573242656025563,-0.7191012018564447,-1.3656415300615778,-0.22906648506094088,0.003340152612507452,0.3155028513209519,0.5493823064594143,1.8803128665695001,6.07507781850382,1.4957858241865318,1.6585195067056666,1.1369925481964673,1.3202928909970837,1.7636124016273749,1.9540471146406584,3.5515519107721185,1.2262389181956053,Stress,,,,,,,,,
92.33909307355765,650.7472527472528,59.12145566667418,,,,,,,73.25981162956946,73.6490785179409,0.09085164081305262,0.11257798065268702,642.0,53.373599999999996,0.08313644859813084,84.0,0.8070107518923965,606.0,696.0,48.35164835164835,64.83516483516483,533.0,788.0,10.11111111111111,70.3125,,,0.04917696574119487,0.05883657528010496,0.017111297935251173,0.12512483895655102,0.8358230489636198,0.3930232090709929,0.4702229850664237,-2.8329915888839277,52.077762848176484,64.32913960443736,0.8095516770223399,10524.70508130176,1.2352515946581193,4.729180045029329,317.85068911746407,0.5934065934065934,0.6067415730337079,0.8148148148148148,0.3333333333333333,48.405972558514925,48.441159898064285,48.36793069985508,57.30337078651685,0.5705214996998115,0.42947850030018836,39.34712987262836,34.13876178451373,0.3863731566817772,0.6136268433182226,39.98629962003699,50.39180533523105,0.4593040516009525,0.5406959483990474,39.66800213343781,43.03945341848334,0.7085808476961961,2.7771571987996353,1.1517500807341046,1.9209266924660895,-1.6131076656952565,-2.2490049731486463,-0.2230345433580626,0.008121348613775264,0.7697010304308964,0.49167406329842356,1.9278916435526348,6.087303843424077,1.3719434673744322,1.4738700350836496,1.1898662721851736,1.2242454051545817,1.6991894218047858,1.9258558778012773,2.9358347814322943,1.001199175415184,Stress,,,,,,,,,
94.13086443945275,638.7065217391304,59.0175124025601,,,,,,,71.87359172055608,72.26992038145187,0.09240161231149112,0.11252991675245758,635.5,53.373599999999996,0.08398678206136899,69.5,0.8211293047941682,585.0,691.6,44.565217391304344,64.13043478260869,522.0,779.0,11.5,85.9375,,,0.04053334473421446,0.04896901430634349,0.013438234225428235,0.10294059326598619,0.8277345441475168,0.3937547224881553,0.4757016911668015,-3.016567541991148,51.10255077753649,65.4388780798293,0.7809203378333622,10505.779854944976,1.2805403465025218,4.7283984060306015,335.1884944443235,0.5869565217391305,0.6,0.8333333333333334,0.21739130434782608,49.518935516888426,49.39131005879897,49.63940730095741,54.44444444444444,0.5545396722748246,0.44546032772517563,38.05573398173905,34.10816129120224,0.3969633033052822,0.6030366966947177,41.229780755461796,50.81684704114686,0.45665813016385354,0.5433418698361466,39.6745114023622,43.276544512414475,0.8695676069430393,1.8002947830568186,1.1791507713901521,1.5826596824833947,-0.6878915141896531,-1.257467122665891,-0.27586508893387846,0.0023345010476966753,0.27825132362341426,0.47826650890490807,1.9859154836690125,6.077697282049906,1.3561544314510443,1.4810657256133954,1.1285575613098546,1.143798464597624,1.7561593044688792,1.8975917353665184,3.4969678727142215,1.1345325140968718,Stress,,,,,,,,,
94.41605485362692,635.9247311827957,66.35842015297449,,,,,,,85.98837130682264,86.41138729793627,0.10434948807471345,0.13521784433023631,632.0,74.13,0.11729430379746834,104.0,0.7717138857787549,579.4,693.6,51.61290322580645,73.11827956989248,496.0,779.0,11.625,85.9375,,,0.05171661317626186,0.05256613359408094,0.015029247565740235,0.11931199433608303,0.9838390164972161,0.4334569501083381,0.4405771095067814,-2.945683214618895,61.102077930107825,69.14977996205602,0.8836192676771475,13273.842338819934,1.1317091382907407,4.829966764929172,313.029751575411,0.6021505376344086,0.6195652173913044,0.8596491228070176,0.20833333333333334,47.85226163358282,47.76518878004447,47.92686946160953,56.52173913043478,0.5118118686126235,0.48818813138737643,43.737415772557235,42.716095738782535,0.395965322363862,0.6040346776361378,43.51303530515215,53.74297933063767,0.44678994049253246,0.5532100595074675,43.625369797452464,48.543653872046875,0.675465526006964,2.0063924232495625,0.9553401459433064,1.5280873127675192,-1.3576577460660388,-2.033179541215747,-0.21453881095873117,0.002325191393282034,0.32285727959597016,0.4848730296909314,1.6451559950361796,6.229966472375092,1.4106528811574697,1.5520891094795548,1.0397237488215085,1.0253909621106778,1.940167776081438,1.9463907171368326,3.2905336216198457,1.1953301052563066,Stress,,,,,,,,,
95.74608043597098,627.9574468085107,61.73249869851096,,,,,,,81.02720902357761,81.46600463489936,0.09830681841939469,0.1290329614456918,620.5,58.5627,0.09437985495568091,80.0,0.7618736896213196,577.4,688.0,50.0,71.27659574468085,518.0,772.0,11.75,125.0,,,0.054377045651834016,0.06365103257051082,0.027196317613274387,0.14522439583561922,0.8542995055358554,0.37443464879953003,0.43829435271025663,-2.754339731478558,57.605164313512056,66.09089696767312,0.8716051219835665,11960.599229556945,1.1473085400464802,4.78472304844117,303.30660204137354,0.5957446808510638,0.6129032258064516,0.8245614035087719,0.21739130434782608,49.80271058500598,49.76539906788865,49.84292626184658,52.68817204301075,0.5318998399889941,0.4681001600110059,42.01248520432323,39.412395975400166,0.4479158372103799,0.5520841627896201,44.232333885365776,49.10710031192136,0.4841735910195824,0.5158264089804174,43.136691307922284,44.524399252358506,0.6510174203455686,1.9152588705931097,0.9530744393675983,1.4979155728366467,-1.4000539739016702,-2.1870768013056603,-0.21552611407546998,0.001814244249214755,0.28511173457770383,0.5102149386189203,1.8562979903656263,6.1635794101652595,1.4885157356509544,1.493132891023379,1.2852098029421335,1.4867268113906609,1.9116148555425774,1.9499226562012058,4.869035442924815,1.1156746981578958,Stress,,,,,,,,,
99.55839493966894,603.3775510204082,70.27670132113376,,,,,,,74.91651711126508,75.28900360327452,0.11647218429370564,0.12416192313514024,608.5,73.3887,0.12060591618734594,92.75,0.9380668513561525,536.4,659.6,44.89795918367347,70.40816326530613,457.0,772.0,10.88888888888889,164.0625,,,0.04533594231896619,0.1028347783298115,0.04100390911075172,0.1891746297595294,0.44086196377615405,0.2396512808117837,0.5435970904794719,-2.274631672573921,53.237364996653824,83.41107306051474,0.638252968620007,13950.511542457112,1.5667768881077688,4.851560242732211,522.746165933932,0.6020408163265306,0.6185567010309279,0.8833333333333333,0.10344827586206896,48.609343755680776,48.42401635179884,48.78626554351059,53.608247422680414,0.5196515132868366,0.48034848671316344,38.385652701671404,36.90549586443732,0.44878695561688964,0.5512130443831101,55.87838182591927,61.92748625306297,0.4693053920666112,0.5306946079333887,47.936686831781344,50.975627404786806,0.7086536176782736,2.211725138195014,1.0622641514297806,1.6658445293567077,-1.4967293386825773,-2.208378104623346,-0.22709973427371358,0.0028603488418463105,0.4028212319451715,0.5366712498050559,1.6986690461620433,6.219251808378844,1.2514988687198827,1.1786202984935235,1.2863827544446362,1.5117177382303784,1.8569166163747917,1.8985916930901976,4.23576655652391,1.0124555883849808,Stress,,,,,,,,,
104.60059119995299,575.0776699029126,81.31187711044004,,,,,,,81.61591059802677,82.0188386010137,0.1413928611141648,0.14192154359219958,581.0,83.0256,0.1429012048192771,111.5,0.9962748257618033,498.6,640.2,49.51456310679612,76.69902912621359,379.0,756.0,14.714285714285714,156.25,,,0.007775154522544719,0.013440348191503604,0.0059119688466982515,0.027127471560746574,0.5784935339294133,0.2866155257091988,0.49545156323937595,-4.309494037116794,57.99607695982175,99.35453305313337,0.5837285444118215,18102.400821850766,1.7131250639929272,4.964706286739118,680.826963178546,0.6407766990291263,0.6568627450980392,0.9104477611940298,0.13333333333333333,50.108527131782964,50.13728721974664,50.089542950765555,50.0,0.49470003149661923,0.5052999685033807,40.79154930925651,41.226253290785955,0.511036215455463,0.4889637845445369,71.0253734181697,69.47459657324916,0.5068844850344025,0.4931155149655973,57.91612109007281,57.12409093111138,0.5585617637236053,1.8836641890286678,0.5368540757315716,1.3904820151953974,-0.9461423131025342,-1.7263186270174504,-0.04682583847176691,0.002502648469247614,0.3146280339516267,0.5858308947909823,1.528468849900433,6.349074434929203,1.224559826180871,0.8980091559849853,0.9227945237240672,1.33417036770542,2.017334271222499,1.9439858698354797,3.219312462016937,0.9088447318501461,Stress,,,,,,,,,
105.68201850346448,569.3846153846154,79.9919058638693,,,,,,,81.64129451983099,82.04006603361044,0.14048835128753054,0.1433851430367202,559.0,83.76689999999999,0.1498513416815742,111.75,0.979797127597468,501.2,635.4,48.07692307692308,75.0,379.0,750.0,11.555555555555555,156.25,,,0.00593046504165597,0.007832521038990594,0.006734249614481795,0.02049723569512836,0.7571591588626299,0.2893299920957381,0.3821257244386458,-4.849470849027192,58.011087021358094,96.58501461688397,0.6006220245600834,17602.348940755335,1.6649406100824142,4.952540735954333,643.2332526442148,0.5865384615384616,0.6019417475728155,0.9193548387096774,0.0967741935483871,50.21624961383999,50.25477575516991,50.189328541897936,47.57281553398058,0.4743316349271551,0.5256683650728449,39.95346557890449,42.06000615367357,0.5282035587435744,0.4717964412564257,70.19568417621966,66.34177395560141,0.513921487219663,0.48607851278033715,57.11266710954883,55.544014480514335,0.7164210446040259,1.9158721941120151,1.0128968067555943,1.5508476516658727,-1.0237302760059421,-1.7803426408164214,-0.21921360591612296,0.0026854378841059696,0.32564144667901224,0.6223855154904636,1.9740810260220094,6.3205380354071785,1.2253039748071215,1.0690402948678779,1.1025115242190007,1.3733783557733013,2.081713080825672,1.9244829887905839,3.0803186956857016,1.09526418469614,Stress,,,,,,,,,
