PPG_Rate_Mean,HRV_MeanNN,HRV_SDNN,HRV_SDANN1,HRV_SDNNI1,HRV_SDANN2,HRV_SDNNI2,HRV_SDANN5,HRV_SDNNI5,HRV_RMSSD,HRV_SDSD,HRV_CVNN,HRV_CVSD,HRV_MedianNN,HRV_MadNN,HRV_MCVNN,HRV_IQRNN,HRV_SDRMSSD,HRV_Prc20NN,HRV_Prc80NN,HRV_pNN50,HRV_pNN20,HRV_MinNN,HRV_MaxNN,HRV_HTI,HRV_TINN,HRV_ULF,HRV_VLF,HRV_LF,HRV_HF,HRV_VHF,HRV_TP,HRV_LFHF,HRV_LFn,HRV_HFn,HRV_LnHF,HRV_SD1,HRV_SD2,HRV_SD1SD2,HRV_S,HRV_CSI,HRV_CVI,HRV_CSI_Modified,HRV_PIP,HRV_IALS,HRV_PSS,HRV_PAS,HRV_GI,HRV_SI,HRV_AI,HRV_PI,HRV_C1d,HRV_C1a,HRV_SD1d,HRV_SD1a,HRV_C2d,HRV_C2a,HRV_SD2d,HRV_SD2a,HRV_Cd,HRV_Ca,HRV_SDNNd,HRV_SDNNa,HRV_DFA_alpha1,HRV_MFDFA_alpha1_Width,HRV_MFDFA_alpha1_Peak,HRV_MFDFA_alpha1_Mean,HRV_MFDFA_alpha1_Max,HRV_MFDFA_alpha1_Delta,HRV_MFDFA_alpha1_Asymmetry,HRV_MFDFA_alpha1_Fluctuation,HRV_MFDFA_alpha1_Increment,HRV_ApEn,HRV_SampEn,HRV_ShanEn,HRV_FuzzyEn,HRV_MSEn,HRV_CMSEn,HRV_RCMSEn,HRV_CD,HRV_HFD,HRV_KFD,HRV_LZC,Labels
75.17350222520658,798.0958904109589,52.38483781474093,,,,,,,33.57743951590776,33.794555589331814,0.06563727296950084,0.042071936366716446,803.0,63.751799999999996,0.0793920298879203,83.0,1.5601200856879784,757.4,850.6,12.32876712328767,53.42465753424658,676.0,895.0,10.428571428571429,85.9375,,,0.056132376206077306,0.05555628595171361,0.0004880414676706003,0.11217670362546152,1.0103694882495278,0.5003924557588493,0.49525689520353866,-2.8903586108517425,23.896359424402267,70.3234979661648,0.3398061830755302,5279.369747285815,2.942854043882203,4.429552189386999,827.8071614786797,0.3698630136986301,0.38028169014084506,0.7037037037037037,0.0,52.07684319833853,52.11836460258839,52.03048221849681,40.845070422535215,0.4778382773233467,0.5221617226766532,16.5276124056376,17.277152543170995,0.5960028608208517,0.4039971391791481,54.290599463819184,44.69815629370341,0.583758976643495,0.41624102335650526,40.12873759521865,33.88528571560477,1.1511182989765656,1.6264700738342963,1.4447094385807016,1.577205772872234,-0.4174580404266557,-0.4886760738804057,-0.418537490223118,0.000521914494645206,0.15604715121562338,0.5182936791732691,1.882731247433782,5.905511031453121,1.1369191843575592,0.0,1.1224602518922333,1.3089988478707075,1.8693592581650094,1.7428527070576967,2.4999834088925534,0.9327132896942493,Relax
73.95569904931756,811.2916666666666,46.02584622933902,,,,,,,35.335614241198876,35.57035140951489,0.05673156537949445,0.04355476050479036,811.5,58.5627,0.07216598890942699,77.0,1.3025342057214353,766.2,855.2,15.277777777777779,56.94444444444444,709.0,907.0,10.285714285714286,62.5,,,0.0376774499197625,0.047611427873058755,0.00011530316846174629,0.085404180961283,0.7913530764130376,0.44116633981705344,0.5574835720822948,-3.0446824651929014,25.15203669085645,59.84645006609061,0.42027616781079147,4728.914096657019,2.379387832550621,4.381731534849139,569.5916604344171,0.4305555555555556,0.44285714285714284,0.7419354838709677,0.0,48.07788317523715,48.160841475734344,47.99528255840839,45.714285714285715,0.4452854451726432,0.5547145548273568,16.791792212693846,18.741855373925574,0.5753537115751688,0.4246462884248313,45.39477353389498,38.9988733339755,0.5558126557936535,0.4441873442063464,34.224623810261946,30.595500193464794,1.3273467927949254,1.5545681322659823,1.5591777104613425,1.8422683759153526,-0.39870789598377776,-0.7641641963286139,-0.31789755007947496,0.0012265695138073526,0.17616602002638138,0.5353159547254323,2.302585092994046,5.853884897245597,1.2660540279842711,1.2155029466287972,1.3100846076987125,1.5240334282452732,1.8281902196938047,1.8238328417958414,2.3140804516434055,1.1140142363715286,Relax
73.98092152452264,811.4722222222222,50.82473951831776,,,,,,,37.69671409448212,37.924254700223244,0.06263275331733953,0.04645471904293829,814.0,55.5975,0.06830159705159705,74.0,1.348253839603417,767.0,856.8,19.444444444444446,59.72222222222222,692.0,931.0,12.0,132.8125,,,0.0514498528076634,0.031535220241672525,0.0006141296451775923,0.08359920269451351,1.6315044706640256,0.6154347308271634,0.37721915072453355,-3.4566502548518265,26.81649766997365,65.68036588491769,0.4082878849511947,5533.341737613941,2.449252198897688,4.449957602908073,643.4711222721575,0.4027777777777778,0.4142857142857143,0.7241379310344828,0.0,47.10280373831775,46.86330103368459,47.32882703476608,52.85714285714286,0.5169385691914287,0.4830614308085714,19.301369307457364,18.658203863946053,0.45004770094911867,0.5499522990508813,44.0620640219337,48.70775068614517,0.45962274384541385,0.5403772561545862,34.01476402252294,36.88206575242395,1.1603362331682114,2.0873663461623777,1.4748010680417392,1.72960298536471,-1.0669165647955587,-0.8678565284582507,-0.37793138574288887,0.000820162192918369,0.24365109477717478,0.4802170391560212,2.224623551524334,5.94770277922009,1.2001925687694253,1.0040957551880973,0.9174523576181041,0.9585153659896086,1.9095289164529443,1.8088823339625062,3.013771824477855,1.0283208335737186,Relax
74.59359347185924,804.5753424657535,58.19147460663785,,,,,,,40.253364248635584,40.53550000386551,0.07232569970178368,0.05003057156247485,808.0,63.751799999999996,0.07890074257425742,88.0,1.4456300906230537,759.4,858.6,24.65753424657534,63.013698630136986,665.0,931.0,10.428571428571429,101.5625,,,0.0496124001222982,0.014397111376885124,0.00017439283625317613,0.0641839043354365,3.4459968269712764,0.7729726110617231,0.22431030841693986,-4.24072769135024,28.66292693152062,77.37157060188316,0.370458124457706,6967.096439657167,2.699360424241868,4.550021932111268,835.415022576636,0.3835616438356164,0.38571428571428573,0.6296296296296297,0.0,49.739130434782595,49.74332951357333,49.73531372712603,51.42857142857142,0.5548926832613317,0.44510731673866827,21.351518071173814,19.123026456214255,0.43414605149433194,0.5658539485056678,50.97994242490881,58.201421011476796,0.4487176766060708,0.5512823233939294,39.08223287883306,43.31913866064423,1.370605031929468,2.0272371460525758,1.641891679465257,1.9421419324314906,-1.0269424909951201,-0.8521891189939463,-0.35189189456651426,0.0010817294651547062,0.23831666066077017,0.4457766127886922,1.897119984885881,5.888454695866318,1.1334642225235907,1.1154850884137704,0.7053290564081187,0.7194873094744019,1.851635666726926,1.751403639161164,2.3915034163650613,0.8479211724493175,Relax
73.9905395940635,810.7916666666666,64.23503004208095,,,,,,,40.075105545800405,40.34777388088291,0.07922507431059884,0.04942713053595815,814.0,69.6822,0.0856046683046683,91.0,1.6028661476304544,761.0,867.8000000000001,23.61111111111111,62.5,665.0,938.0,10.285714285714286,101.5625,,,0.05216095849942324,0.015982053214158506,0.00031262089309988577,0.06845563260668164,3.2637207372838573,0.761967372343471,0.2334658611072213,-4.136288860404668,28.530184516953767,86.46542440597997,0.32996061388649833,7749.914846235608,3.030664745774735,4.596267040595436,1048.1908539026156,0.3333333333333333,0.34285714285714286,0.5833333333333334,0.0,51.549541684853786,51.4689249543414,51.62567395614314,52.85714285714286,0.5884308102466961,0.4115691897533041,21.892105556896205,18.308858121529198,0.4374405697457999,0.5625594302542002,57.18761790057905,64.85249398877122,0.45227376846048195,0.5477262315395182,43.29946839660341,47.650080074842954,1.5094559462330897,1.3789700093135746,1.6417512935431455,1.930917041791269,-0.6688187374734618,-0.8960054465728184,-0.29030309122381504,0.000612547928629919,0.10813591061532256,0.5212225257371141,2.128231705849268,5.853884897245596,1.086829657210736,1.0813640707963716,0.8786315167422896,1.0813640707963716,1.7975906403139739,1.7545473360328383,2.7862792571033728,0.9426274307759088,Relax
73.24367905493874,819.3888888888889,66.81518667622676,,,,,,,40.16567801171599,40.45099874908891,0.08154270527982112,0.049019065984872726,823.0,74.87129999999999,0.09097363304981773,98.5,1.6634895757700725,765.0,879.2,23.61111111111111,62.5,665.0,938.0,14.4,179.6875,,,0.042576751288041545,0.01168387761639695,0.00016227219558955704,0.05442290110002805,3.6440600189349874,0.7823315263878794,0.214686784060303,-4.449545368972562,28.603175521249316,90.69099369853748,0.31539157698864845,8149.449714100273,3.1706617201003815,4.618098394260268,1150.2018483112709,0.3611111111111111,0.3714285714285714,0.6538461538461539,0.0,49.67602591792657,49.659000435337106,49.694393592042424,50.0,0.5460307482779393,0.45396925172206065,21.136292417140172,19.272296919968532,0.45574817058445,0.5442518294155498,61.22469460418939,66.90585257398573,0.46391645679814086,0.536083543201859,45.79959654035783,49.233192752569586,1.3528919052860127,1.7404847579079412,1.5897209863053297,1.8391982796566841,-0.7321564915411845,-0.71759525793078,-0.3566621786155567,0.000743244290901815,0.1739973332257541,0.5804311851986923,2.2192034840549946,5.919925001442312,1.074366770422784,1.0027407383207625,0.728087666153735,1.0027407383207625,1.8983284654893589,1.7278787034618344,2.8971374224317405,1.0283208335737186,Relax
73.51993706098679,816.5,68.15082693018189,,,,,,,39.210339251597304,39.487562670210515,0.08346702624639546,0.04802246081028451,819.5,76.3539,0.09317132397803539,100.0,1.7380830727549914,764.2,879.2,19.444444444444446,62.5,665.0,938.0,14.4,101.5625,,,0.05000683106618228,0.012077117138916151,0.00021397266909971822,0.06229792087419816,4.140626483206414,0.802704654737419,0.19386067736199705,-4.416442762397016,27.921923336634624,92.29398832908966,0.3025324167059975,8095.9649021681,3.305430905183972,4.615238726697169,1220.285605542647,0.3472222222222222,0.35714285714285715,0.6,0.0,49.40186087727072,49.34183601582166,49.46085485197564,51.42857142857142,0.538563013585687,0.46143698641431297,20.491984495685834,18.9680181960508,0.4634368462548965,0.5365631537451035,62.83023639599906,67.60578138083322,0.46973681598013234,0.5302631840198676,46.73093212289133,49.650414854252375,1.552093359592765,1.7201129285754924,1.7562804999525854,2.088146795737835,-0.6855524497087728,-0.8179966402513141,-0.30706714642271554,0.0014837107870808589,0.199916145814327,0.6087351245289394,2.70805020110221,5.947702779220088,1.0572438509670314,0.0,0.0,0.0,1.9761722101442218,1.7042370170555625,2.5247120735641855,0.9426274307759088,Relax
74.23335547666633,808.6164383561644,68.17311097024053,,,,,,,38.858361033659435,39.11584456169454,0.08430834167659215,0.04805536864011145,808.0,68.19959999999999,0.08440544554455444,96.0,1.7544000610624935,750.2,874.4,19.17808219178082,64.38356164383562,665.0,938.0,12.166666666666666,109.375,,,0.025546222755373743,0.01194703994732119,0.00024089018130309028,0.03773415288399802,2.138288887290597,0.6770053334417683,0.316610789807543,-4.427271734441149,27.65907894141314,92.56421870944254,0.29880961917082133,8043.234418916008,3.346612477787495,4.612400836299306,1239.1062773186843,0.3835616438356164,0.3943661971830986,0.6071428571428571,0.0,51.724137931034484,51.813793219345605,51.63153272276686,47.88732394366197,0.5599808679335527,0.44001913206644716,20.70585410858961,18.354490566171048,0.4964521745480732,0.5035478254519268,65.22015828474761,65.68459133314282,0.5016632416870086,0.49833675831299123,48.38595581908933,48.22526756040676,1.389270876697419,1.788434605262644,1.6733827612708279,1.869477346146418,-0.3849721524397012,-0.3308143034602722,-0.39035406477901813,0.0012958066303426186,0.21289918949871026,0.5967081675650086,2.219203484054994,5.970646476688235,1.0299981985973914,0.0,0.0,0.0,1.9137382226722708,1.730667966146312,2.2511506054919113,0.8479211724493175,Relax
73.63185248102033,815.3888888888889,59.15307322521359,,,,,,,35.87085599562903,36.10410277827919,0.07254584166068301,0.04399232867216206,815.0,65.9757,0.0809517791411043,84.0,1.6490566389723615,765.0,870.0,15.277777777777779,56.94444444444444,692.0,938.0,12.0,85.9375,,,0.017993873716830523,0.009043483179024335,0.00023179877741490233,0.02726915567326976,1.9897061077711662,0.6598617842234399,0.3316378140702425,-4.705710871375695,25.529455903177286,78.82412355826335,0.3238787156866645,6321.943093295468,3.087575538515619,4.507820692199456,973.5017429737065,0.4305555555555556,0.44285714285714284,0.6774193548387096,0.0,52.186732186732186,52.421594444799844,51.96806177690365,42.857142857142854,0.503431592543538,0.4965684074564619,18.124963054149536,18.00099203615496,0.6074369905015646,0.3925630094984354,61.434137887307855,49.38713553924357,0.5975519374818261,0.402448062518174,45.291652562426115,37.16937496822707,1.3508842613089396,1.5076909788167976,1.5700103314026252,1.9485222231921497,-0.3575535116700985,-1.0232081875061958,-0.24894597294296195,0.0022944719130944193,0.20534299916683374,0.539954572607066,2.151762203259462,5.826107119467819,1.060048383342591,0.0,0.0,0.0,1.9121132055023031,1.7170564069342082,1.9866270791056686,1.0283208335737186,Relax
73.80698052962502,812.7534246575342,58.099957167204956,,,,,,,33.50186561969348,33.68717998677923,0.07148534279223276,0.04122020849535023,814.0,63.751799999999996,0.07831916461916462,82.0,1.7342305000785365,759.4,858.4,13.698630136986301,54.794520547945204,692.0,938.0,12.166666666666666,85.9375,,,0.031948322452107186,0.017137778158110174,0.00033601274815575854,0.04942211335837311,1.86420445855685,0.6464378044791662,0.3467633614499548,-4.066470003263489,23.82043340770334,78.3763186174963,0.3039238615423537,5865.221155245668,3.290297757225106,4.475254502319911,1031.5257014668337,0.4794520547945205,0.49295774647887325,0.7428571428571429,0.0,46.5974025974026,46.672187128295974,46.52932475118246,45.07042253521127,0.42827090371360327,0.5717290962863967,15.611705611901474,18.037910000415753,0.5902210669355762,0.40977893306442414,60.21327012587189,50.17179905863534,0.5764896443033052,0.42351035569669476,43.98501592226546,37.699970941389196,1.336334048458863,2.4116060656996656,1.759555993412329,2.238461918396781,-0.45551593376308297,-0.7247263698391828,-0.30141618824237376,0.010916682353101219,0.6642280941475674,0.5471620633603722,2.3272777055844167,5.703389284848141,1.054171834640168,0.0,0.0,0.0,1.9476231630663943,1.6842660851736417,2.084629915963748,0.7631290552043858,Relax
74.90040704377039,801.068493150685,49.1045734369019,,,,,,,33.8203998267975,34.03794888071636,0.06129884505102498,0.04221911124450592,802.0,59.303999999999995,0.07394513715710722,71.0,1.4519217303278016,758.4,847.8,13.698630136986301,56.16438356164384,692.0,917.0,9.125,109.375,,,0.047449153195770304,0.019141797062222164,0.0001795901930705193,0.066770540451063,2.4788243779584795,0.7106300604313127,0.2866802774533694,-3.9558810069665244,24.06846447123559,64.72498625610433,0.37185739022023584,4894.070525999228,2.6892029748494206,4.396640333422924,696.2345023480144,0.5068493150684932,0.5142857142857143,0.7222222222222222,0.0,47.87506400409626,47.99141242211821,47.75832863929043,42.857142857142854,0.4290814158217473,0.5709185841782528,15.775047152894864,18.196501753258456,0.6078941482087868,0.39210585179121316,50.46449693443406,40.52972236528879,0.5861497966907269,0.4138502033092734,37.38661233330429,31.414734369907766,1.3170869047167912,2.55011059710863,1.7463469324400887,2.223456182244433,-0.5229171078602288,-0.6077433873262166,-0.3129064479221799,0.011834865638323817,0.7185672903206177,0.504845357127564,1.8718021769015911,5.7581838053960865,1.1684287044255013,0.0,0.8703100223339229,1.0891772066723977,1.8623450663137662,1.6421749916527697,2.135291234438714,0.9327132896942493,Relax
75.51746030325573,794.2297297297297,46.062360141918056,,,,,,,33.263785894795475,33.49375779549554,0.05799626785261831,0.0418818191382925,795.0,52.632299999999994,0.06620415094339621,70.5,1.384759999586369,755.6,833.8,12.162162162162163,55.4054054054054,692.0,917.0,10.571428571428571,85.9375,,,0.05014713857732675,0.018135100682080407,0.0002820444782803025,0.06856428373768746,2.765197693491604,0.731388644985765,0.26449777775644084,-4.009905954452349,23.68366326461468,60.50642757408322,0.3914239232785101,4501.945802531461,2.5547748630797646,4.360370372327047,618.3212008840966,0.4864864864864865,0.5,0.6944444444444444,0.0,49.77005620848237,49.78702544862422,49.75295386291344,44.44444444444444,0.46054993624107055,0.5394500637589292,16.072751268321593,17.395122240955303,0.6175794972571454,0.3824205027428546,47.54971813212403,37.41726985408387,0.5967167301849954,0.40328326981500456,35.49161188068089,29.177408736136176,1.388641707252876,1.5938897141629602,1.7095061100571267,1.8284292726935811,0.0040801043599199005,-0.15904179017342113,-0.4253880857754907,0.0012218430964976484,0.18934913650772717,0.554924285056476,2.0583881324820035,5.793846777761875,1.1869855755331558,1.0558423752496766,1.1748034532101232,1.5700664472902897,1.8901037134637615,1.6253078647287322,2.40164724587698,0.8391153196795879,Relax
75.4337764815344,795.418918918919,43.0533300246626,,,,,,,32.07226429465655,32.288516932850655,0.05412661052012423,0.040321223863077155,793.5,48.1845,0.06072400756143667,64.0,1.34238510973594,759.2,833.0,9.45945945945946,52.702702702702695,718.0,917.0,7.4,54.6875,,,0.04002870239474257,0.014890385803062666,9.146732774130356e-05,0.05501055552554654,2.6882246655093005,0.7276549384445592,0.2706823383404603,-4.207039522409481,22.83142927767536,56.49788017466987,0.4041112552734598,4052.426303849556,2.474566068008439,4.314685235611277,559.230948778579,0.5,0.5070422535211268,0.75,0.0,48.840885142255004,48.88533092458669,48.79808100076054,43.66197183098591,0.4365028632307898,0.5634971367692104,15.087016124984938,17.1417699721405,0.6029722116195528,0.3970277883804473,43.871330150000404,35.599394027160336,0.5795960009405189,0.42040399905948106,32.80481416412757,27.938836168305194,1.3812122483598577,2.3033575871784593,1.7188201850654445,2.2261177314243774,-0.6682905016787526,-0.895752868222659,-0.2797573641267066,0.008312560816681993,0.5569486350857807,0.4997671125222376,3.4657359027997265,5.827498466892592,1.229580960602731,1.0397207708399179,0.0,0.0,2.129865647812753,1.6339997641306532,2.628551161080998,0.7552037877116291,Relax
75.22190413206275,797.7702702702703,40.97962985361937,,,,,,,32.0290963609439,32.24809883131715,0.05136770744757912,0.04014827019073175,796.5,45.2193,0.05677250470809792,60.75,1.2794500785101668,761.6,833.0,9.45945945945946,48.64864864864865,726.0,917.0,7.4,46.875,,,0.04323366742850198,0.022185625628783776,0.00011447263691713006,0.06553376569420288,1.9487242844488613,0.6597159032527018,0.33853732337475484,-3.8083106940177323,22.802849363998337,53.63128460120684,0.4251781312634308,3841.99849593399,2.351955395797209,4.291527300469846,504.5535568053768,0.4864864864864865,0.49295774647887325,0.7714285714285715,0.0,49.21301154249737,49.20204507680388,49.2253945388279,43.66197183098591,0.43908236299540643,0.5609176370045936,15.111162173116341,17.07947110812666,0.5990790420829261,0.4009209579170738,41.51071967578376,33.95842811400648,0.5745801930577404,0.4254198069422595,31.236893813435767,26.87827350582138,1.2889109965990928,1.1272578752313818,1.4977080597660093,1.4893553556305492,0.18693041311225045,0.11293486235736516,-0.5074097545193424,0.00019085509456801607,0.06893666188803739,0.5097124425681296,2.862200880929468,5.793846777761875,1.268148985536649,0.9902032923993944,1.264856364566422,1.3753145526361816,2.033410233218733,1.669202853224076,2.9109652294528665,0.9230268516475466,Relax
75.52593315767301,794.5540540540541,39.09739923799434,,,,,,,31.43137774341613,31.648823379534665,0.0492067204723299,0.03955851409107257,792.0,38.547599999999996,0.048671212121212115,51.25,1.2438970877178297,762.0,825.2,6.756756756756757,52.702702702702695,726.0,917.0,7.4,46.875,,,0.03521841284804361,0.02593721936610724,0.0001788620099882218,0.06133449422413907,1.3578330179087863,0.5742023847028463,0.4228814420694982,-3.6520763006697146,22.37909762824431,50.85588054489821,0.4400493588639544,3575.473980181278,2.2724723485147944,4.260303731856283,462.2743291906108,0.5,0.5070422535211268,0.75,0.0,49.869723814486704,49.87516048788045,49.864534668826465,43.66197183098591,0.46039185235513524,0.5396081476448646,15.184741976368544,16.439282222773596,0.5775932271966986,0.42240677280330163,38.650242610250686,33.05267511360794,0.558579703768037,0.44142029623196294,29.36339253833016,26.102962783616324,1.3469856263820454,2.2135895872101705,1.3884389845285487,2.4537804199871305,-1.3050390756989714,-2.308124781676127,-0.018726758738844523,0.012295445845638442,0.684404325345777,0.4723449568744398,1.8191584434161696,5.7193903587844845,1.3261213930642122,0.0,0.8992081185402192,0.888439874701069,1.9206642197880146,1.6906278645657757,3.235592301438979,1.0069383836155055,Relax
75.96760170092784,790.8918918918919,41.49354383435281,,,,,,,31.84702304317201,32.06243314975481,0.05246424228107351,0.040267226620557164,791.0,34.8411,0.04404690265486726,45.0,1.3029018058643638,762.0,823.0,6.756756756756757,52.702702702702695,682.0,917.0,6.166666666666667,125.0,,,0.03450142331486234,0.048172238588691664,0.0001833044710647991,0.0828569663746188,0.7162096744028309,0.4163973751931981,0.5813903247542508,-3.0329723867461387,22.67156390153198,53.33866090685421,0.4250493641211492,3799.0364473746295,2.3526679120380387,4.286643570091334,501.9526239465346,0.5,0.5138888888888888,0.7837837837837838,0.037037037037037035,48.94493051981472,48.84968167290166,49.03342485593102,45.83333333333333,0.41420062399546187,0.5857993760045382,14.593329907110911,17.35495446391158,0.5180807864181768,0.48191921358182316,38.39201012593334,37.02791252321158,0.5021807408147785,0.49781925918522174,29.042311540987452,28.915919060882825,1.1451526358179134,0.923789664225497,1.2596254626926326,1.4716892818389855,-0.29788089922986316,-0.9282205456592658,-0.27044144640420215,0.00013955804768448347,0.045736851594897716,0.5899029255395605,2.0794415416798357,5.617906912780065,1.258820849091448,0.0,1.1494794607216627,1.3114092771797807,1.9209750636091125,1.7443033964381496,2.3065317748817487,1.174761447551423,Relax
75.13454346706942,798.7837837837837,50.807256053428404,,,,,,,36.0133156500424,36.255986751741645,0.06360576802493152,0.0450851862308093,792.5,40.0302,0.050511293375394326,55.25,1.4107908460066654,763.8,836.8,9.45945945945946,50.0,682.0,948.0,7.4,125.0,,,0.022703832930710224,0.03595401502781654,0.00016915105740842817,0.058826999015935195,0.6314686388472873,0.38594239567719846,0.6111822059472596,-3.325514517384575,25.636854090766143,67.31393968865524,0.3808550533417501,5421.501891638593,2.6256708194512957,4.441089723602778,706.976988731226,0.4864864864864865,0.5,0.7777777777777778,0.037037037037037035,51.223091976516635,51.27276581985636,51.171583172626676,44.44444444444444,0.5221170704915609,0.47788292950843914,18.527944360403886,17.72572675206545,0.5447503574324855,0.45524964256751443,49.68253775331235,45.418189294583364,0.5418823543119364,0.45811764568806373,37.49426142646051,34.47472485522905,1.2064905049797232,2.484107877659233,1.4454581125794919,1.9985935665304866,-1.6890613596107702,-1.5103835591546497,-0.27733034103486176,0.0034318478111599513,0.41570524276476567,0.6222134130946779,2.3608540011180215,5.709189176322816,1.1601071826411642,0.0,1.1322360310980635,1.3849134516330368,1.789185600611143,1.6682941394917064,2.1498824331289637,1.174761447551423,Relax
75.47522660416158,795.2027027027027,51.61660021013462,,,,,,,37.09945906632196,37.3548586429042,0.0649099909176644,0.046654090762304784,788.5,39.2889,0.04982739378566899,57.5,1.391303310322144,760.0,835.0,13.513513513513514,51.35135135135135,682.0,948.0,8.222222222222221,101.5625,,,0.02954779070107729,0.01925937359387109,0.00047839744578393286,0.04928556174073232,1.5342031015214472,0.5995222466269946,0.39077110848782465,-3.9497573968237694,26.413873856662473,68.48508458973616,0.38568797884818723,5683.004091087723,2.592769427210008,4.46154807864706,710.2641341766367,0.5,0.5138888888888888,0.7837837837837838,0.037037037037037035,49.45159752026706,49.428793030673276,49.47611499703547,45.83333333333333,0.4942025379447624,0.5057974620552375,18.569501578903214,18.786076404259262,0.53926844876901,0.46073155123098997,50.29195314874751,46.48576405468133,0.5334323836427267,0.4665676163572733,37.90848810230173,35.4530882040914,1.3430103639019475,1.75006568236929,1.5277181279022993,2.2180432050865924,-1.5127198599940197,-2.592705745620057,-0.10554333237955336,0.007259059625960725,0.40204780912463045,0.5863274040657105,2.005333569526114,5.682162149295789,1.1399906100494999,1.2139080381261051,1.0763739835564499,1.4312452751371638,1.7929333282691131,1.6297690003559635,2.4892420001224123,1.2586729795193818,Relax
75.0143980934964,799.7534246575342,51.88710523335944,,,,,,,37.2838213349079,37.54495479652262,0.064878878456292,0.04661914558336948,792.0,45.9606,0.05803106060606061,60.0,1.3916788401938527,761.4,838.6,13.698630136986301,53.42465753424658,682.0,948.0,9.125,101.5625,,,0.03649936747567051,0.02504905029712522,0.0009899844067228194,0.06253840217951855,1.4571158204692254,0.5836312762020666,0.4005386998091364,-3.686919364460363,26.548292135963536,68.70716477480933,0.38639772464744687,5730.446842679019,2.5880069581476186,4.465158598202031,711.2584820472059,0.4794520547945205,0.5,0.7222222222222222,0.037037037037037035,49.66666666666667,49.673338446181866,49.660885912706135,45.83333333333333,0.4959035229702455,0.5040964770297544,18.695672467554743,18.84947789466351,0.5348124593832634,0.46518754061673684,50.246149451372084,46.86148692373281,0.5297577738562447,0.4702422261437554,37.909126234349586,35.716255218069755,1.2680782321952293,2.8234637957424225,1.4570674680292566,2.4658515526977287,-2.3630640846864637,-2.7021397095796384,-0.14271400037441778,0.011400819869251186,0.7975656233058749,0.47479232504281565,1.466337068793427,5.79592199035723,1.1359830910526527,0.7426036163924252,1.146485518577362,1.5232116931538686,1.7392659732136753,1.6314474328094228,2.5218010268417865,1.017505406939181,Relax
74.49879310601436,805.3698630136986,51.98009951716433,,,,,,,38.22193959843831,38.462672187455816,0.06454189795810648,0.04745886499329836,802.0,45.9606,0.057307481296758105,62.0,1.3599545199241576,764.0,844.4,16.43835616438356,58.9041095890411,682.0,948.0,10.428571428571429,101.5625,,,0.03227565053689516,0.023362501935677384,0.0008106252285757516,0.0564487777011483,1.3815151573131095,0.5717688115014509,0.4138708203632572,-3.7566230233464246,27.197216326305224,68.25953876373521,0.39843832552754527,5832.270760887415,2.50979872148586,4.4728077876910755,685.2708124737484,0.4794520547945205,0.5,0.75,0.037037037037037035,52.37659963436928,52.41447578622625,52.33341945344521,44.44444444444444,0.5178065522027646,0.4821934477972352,19.58477419532046,18.899288309128185,0.5248660565309622,0.47513394346903776,49.45242502104956,47.05127300908386,0.5238976870166863,0.47610231298331374,37.610541878203634,35.853907669645245,1.2897511211014343,2.543477776640086,1.3287846212904513,2.4644317056180918,-2.0075871569975536,-2.591099204954862,-0.05350618953399255,0.012478142397957396,0.7611983205256777,0.44837196588209016,1.493925025312256,5.79592199035723,1.109947420086331,0.6481343284950913,1.0370660098223967,1.1860485860574599,1.7321978928390616,1.6564884090323049,2.2346473382682115,1.1022975241841126,Relax
74.40897055681872,806.6301369863014,54.03124272362012,,,,,,,37.39225261408512,37.629190609359284,0.06698391275769765,0.04635613139100968,805.0,50.4084,0.06261913043478261,66.0,1.4449849620257254,762.0,845.8,19.17808219178082,49.31506849315068,682.0,948.0,12.166666666666666,164.0625,,,0.024359669537922256,0.018791614747357573,0.0007790163661276787,0.0439303006514075,1.2963052864495133,0.5545072347949384,0.4277597573590815,-3.974344532721284,26.6078558504391,71.60830069539426,0.371575021220277,5985.812647671935,2.6912465663486573,4.4840932295231655,770.862373474168,0.4794520547945205,0.5,0.7777777777777778,0.03571428571428571,47.61445783132531,47.5276914826041,47.705356170119344,47.22222222222222,0.47917432377395214,0.5208256762260477,18.43106685333523,19.215420743928487,0.513578853288239,0.4864211467117608,51.317670562136904,49.94242101218151,0.5094000035812941,0.49059999641870605,38.55650099059901,37.838325880806266,1.3701555133869967,1.9778228384582395,1.4283161410863685,2.3512034614796073,-1.8392877630409412,-2.676673675104543,-0.03338221075824378,0.006173318070799597,0.43343338230721934,0.45920700023149363,1.7047480922384248,5.833660175318374,1.100704803356082,1.3222098493049346,0.9235409824471383,1.3060748317835835,1.6956863798323454,1.6117173646064857,2.5821699584490183,0.9327132896942493,Relax
74.88676977586275,801.4657534246576,49.5252691371286,,,,,,,30.154002866765282,30.316842109509984,0.06179336911840272,0.03762356998775985,791.0,50.4084,0.06372743362831858,75.0,1.6424111039570695,759.4,840.2,12.32876712328767,46.57534246575342,723.0,948.0,10.428571428571429,39.0625,,,0.007960352544782397,0.025412479066176257,0.0013806574144276168,0.03475348902538627,0.31324580825243226,0.22905189573822715,0.7312209443953465,-3.6725149237889063,21.437244639796383,66.38339981302195,0.3229308034866752,4470.728819875506,3.0966386272322954,4.357348437713196,822.2616002720356,0.4520547945205479,0.4722222222222222,0.7941176470588235,0.0,46.54688377316115,46.54684902850533,46.552138031944246,45.83333333333333,0.38289519910794734,0.6171048008920524,13.286390368120474,16.867336548890023,0.6012700778941803,0.3987299221058198,51.47475483701478,41.9178408938813,0.5805874913268911,0.4194125086731088,37.591079756671405,31.950058117773967,1.1477798907554522,2.5698631506452774,1.1748668739577166,2.416963058046055,-2.113374708377812,-3.08187789231374,-0.016668354975845515,0.009619991479293901,0.737551401577531,0.5095028597938027,1.4307461236907244,5.850716510905175,1.0878923613850084,0.6323396030897085,0.8867133254783338,1.5439002469818064,1.6592257919082216,1.7015188209022754,2.437429460729814,0.7631290552043858,Relax
76.21795995534085,787.4266666666666,39.472595123272114,,,,,,,29.661149400921463,29.859141113469114,0.0501285983752207,0.03766845937093164,780.0,42.9954,0.055122307692307686,53.0,1.3307844072302148,753.0,822.0,12.0,52.0,723.0,881.0,8.333333333333334,70.3125,,,0.009655938638924088,0.014163276920879762,8.486153746092867e-05,0.02390407709726478,0.6817587972659863,0.4039452600338613,0.5925046536308399,-4.25710279652418,21.113601161740046,51.97190452236284,0.40625028764637894,3447.313801204461,2.461536718640926,4.2444509280168505,511.72300527798615,0.4666666666666667,0.4864864864864865,0.8333333333333334,0.0,48.97959183673469,48.97024955985281,48.990515277426034,45.94594594594595,0.4205271565495208,0.5794728434504793,13.693814221947276,16.074739819790945,0.61670941813326,0.38329058186674003,40.81397765332716,32.17604835580825,0.5889111160285242,0.41108888397147564,30.440937237801123,25.433200231874903,0.9894471822240185,0.3213177191255825,1.1093597402786264,1.1501060417868096,0.5819730771017788,-0.4052041728498681,-0.3731899951889729,0.00010058996793497621,0.009975951460270064,0.5075499330153024,1.4733057381095203,5.691956523742676,1.2302702638457812,0.7706859126359051,0.7425740270917782,1.118927362694873,1.6271342724061828,1.8052361797565044,3.606257077964168,0.8305091587327841,Relax
75.58336924185367,793.4666666666667,44.89306613929803,,,,,,,29.832414802911497,30.020072268160195,0.05657838952188459,0.03759756528681503,785.0,41.5128,0.05288254777070064,62.5,1.5048418452171926,756.8,838.2,12.0,49.333333333333336,690.0,900.0,9.375,101.5625,,,0.008628379742888773,0.017011108667975068,8.640049777837303e-05,0.025725888908642216,0.5072203059364655,0.33539675824341303,0.6612447378741673,-4.073888697274744,21.227396672526293,58.93225862799939,0.36019995104075164,3930.064647700398,2.7762358021166524,4.301369804334325,654.4393852105995,0.4533333333333333,0.47297297297297297,0.7714285714285715,0.0,48.03063457330415,47.84292765470591,48.2050977999198,48.64864864864865,0.43660603115794594,0.5633939688420542,14.033716737894208,15.941674513719375,0.5026542104590285,0.49734578954097136,41.78185797571978,41.560647866632074,0.4950618432001916,0.5049381567998084,31.166238635602717,31.47558130833773,1.0029420738752748,0.8094480812313121,1.1207942556401655,1.1545211756558778,0.44536677199509445,0.16293518496431325,-0.4583334363281118,0.00020688470117137571,0.037341198218755,0.42691530223293883,1.3217558399823195,5.835355023771521,1.1640748460198167,1.0546561306215325,0.8979734222584835,1.2284417660729072,1.8144451739036305,1.7285959430563445,2.501867378203956,0.7474582428595056,Relax
75.6419359211674,793.2432432432432,48.6977850501369,,,,,,,33.80889078172206,34.007794119625,0.06139073413475521,0.042621088890075515,782.0,45.9606,0.05877314578005115,75.5,1.4403839914341157,754.8,844.4,17.56756756756757,51.35135135135135,687.0,900.0,9.25,78.125,,,0.02388562996200447,0.025633428140321487,9.933839828325003e-05,0.04961839650060921,0.9318156678556887,0.4813865752737738,0.5166113769921357,-3.6638579925633756,24.04714183518283,64.26602193494213,0.37418127201845897,4855.0617235941245,2.6725014712940216,4.393164865533504,687.0041527013868,0.44594594594594594,0.4657534246575343,0.7941176470588235,0.0,47.15157680569685,47.2121509747192,47.09498843194732,50.68493150684932,0.4592291651686201,0.5407708348313799,16.312699551780714,17.701812524898877,0.5246907534855059,0.4753092465144943,46.55144037893116,44.30671477315016,0.5166364761191576,0.48336352388084247,34.87936903113249,33.73750984183591,1.224061715239336,1.2497110563735108,1.261215845648767,1.570389922975512,-1.0540983943471325,-1.2580382563208037,-0.252603551236935,0.0005059055969008254,0.07413689821404273,0.44804690058730756,1.1394342831883646,5.864726676381287,1.118077664287665,0.8966501512483795,0.5767352480350759,0.7675283643313483,1.8047957921142894,1.6992298210823042,2.2390582476318057,0.6712922557436702,Relax
75.90117600447648,790.7432432432432,49.133327363719566,,,,,,,32.8981408476661,33.0602685204206,0.06213562718816112,0.04160407455741761,780.5,49.6671,0.06363497757847533,67.5,1.4934986019796692,749.4,841.8,14.864864864864865,47.2972972972973,687.0,900.0,10.571428571428571,78.125,,,0.05275397390636086,0.0320539212110931,0.00035985909699074586,0.0851677542144447,1.645788468716394,0.6194125275809331,0.3763621749422232,-3.4403357564192305,23.377140058637554,64.67531746731294,0.36145381227471235,4749.849189092557,2.7666052094091054,4.383649930663568,715.7242809010227,0.40540540540540543,0.4246575342465753,0.6774193548387096,0.0,46.086054950751674,46.13323245592703,46.04050764970874,52.054794520547944,0.4494918171807562,0.5505081828192441,15.704077672870685,17.379345979255568,0.5091914959772338,0.4908085040227665,46.1507900565479,45.31005701446596,0.5022688670714262,0.4977311329285738,34.471100057868156,34.31503266296582,1.2983403732561933,0.6194382921704396,1.3096693026233284,1.4028146376435897,-0.05018788331337909,-0.4833997913979511,-0.34962935582511223,0.00014300701139369044,0.014922022275249289,0.45518567607042737,1.0986122886681096,5.847900831815929,1.1124516007691283,0.8234437518530995,0.5699315822817,0.8509909123167633,1.925501314661807,1.7021142680586188,2.157752651135507,0.6712922557436702,Relax
75.72558739054175,792.4054054054054,49.767106625643706,,,,,,,33.773419069090984,34.001482866759034,0.06280510744393795,0.04262138904998009,781.5,53.373599999999996,0.06829635316698655,77.0,1.4735584372975121,754.0,846.6,14.864864864864865,51.35135135135135,687.0,900.0,10.571428571428571,125.0,,,0.05413680020928478,0.025011302547845206,0.00023742071147706968,0.07938552346860707,2.164493436746213,0.6819480157574715,0.315061253677264,-3.6884274543674063,24.042679105483526,65.91765451349221,0.364738085463317,4978.912323002571,2.7416933954942677,4.404104588522561,722.903992104458,0.40540540540540543,0.4246575342465753,0.5806451612903226,0.0,48.86649874055416,48.7785017043149,48.951280821408396,50.68493150684932,0.4823519521539146,0.5176480478460854,16.700798384109266,17.301051670025405,0.5264260817447591,0.47357391825524064,47.8267031949729,45.362359264704146,0.5212496464169907,0.47875035358300944,35.82115440048448,34.329797748814215,1.3498854681094024,2.358074498296175,1.648815590168211,1.9008933179956,-0.8998872256537389,-0.1898035400381728,-0.39310018491378135,0.0024198623582497953,0.3409187896858039,0.5143917538725828,1.8607523407150064,5.783645595300207,1.1615127490173145,0.8117616754587242,0.7752541475067041,0.9448158692759602,1.8010211132082141,1.6896265046505403,2.6181650057096912,0.6712922557436702,Relax
75.4860405484765,794.9864864864865,49.114764469108266,,,,,,,35.290768710307,35.53133331131491,0.061780628103724554,0.04439165861331517,789.0,54.856199999999994,0.06952623574144486,74.0,1.3917170485086046,750.2,846.6,14.864864864864865,59.45945945945946,687.0,900.0,10.571428571428571,140.625,,,0.04926566776606464,0.017651205748323205,0.00020577267202297504,0.06712264618641083,2.79106529426437,0.7339649219020006,0.2629694559315026,-4.036951183583561,25.124446729030236,65.05660513849548,0.3861936336140529,5134.968410091809,2.5893746373855597,4.417507886158961,673.8236933601092,0.40540540540540543,0.4246575342465753,0.5161290322580645,0.0,50.87470449172577,50.90516101771021,50.842520244938605,47.94520547945205,0.4964088124333184,0.5035911875666816,17.7035777928267,17.831191460160166,0.5466491437608431,0.45335085623915694,48.10007269739532,43.80348021163849,0.5401273712174989,0.4598726287825011,36.24247273684138,33.44171248261887,1.37506650861004,1.064546176943992,1.4797126117673995,1.8082328433724761,-0.5226282235253024,-1.2725218718288431,-0.19139879629443188,0.000463872254489189,0.07659625025720015,0.48425393796371896,1.6341305250244718,5.901954885869983,1.2238084698445777,0.9578387755901728,0.0,0.0,1.7970807462601703,1.6953382509131438,2.619974855478662,0.7552037877116291,Relax
75.9763195233938,789.8108108108108,50.83216425277652,,,,,,,33.318512686961775,33.489423351379386,0.0643599246262441,0.042185435082557766,782.0,60.0453,0.07678427109974424,78.0,1.5256432581598458,744.4,846.6,12.162162162162163,54.054054054054056,687.0,900.0,10.571428571428571,171.875,,,0.04727330557683425,0.02791412683492223,0.00031826751501467154,0.07550569992677114,1.6935262154678088,0.6260892306498986,0.36969562380051596,-3.5786223801314776,23.680598349787477,67.01355953342143,0.3533702509561119,4985.45994384932,2.829893001163243,4.404675341187447,758.5648124266626,0.4189189189189189,0.4383561643835616,0.53125,0.045454545454545456,46.264811952601754,46.42411565155937,46.101727486804236,47.94520547945205,0.44052863436123335,0.5594713656387664,15.745369689742652,17.744130484942527,0.5399498531302499,0.4600501468697501,49.24242141385846,45.45328475082295,0.5288782417925951,0.4711217582074049,36.55634509470752,34.502574261249414,1.3600906151518157,2.4266601217335353,1.6669754371164835,2.0188507455470495,-0.8404405709914915,-0.3143944968022119,-0.35499604774516325,0.004469950984982109,0.43424466292221475,0.5875457764635104,1.55814461804655,5.810672622327234,1.1420756773222027,1.1427436640990978,0.6641892266786649,0.9651824277601488,1.8356847200446442,1.7055943389449209,2.0619347490613524,0.7552037877116291,Relax
76.501749490502,784.7866666666666,46.93045266548563,,,,,,,33.61225645183292,33.828289973298766,0.05980026758713914,0.04282980060632136,775.0,51.891,0.06695612903225806,74.5,1.396230352244812,741.6,827.2,10.666666666666668,60.0,699.0,899.0,9.375,125.0,,,0.052235479273735896,0.019092578755096522,0.00018617102400685076,0.07151422905283927,2.7359048740229652,0.7304207843049108,0.26697594322088974,-3.958455566287025,23.920213236064452,61.54237785860787,0.38867872949304244,4624.759912679445,2.57281894819485,4.372059301889833,633.3495834863742,0.41333333333333333,0.43243243243243246,0.5625,0.043478260869565216,48.2707509881423,48.13868163870229,48.396776719413324,47.2972972972973,0.46800392325726037,0.5319960767427397,16.370496348154244,17.45385305029723,0.5419614940211395,0.45803850597886064,45.306288698935305,41.65098410386478,0.5322483250159838,0.46775167498401643,34.063565185959355,31.93306642903063,1.177022599690508,1.9701998545845916,1.366201826821388,2.0538651303575866,-1.0958871468772795,-1.7936564740550223,-0.15096774221354844,0.00634108255415938,0.4292218039600521,0.5719719704094546,1.504077396776274,5.7352246903804955,1.2033392568537107,0.9516656224425799,0.5493061443340548,0.9253254935281234,1.7737911510541142,1.8037958837375327,2.7611958136257626,0.9135600746060626,Relax
76.98612689308207,779.4736842105264,47.79999265947239,,,,,,,32.48281596988373,32.70155518796793,0.06132342069750002,0.04167275512679209,775.5,53.373599999999996,0.0688247582205029,75.25,1.4715470698042281,738.0,824.0,9.210526315789473,61.8421052631579,672.0,893.0,9.5,148.4375,,,0.047297288073781335,0.03452138500944081,0.0005076534903785151,0.08232632657360066,1.3700866306739028,0.5745098808884304,0.4193237624732145,-3.3661762916296873,23.12349142875824,63.570464556773246,0.36374583055165827,4618.050384561323,2.7491724055871547,4.371428776875037,699.064667879349,0.3815789473684211,0.4,0.5666666666666667,0.045454545454545456,49.97528423133961,49.97770467563776,49.972412461967316,44.0,0.47287546597586405,0.527124534024136,15.901087843119242,16.788429091232786,0.5880371205048963,0.4119628794951037,48.74810706419626,40.8022796130513,0.5745804297954368,0.4254195702045631,36.25756843017011,31.198376343753633,1.2770799192955644,1.453551133049776,1.3369172115475745,2.0038554858204525,-0.6232495491861556,-1.656020333969163,-0.04116627952844159,0.007212985848115568,0.3263682842335747,0.5756365445887286,1.6486586255873819,5.744445112042396,1.184341787271006,0.9614708007309003,0.7227779876203455,0.8145241345053705,1.7882445221761962,1.724595779576407,2.4876209872163835,0.986514870543724,Relax
76.85075969758581,780.5733333333334,48.38085765452476,,,,,,,33.8188736686516,34.048022905216754,0.06198118176535806,0.04332568411507558,777.0,45.9606,0.05915135135135135,64.0,1.4305874917227475,739.8,824.6,9.333333333333334,66.66666666666666,672.0,906.0,9.375,101.5625,,,0.0434026387587621,0.03651996991286817,0.0009219342315960306,0.0808445429032263,1.188463157618012,0.5368654110731574,0.4517307984112648,-3.3098960471092638,24.075587882273663,63.75854945539503,0.37760564015209835,4822.421882848271,2.648265528018075,4.3902353113118835,675.3982745566329,0.4,0.4189189189189189,0.5806451612903226,0.043478260869565216,49.39467312348669,49.434669037424186,49.353835935789235,41.891891891891895,0.4534058013824068,0.5465941986175932,16.212205785714545,17.800454049926973,0.5220518284156122,0.47794817158438796,46.06756301974768,44.07870535845658,0.5134845796233752,0.4865154203766249,34.53299855947048,33.613899137568005,1.2178557700060253,0.8984049382046899,1.4376792943938668,1.632097905903719,-0.6719571362697874,-1.6719571362697874,-0.28359578933485713,0.0012851669092659426,0.08883489841112899,0.5974479975606881,1.5755363607584192,5.665289857076006,1.1837673489188394,0.6229567731581436,0.7096001707281367,0.7604683573879616,1.7758569004464553,1.736923441460756,2.308878794412415,0.9135600746060626,Relax
76.85360944235444,780.8684210526316,46.72139898169807,,,,,,,35.20056817723259,35.43754816320988,0.05983261420498523,0.04507874467478308,777.5,42.2541,0.05434610932475884,57.75,1.3272910467370538,743.0,818.0,10.526315789473683,67.10526315789474,672.0,906.0,7.6,101.5625,,,0.04574324342511887,0.02420810190780962,0.0006898069098132038,0.07064115224274169,1.8895840574085627,0.6475438462262476,0.3426912095746142,-3.7210679122701125,25.058130614830585,61.58859143213614,0.4068631873557604,4848.404135329972,2.45782865365404,4.392568922941108,605.4968190403837,0.40789473684210525,0.4266666666666667,0.59375,0.043478260869565216,50.114521300962004,50.120298455004054,50.10787162033441,41.333333333333336,0.4649040686100441,0.5350959313899559,17.085634870232916,18.330118473246245,0.5197837013932352,0.4802162986067647,44.40292710098215,42.67944071165248,0.5119892954782163,0.4880107045217837,33.64178097287697,32.844542185138636,1.2394624636574616,0.5460471591935594,1.4222155138017003,1.4489579553801226,0.06895284889151654,-0.9310471511084835,-0.45102539931181507,0.0009089889752370003,0.0432241624112049,0.5872288097338161,1.4508328822574617,5.75437784233402,1.2230331232698768,0.6373612927313929,1.1051267888104865,1.1905641122410004,1.7403114625117326,1.7650194524834533,2.761413264699919,1.0687244430890344,Relax
76.64666701888895,782.5066666666667,50.75920189065798,,,,,,,34.947450898804114,35.150588405247184,0.06486743698540329,0.04466089860636431,778.0,50.4084,0.06479228791773779,68.5,1.4524436142034878,740.4,827.2,12.0,65.33333333333333,672.0,906.0,9.375,101.5625,,,0.049152292199455105,0.031040808122739932,0.000667182514306516,0.08086028283650155,1.5834733427396508,0.6078669338671546,0.3838820126996593,-3.4724525491239353,24.855219424047515,66.99430258644982,0.37100497302698543,5231.248425585467,2.6953816598228295,4.4255754545923836,722.3008580165518,0.4,0.4189189189189189,0.6129032258064516,0.047619047619047616,52.71535580524345,52.64742695266315,52.77897914408547,41.891891891891895,0.4995906083338867,0.5004093916661134,17.58579750743772,17.600202364963625,0.543615903351547,0.45638409664845286,49.39510889119382,45.258809050525215,0.5382798048230911,0.46172019517690915,37.07517401405891,34.33749350170724,1.2322744018039153,0.10882257429777198,1.2594066708618499,1.2538328798567253,0.8853066832168146,-0.04908966456261199,-0.5512190695826856,8.639545366670282e-06,0.0007211801735222308,0.48206830322142125,1.4271163556401458,5.898753523800367,1.1560314122999702,0.0,1.127403355668788,1.2907518628904815,1.7799180388410076,1.6880795992262623,2.5908509052906905,0.8305091587327841,Relax
75.8741287881271,791.1081081081081,50.09021110383254,,,,,,,37.95310733213268,38.206799302448715,0.06331651842580724,0.04797461553376752,789.0,53.373599999999996,0.06764714828897338,63.25,1.319792096744186,749.6,831.6,17.56756756756757,67.56756756756756,672.0,906.0,9.25,109.375,,,0.05155554281085363,0.018426497722507654,0.0006186356087803774,0.07060067614214166,2.7979024330749196,0.7302414881559476,0.260996051729154,-3.993965556693012,27.016286874194936,65.79060228143554,0.41064051608200974,5583.922655280186,2.4352200059097147,4.453909504065138,640.8583635064045,0.3783783783783784,0.3972602739726028,0.5172413793103449,0.0,51.31118881118881,51.34525563277164,51.27352340563133,42.465753424657535,0.4693396226415095,0.5306603773584906,18.512758363415816,19.685019685029527,0.5408467990968916,0.45915320090310846,48.383913610473016,44.580267521497866,0.5305246021749176,0.46947539782508246,36.63144358667795,34.459398226669,1.3637696646468402,0.6691436987462946,1.438083314608615,1.6315498827028314,-0.07459273944950162,-0.9190628079002492,-0.21087440790865283,7.336464543006929e-05,0.02498219357964408,0.4698500901282987,1.4816045409242156,5.912156068331651,1.2012082105026758,0.5994738181995927,1.0345485001202424,1.0979626985352178,1.8220543830025386,1.7132534176050382,2.6627780557291536,1.174761447551423,Relax
75.35157443814104,796.3783783783783,45.630350000519805,,,,,,,36.12857556841592,36.37847516181697,0.05729732403513313,0.04536609298959442,790.5,52.632299999999994,0.06658102466793168,65.0,1.262998866758823,752.4,834.4,14.864864864864865,63.51351351351351,710.0,906.0,10.571428571428571,85.9375,,,0.05583120818800893,0.03402730354878432,0.0005621350635688501,0.09042064680036209,1.6407767400071755,0.6174608362543293,0.3763222754191585,-3.380592031082056,25.723466476147166,58.95125427433671,0.43635147025778176,4764.007273645116,2.2917305616255486,4.384942525850097,540.4015642666247,0.3918918918918919,0.4109589041095891,0.5,0.0,50.162112088930066,50.18403808695642,50.14041068669863,42.465753424657535,0.42263735110458095,0.577362648895419,16.723029696266828,19.545886182689866,0.583062045687447,0.416937954312553,45.01429324270919,38.06525691988548,0.5574022727109809,0.4425977272890191,33.95545845930251,30.257275579962215,1.279917026361101,1.8592049927105991,1.4449780743022012,1.9638124510732644,-1.7060854288206304,-2.067993109141706,-0.22093750887865427,0.0010446148371923512,0.20453771143361812,0.488372112739591,2.028148247292285,5.8851290413046256,1.2364010715661564,1.1427436640990978,1.0855403289654342,1.2925332595368586,2.0682771498008146,1.749056431653038,2.4700072858893996,1.0069383836155055,Relax
75.20488251144795,798.0540540540541,48.643205298331935,,,,,,,37.59626912414043,37.8541923468775,0.06095226889861425,0.047109928122229604,790.5,43.7367,0.05532789373814041,60.0,1.293830649464585,757.6,834.4,17.56756756756757,60.810810810810814,710.0,929.0,10.571428571428571,132.8125,,,0.05287390297350513,0.027804724383207535,0.00047453158555192437,0.08115315894226459,1.9016157917910508,0.6515322836800674,0.3426203581673125,-3.582549330882027,26.766956104816988,63.780770471101754,0.4196712568241042,5363.380647705201,2.3828174642399382,4.436408730592864,607.9117350448809,0.40540540540540543,0.4246575342465753,0.5161290322580645,0.0,49.31192660550459,49.29993473214907,49.32482366254744,47.94520547945205,0.4387405024034734,0.5612594975965266,17.73081905734883,20.05426665602886,0.5169059082437294,0.4830940917562707,45.85593037464603,44.33080567013172,0.505199489316383,0.4948005106836171,34.764553031563835,34.404897489122774,1.3007681929801027,1.7714710083073184,1.4347767995070089,1.93573020896411,-1.6989662370243188,-2.0264181790649447,-0.21721049505869494,0.0009398685537642162,0.17827584067979466,0.477286091689614,2.772588722239781,5.783645595300207,1.2418270430641931,1.1796247178237738,1.1072982888579452,1.5137511667443828,2.2178713117188393,1.7241248784561587,2.8869019593255674,1.0069383836155055,Relax
74.73803516750641,803.1232876712329,58.58278691197977,,,,,,,35.11172643623969,35.35529479596438,0.07294370342796143,0.04371897437820661,797.0,54.856199999999994,0.06882835633626097,78.0,1.6684678555570827,761.2,865.6,16.43835616438356,50.68493150684932,655.0,923.0,10.428571428571429,179.6875,,,0.030030214604808887,0.008607173937670711,0.00039985707652087535,0.039037245619000474,3.4889749901970397,0.7692708368285178,0.22048619981224724,-4.755159244657522,24.99996870107587,79.51937982899581,0.3143883762026011,6245.429668200777,3.180779175358476,4.502532431952911,1011.7343495899629,0.4246575342465753,0.4444444444444444,0.65625,0.05263157894736842,49.18450560652396,49.17042711826149,49.202876042527606,50.0,0.5035487359740436,0.4964512640259565,17.741691171751434,17.616213722462977,0.5797261006942271,0.42027389930577286,60.545854271647435,51.55124924678875,0.5728729898579904,0.4271270101420097,44.61259953823231,38.521826831161775,1.5751550008043005,1.887292022012823,1.9339954941677595,2.1621060914833445,-0.693272077986073,-0.9295993406715395,-0.379133385477727,0.0009701187490847779,0.235290232545388,0.5699092766494656,1.62924053973028,5.915851956140291,1.0202499622208674,0.5142683986897851,0.946073635712406,1.3260821466341612,1.8044306106167858,1.4696542230347571,2.4977224563059495,0.5935448207145222,Stress
75.05485591661822,799.6216216216217,55.88091611968631,,,,,,,34.24048713006445,34.468794481363545,0.06988419848672998,0.04282086202299684,796.0,42.9954,0.0540143216080402,58.5,1.6320128830941993,760.0,848.2,13.513513513513514,54.054054054054056,655.0,923.0,10.571428571428571,179.6875,,,0.04606758578951367,0.008741047492674068,0.0006160940996612482,0.05542472738184899,5.270259179820637,0.8311738815083521,0.1577102478547629,-4.739725246075807,24.373118317097607,75.31111903247684,0.3236324015659235,5766.60322045961,3.0899254684061708,4.467890180135802,930.8229790104755,0.43243243243243246,0.452054794520548,0.6666666666666666,0.05263157894736842,51.407035175879386,51.48125743481858,51.33190519650979,46.57534246575342,0.519208749094478,0.48079125090552194,17.566737824017803,16.90434690972841,0.6143737650409422,0.3856262349590575,59.0303600056773,46.76730960322637,0.6053472643919614,0.3946527356080387,43.549820207307654,35.16346251415291,1.6107524475149335,0.5379249928477536,1.6582482795733187,1.7070580823854384,0.29129770352422923,-0.2621908977743761,-0.40926280901409207,2.0365267922033516e-05,0.010824714864810191,0.6540932905122872,2.2155737160044158,5.804047960223544,1.061138568965072,0.8285465011681313,1.2275214525016076,1.2171950085394665,1.850283001072361,1.5539684013121644,2.203803567151892,0.8391153196795879,Stress
75.78538356666532,791.7972972972973,48.59956021271497,,,,,,,32.49657516201167,32.721281574601,0.061378790226493056,0.04104153332290314,794.5,37.8063,0.047585022026431716,46.75,1.495528681727901,760.0,825.0,12.162162162162163,55.4054054054054,655.0,892.0,8.222222222222221,156.25,,,0.03611684131774151,0.011290130225214271,0.0006797963019065144,0.0480867678448623,3.1989747325572644,0.7510765005928822,0.23478663115055953,-4.483826366324266,23.137440090514794,65.16613092306842,0.35505315050589076,4736.822560680868,2.8164797258527883,4.382457226511473,734.1563462283626,0.43243243243243246,0.452054794520548,0.6666666666666666,0.05,50.2070393374741,50.20873206212596,50.205389012894344,47.94520547945205,0.5157348553638604,0.4842651446361397,16.61617351324372,16.101242188104617,0.6341308154666077,0.3658691845333923,51.89330913454072,39.41711666965873,0.6208762521898937,0.3791237478101062,38.52929246141972,30.107798711874374,1.4802827286856812,1.0666987428205612,1.631067572770755,1.5272874488789236,0.3529722843505638,0.6644707336019975,-0.5972909404743615,5.920465344294025e-05,0.050280656909019956,0.5612912556911924,1.8718021769015916,5.773444412838539,1.1556304672194488,1.098383508032781,0.9271224526726443,1.3167451423210021,1.861830069338919,1.610154416419126,2.8382809141267384,1.0908499155834641,Stress
76.17863056355392,787.8,49.35858861708133,,,,,,,31.671881979258956,31.88797031593651,0.06265370476908014,0.04020294742226321,787.0,35.5824,0.045212706480304954,49.5,1.5584356069969227,754.8,821.6,10.666666666666668,53.333333333333336,655.0,892.0,8.333333333333334,117.1875,,,0.04686131945811263,0.01770968263039892,0.001518311898014383,0.06608931398652593,2.6460846552763466,0.7090604612368433,0.2679659019309765,-4.033643747709405,22.548200048674037,66.54672135919171,0.3388326214745903,4713.987378086137,2.951309692815371,4.380358525308585,785.5999350898647,0.44,0.4594594594594595,0.7058823529411765,0.047619047619047616,49.84076433121019,49.83667089627191,49.84625970017456,50.0,0.522335982756298,0.47766401724370194,16.296272369799325,15.583843055663825,0.6173404667909066,0.3826595332090936,52.286435563601835,41.16545614603606,0.6075564500078069,0.3924435499921932,38.726217457281905,31.124354965964994,1.5534425110910353,1.227946303237621,1.6797681130447049,2.0869732401199306,-0.6793152904556319,-1.4150425050144868,-0.16838523313146284,0.0009361808583546147,0.1172104190014115,0.49705141410860154,1.7346010553881066,5.798623190409341,1.084402718064729,0.708303336014054,1.183667547431367,1.396398464755963,1.8375302392288326,1.6349734138016216,2.6781568234493998,0.9966109904793409,Stress
76.21823115106838,787.1866666666666,40.84866378883566,,,,,,,29.644059611839104,29.838963691206235,0.051891966059091015,0.03765823389433989,786.0,37.065,0.04715648854961832,49.5,1.3779713144458026,754.8,821.6,9.333333333333334,56.00000000000001,700.0,880.0,7.5,78.125,,,0.05424583807596274,0.01860264572300161,0.0013021878956205445,0.0741506716945849,2.916028122219701,0.7315623289212122,0.250876294143673,-3.9844514652064524,21.099333569631103,53.957359204892434,0.3910371797387367,3576.59114534409,2.557301586176867,4.260439406982561,551.9409611223456,0.4666666666666667,0.4864864864864865,0.6944444444444444,0.043478260869565216,48.654585392641394,48.6129488371416,48.69792099573148,51.35135135135135,0.4965784496147872,0.5034215503852127,14.872057093481748,14.974178688571213,0.5395098271361805,0.46049017286381955,39.632399410864956,36.615154366784544,0.5338133877100082,0.4661866122899919,29.93246703208833,27.972268022996648,1.3657140436602715,1.0997432407103345,1.4892902285819343,1.768234342503027,-0.49644667245561536,-1.1138536153666747,-0.24635523675424453,0.0003109784873248338,0.07182688805229477,0.49548271757663764,1.8607523407150064,5.765420190467034,1.2020751966459728,0.0,1.2693197292189378,1.5051453140274391,1.9146526839289595,1.6434210633260256,3.237298980981884,1.0796619063526194,Stress
76.0994369407497,788.1866666666666,43.16426616860147,,,,,,,29.288868838482614,29.456121396838377,0.05476401466057297,0.03715981261437555,787.0,47.4432,0.060283608640406605,60.0,1.473743025264533,753.6,821.4,9.333333333333334,56.00000000000001,700.0,939.0,10.714285714285714,164.0625,,,0.04760720134595187,0.023541983828286903,0.000624104641349171,0.07177328981558795,2.022225556401469,0.663299696422894,0.32800480358048156,-3.748969905922383,20.828623187158573,54.72347773286674,0.3806158535616784,3580.833479141833,2.6273209343287407,4.260954235282172,575.1045545873341,0.4666666666666667,0.4864864864864865,0.7222222222222222,0.0,47.166666666666664,47.47217162581526,46.829829732983384,51.35135135135135,0.445919974795211,0.5540800252047888,13.924207756416005,15.521306610724162,0.44127426590324254,0.5587257340967576,36.35197324154341,40.90468257578433,0.4418632602573709,0.5581367397426295,27.52589253955014,30.93625717123666,1.3520977138603962,1.0355104546358769,1.4445712490348652,1.7346594946257983,-0.5656671911180862,-1.1974483329116348,-0.2198596650644743,0.0002650717916352112,0.0607639399029965,0.49676682438384523,2.001480000210124,5.782021690438189,1.1522613681582377,0.0,1.128994282102687,1.3393622066986635,1.967767169519734,1.6430293456076568,1.8836280713786875,1.0796619063526194,Stress
76.51960881033412,784.1466666666666,38.493837110575186,,,,,,,29.04237351628581,29.212634392418828,0.04909009850696534,0.037036915096179894,783.0,41.5128,0.053017624521072795,57.5,1.3254370235610864,751.2,821.2,9.333333333333334,58.666666666666664,700.0,880.0,9.375,132.8125,,,0.047492463589617534,0.024212472803331088,0.000514775880353073,0.07221971227330169,1.9614875347669423,0.657610811434576,0.3352612748123894,-3.7208873734987566,20.656451875202713,50.01617657607538,0.4129954204672948,3245.757638293403,2.421334354914936,4.218286197762089,484.4235465805721,0.4666666666666667,0.4864864864864865,0.7222222222222222,0.0,47.397563676633446,47.462363726524764,47.33390787219386,50.0,0.44190592155857483,0.5580940784414253,13.744737473636158,15.446327754385196,0.505129298032965,0.49487070196703503,35.54772149543787,35.18490323664307,0.49590182272384503,0.5040981772761549,26.949566895744297,27.17136780572361,1.3794305830731006,1.9160011292536172,1.6147580031390487,2.0124358375768354,-1.251097410559316,-1.4061236285732157,-0.292443841307806,0.0010190426521574645,0.21949144330215362,0.45611608393043257,1.8870696490323797,5.7186231904093425,1.251056272041482,1.0474136855066063,0.971646710060317,1.2326142531221334,2.04938377834475,1.6654457786882777,2.3364383224517877,0.9966109904793409,Stress
76.46100279566937,784.56,44.38384171526171,,,,,,,39.60565752652149,39.85416073762818,0.05657163469366487,0.050481362198584546,779.0,51.891,0.06661232349165597,71.0,1.1206439808641118,743.8,824.0,14.666666666666666,60.0,700.0,919.0,9.375,125.0,,,0.0360799380803357,0.032279444481573036,0.0009964917206251348,0.06935587428253387,1.1177372677814268,0.5202145954264444,0.4654175989488187,-3.433324645097337,28.18114731607554,54.12251193050383,0.5206917844512026,4791.665443117657,1.9205219476508115,4.387456597706965,415.773888098102,0.4533333333333333,0.47297297297297297,0.7142857142857143,0.0,52.2055479763529,51.98074530951071,52.44969952610401,48.64864864864865,0.5707418351611431,0.42925816483885715,21.301810328882173,18.47378742753657,0.5688929531806033,0.43110704681939666,40.82190070138124,35.536160749215725,0.5692876453621807,0.43071235463781915,32.55913619985258,28.32048324721798,1.134526344669077,2.2779281520631662,1.4716782369804673,1.7513414135100647,-1.045003244041796,-0.6974937029473431,-0.3772291495338425,0.0014165839553811081,0.31129373534281674,0.38010284321816235,2.2335922215070942,5.825289857076007,1.2649299913091143,1.335722622883237,1.282959539471832,1.5267551018974186,2.1976802800209505,1.755314617166419,3.047496505100807,1.0796619063526194,Stress
76.07772618496712,788.7333333333333,42.69987446444403,,,,,,,30.272188645775273,30.4612814978689,0.054137276389710116,0.03838076491307828,783.0,56.3388,0.07195249042145593,68.5,1.4105314605458215,748.8,827.4,10.666666666666668,57.333333333333336,700.0,880.0,7.5,132.8125,,,0.04219986606915835,0.04508887574242339,0.0015306147318778786,0.08881935654345961,0.9359263315907693,0.4751201507354966,0.5076469532895259,-3.0991197204944263,21.53937871077541,56.49852478145392,0.3812378959290257,3823.1395714967143,2.6230340967629515,4.2893902630748295,592.7902276742409,0.44,0.452054794520548,0.6666666666666666,0.0,47.91666666666666,47.909153228800946,47.92784447779198,49.31506849315068,0.40501961246940155,0.5949803875305985,13.715804302746262,16.62396355817594,0.5663681715501188,0.4336318284498812,42.5193412867789,37.204689476180036,0.5458726692594256,0.45412733074057426,31.591277840036902,28.814450223824707,1.305480173646454,1.7860377284357316,1.6169824853574641,1.7466409266569167,-0.3503250286750319,-0.2327669945815911,-0.42740442195864947,0.000849517545893951,0.19825901445014543,0.45177698183836856,1.4733057381095205,5.818753523800368,1.1720070907401359,0.0,0.9779591487969932,1.1681115935234596,1.8378582993618502,1.6353169310897882,2.677552781340376,0.9135600746060626,Stress
75.9205299275684,790.1333333333333,42.78934362581328,,,,,,,30.810887861449412,30.953097169125865,0.05415458609409376,0.03899454251786544,788.0,50.4084,0.06397005076142132,64.5,1.3887734692433618,751.4,827.4,10.666666666666668,58.666666666666664,700.0,880.0,8.333333333333334,140.625,,,0.030581809790080502,0.04804771099168743,0.0012535346309016848,0.07988305541266962,0.636488381212819,0.38283224936874616,0.6014756288862101,-3.0355607827507733,21.887144907015024,55.39817917767161,0.3950878030994329,3809.2061474533793,2.531082944487474,4.287804586502719,560.8695458890629,0.44,0.452054794520548,0.696969696969697,0.0,45.960406634563945,46.0334972181578,45.88408429146176,46.57534246575342,0.36360659938219764,0.6363934006178025,13.22694427275327,17.49872793811181,0.5601277327048035,0.4398722672951965,41.46092895500271,36.74166063734226,0.533492651057251,0.46650734894274903,30.773045710542714,28.77633668347728,1.3068755283955669,1.728028555717028,1.5165794555838645,1.612029505654542,-0.8988347971229906,-0.4008008046874503,-0.4447636153031792,7.425423868918598e-05,0.11984080688077926,0.38561373857735237,1.540445040947149,5.8720868571336995,1.198437867548571,0.0,0.8330511275438011,0.934417404570842,1.843856514780632,1.6899885202894822,2.1916318978167926,0.9966109904793409,Stress
75.62198722875007,793.8648648648649,45.87634491308378,,,,,,,32.39165290753456,32.61532635031566,0.0577886072850611,0.040802477022393986,791.5,48.925799999999995,0.06181402400505369,65.0,1.4163014479082843,751.4,832.4,10.81081081081081,55.4054054054054,710.0,914.0,9.25,117.1875,,,0.040039352218844235,0.044431930163473674,0.0010176208697662865,0.08548890325208419,0.9011391598684033,0.46835730364651845,0.5197391529571463,-3.113796920180864,23.062518432920495,60.5929007350077,0.3806141999007495,4390.139768698136,2.627332349294283,4.349448457039463,636.7907529546522,0.4189189189189189,0.4225352112676056,0.6666666666666666,0.0,49.65553789083202,49.63578979895591,49.67513323606737,46.478873239436616,0.46929876098337975,0.5307012390166203,15.79930554029371,16.80112430100372,0.49249666190781266,0.5075033380921873,42.52295035379053,43.16593926571692,0.48956120960923843,0.5104387903907617,32.076622034953196,32.753443257689256,1.256518004776092,1.6633117930338797,1.245577066162677,2.0188619398430583,-0.9080473969927034,-1.7694234740927564,-0.035093253760974,0.0019530951940969416,0.24275108227351677,0.4001181405496266,1.2909841813155656,5.847900831815929,1.1643170609296096,0.7489330683884976,0.669319635608864,0.8720521896629462,1.7681265858758084,1.6940158066639082,2.3456409800827465,1.0908499155834641,Stress
75.62866695213242,794.0540540540541,51.36916934000364,,,,,,,32.43560533041868,32.57874198344289,0.06469228269503521,0.04084810746172536,787.0,56.3388,0.07158678526048284,71.5,1.5837277836103378,745.8,837.4,9.45945945945946,58.108108108108105,705.0,914.0,10.571428571428571,132.8125,,,0.05042162210818985,0.01807675331053566,0.00042863330454848267,0.068927008723274,2.7893074183184576,0.7315219830679293,0.26225936168374353,-4.013128513675683,23.036649379019337,67.76702917740457,0.33993890035687746,4904.419744337616,2.9417051092127786,4.3975577421182885,797.4024638693697,0.3918918918918919,0.3943661971830986,0.6071428571428571,0.0,54.34217368694748,54.19628738481293,54.493836830312105,43.66197183098591,0.5434955274019868,0.4565044725980131,17.025511902893125,15.603596451530725,0.541458896903726,0.45854110309627394,49.865616673574785,45.88889318010734,0.5416708123193854,0.45832918768061465,37.25887667248877,34.27289555550803,1.395547611960471,2.029854619259913,1.671228874912226,2.006248318248937,-1.1081674393246388,-1.0752855234198435,-0.3349539715022255,0.0011150626560056179,0.24562365408038617,0.4712697920591764,1.3312345839368633,5.912156068331652,1.1064921198065667,0.9542806231015503,1.1015582071945635,1.401173907985875,1.7919170330088214,1.6100314871003278,2.30098805116692,0.9230268516475466,Stress
75.28943442609807,797.1486486486486,51.22169981946528,,,,,,,33.48092894081235,33.695899194510844,0.06425614583465444,0.042000860187833555,792.0,55.5975,0.07019886363636363,71.75,1.529876901265646,748.2,841.6,12.162162162162163,59.45945945945946,705.0,914.0,12.333333333333334,85.9375,,,0.03652022692546456,0.011268190718424095,0.0001275875882658786,0.047916005232154536,3.2410018465299877,0.7621717784803413,0.23516548726942826,-4.485771503443508,23.826598818616937,68.60367644385681,0.3473079003005897,5135.223086241724,2.879289527058023,4.417529425084821,790.1193884098965,0.4189189189189189,0.4225352112676056,0.6666666666666666,0.0,48.0759620189905,48.099248409657676,48.05816796465361,46.478873239436616,0.46214759687648943,0.5378524031235105,16.205708870641853,17.482729573305573,0.5259203749930557,0.47407962500694445,49.75163850072066,47.23599144833315,0.519049848224855,0.4809501517751449,36.99899007747637,35.615198451225396,1.4308571419959888,1.5655987783673462,1.6079028800340125,2.0985381289917533,-1.1485602648750994,-1.8445485838411448,-0.18661495158460067,0.0011538674345723328,0.17830528127092962,0.45502807202909556,1.1557707025080584,5.912156068331652,1.159542873257155,0.6355162659069873,0.775420212890843,0.9101693380740147,1.7969931755303092,1.5853463386644835,2.597284902306538,0.9230268516475466,Stress
75.72347408675678,792.3378378378378,48.71591594637107,,,,,,,32.034442081173424,32.25507169305157,0.06148376818568825,0.04043028182093417,785.0,56.3388,0.07176917197452229,65.75,1.520735582749584,747.0,833.8,10.81081081081081,56.75675675675676,705.0,914.0,10.571428571428571,78.125,,,0.041926149716553104,0.016983760162558363,0.00011787636874850388,0.059027786247859974,2.468602318642112,0.7102781991603677,0.28772483676150234,-4.075497676056398,22.80777992181502,64.90803117808709,0.35138609980693597,4650.839180701214,2.845872390938161,4.374501432457275,738.8798955194856,0.4189189189189189,0.4225352112676056,0.6666666666666666,0.0,49.5049504950495,49.53213633069598,49.47835245954762,46.478873239436616,0.4971099809111904,0.5028900190888098,16.081390210771925,16.17461144990987,0.46839034738318686,0.5316096526168131,44.42243948012677,47.32546230149262,0.47154688697524816,0.528453113024752,33.40631856757518,35.36465352301331,1.3713747515952934,1.8636745145013505,1.620711683528783,2.004653287769566,-0.9709930287178423,-1.121573068777459,-0.2939867711591733,0.0015740347285360373,0.23448306655015677,0.435517824653751,1.3217558399823195,5.766819750734848,1.1915433213338502,0.9060852332440912,0.8502993454155388,0.9902032923993946,1.7718681164464414,1.6050025306610283,2.4731064429843426,0.9230268516475466,Stress
75.10784042815283,798.918918918919,51.46398042327308,,,,,,,32.403914865801895,32.615845520167554,0.06441702556363679,0.04055970399305379,802.0,58.5627,0.07302082294264339,76.5,1.5882025562777478,749.2,844.0,10.81081081081081,56.75675675675676,705.0,914.0,10.571428571428571,78.125,,,0.050281721391321484,0.01541013273809047,0.00029295032203543466,0.06598480445144739,3.262899953290869,0.7620197075573594,0.23354062903118064,-4.1727300159240395,23.062885541443354,68.96037206080081,0.3344367910473181,4996.468023036183,2.9901016478133653,4.405633222270367,824.794088531293,0.44594594594594594,0.45833333333333337,0.696969696969697,0.04,51.672671127123024,51.59639852864194,51.74842695877513,44.44444444444444,0.5159228190108414,0.48407718098915864,16.57181341917655,16.052215146549436,0.5024536536028007,0.4975463463971993,48.88184619929557,48.64255366356182,0.5038095247201844,0.49619047527981563,36.49698540874018,36.21996437065892,1.445929464306025,1.3041810037768977,1.4621913774556692,2.038630363859505,-0.642523991408698,-1.3624340750516275,-0.05800691412121993,0.0017259149903226772,0.15777865408539446,0.4170791007357071,1.0296194171811583,5.7193903587844845,1.1445631503707445,0.7053447216023033,0.0,0.0,1.7152096416501101,1.5946400230165114,3.12617419179574,1.0908499155834641,Stress
74.82555767518863,802.0405405405405,49.455788804538905,,,,,,,33.93446544746918,34.16148752370968,0.061662455081395076,0.04231016230750483,802.0,53.373599999999996,0.0665506234413965,71.0,1.4573911258775198,759.6,844.0,10.81081081081081,58.108108108108105,705.0,914.0,12.333333333333334,39.0625,,,0.03483713411377597,0.022953214990649357,0.0003026012160970004,0.05809295032052232,1.5177452974656431,0.5996792024086468,0.39511188300830274,-3.7742972655482796,24.155819483434755,65.34180851980811,0.36968397463489266,4958.642504789473,2.7050131155607167,4.402332908756268,707.0017961621517,0.40540540540540543,0.4166666666666667,0.6,0.043478260869565216,51.32566283141572,51.43791195999514,51.218569846227034,47.22222222222222,0.4828045632442337,0.5171954367557664,16.788306115335825,17.37594921467921,0.5129507291996482,0.48704927080035193,46.79818138888183,45.6013394466937,0.5093246665532538,0.49067533344674624,35.156201469505405,34.50656292970725,1.330319598199392,1.8388502612735858,1.5310047795756248,1.9292468708144148,-1.3141006206083556,-1.4924741519780103,-0.2834287545724533,0.0008309284662310353,0.19147746906567648,0.3695206717751436,1.1856236656577395,5.702564514219126,1.1946040760428742,1.0293427087394127,0.0,0.0,1.8917168853200312,1.686594312200689,2.191340716468467,1.0069383836155055,Stress
75.18103654109431,798.5135135135135,43.58466591078345,,,,,,,31.979659631349836,32.17962333986029,0.05458225211369056,0.04004898989202721,796.5,42.9954,0.0539804143126177,57.0,1.3628871105325073,759.6,838.0,9.45945945945946,55.4054054054054,713.0,905.0,9.25,70.3125,,,0.03756109631761034,0.02553642522863924,0.0004658525451153307,0.06356337409136492,1.4708831005635576,0.5909235759514694,0.40174747790974114,-3.6676494057293536,22.75442987964411,57.24544939475901,0.39748888549606437,4092.1995222908376,2.5157936145862405,4.318926910299439,576.0709442058178,0.43243243243243246,0.452054794520548,0.696969696969697,0.04,52.22629649030905,52.28703439692974,52.16345960368375,45.20547945205479,0.44985734760303797,0.5501426523969621,15.271842281357761,16.888523387857866,0.536837102828718,0.46316289717128206,41.9432646803318,38.9590044067292,0.5249559647256054,0.47504403527439454,31.56316380459218,30.025208130717157,1.2394143507054851,1.3589920206170962,1.4691559491508894,1.460831469690631,0.09584061056866133,0.30658607410605043,-0.5061254807489439,0.0002816528233562913,0.09886110683497104,0.43972539659160015,1.6341305250244718,5.864726676381287,1.2448808049597622,1.123960840741853,0.0,0.0,1.948957809609219,1.7232262379375087,2.3368629450867258,1.0069383836155055,Stress
75.69972881549819,792.7702702702703,37.791623083276264,,,,,,,30.29150611088451,30.498515321800408,0.04767033338724015,0.038209689801507775,788.5,33.3585,0.042306277742549143,46.5,1.2475980212055806,763.6,820.0,8.108108108108109,52.702702702702695,713.0,892.0,8.222222222222221,70.3125,,,0.055890763047316494,0.03344227759543194,0.000750079029668761,0.0900831196724172,1.671260663626299,0.6204354739329686,0.37123800460111867,-3.3979343831737685,21.565707000166885,49.24118453272314,0.4379607681012514,3336.1230802637037,2.283309540111163,4.23021217473724,449.73146563976394,0.44594594594594594,0.45833333333333337,0.6666666666666666,0.041666666666666664,49.1849353569421,49.19810752714799,49.17283268825003,44.44444444444444,0.38891957660899046,0.6110804233910097,13.450268481417842,16.859715300087363,0.5345374795245583,0.46546252047544173,36.00124935679453,33.59470641240363,0.5110983771256946,0.48890162287430516,27.175353516305183,26.57869728688366,1.231221308551259,0.9988653396574936,1.3841319465903392,1.5510665467955311,-0.09125442891912883,-0.6303548679124633,-0.3328757705593899,0.00023061973429266513,0.059083509937126306,0.4539455246994111,1.5841201044498103,5.773444412838539,1.2997804826558605,1.3371748454478578,0.9453361704465073,1.0372673654778366,2.015666898182046,1.789546620444434,3.0830677378915023,1.0908499155834641,Stress
75.95041625432863,790.2162162162163,58.64153240215639,,,,,,,48.73467444387707,49.066700478944085,0.07420947735412088,0.06167258206523878,788.0,38.547599999999996,0.04891827411167512,50.25,1.2032815048285195,749.6,824.4000000000001,12.162162162162163,54.054054054054056,647.0,1066.0,8.222222222222221,171.875,,,0.05860753445278658,0.019329961126237315,0.00038727066586496684,0.07832476624488886,3.0319530427423507,0.7482631262447088,0.24679245215747714,-3.946098996822517,34.69539663911058,75.7761839952554,0.45786677039956214,8259.513366152842,2.184041438795263,4.623924570282132,661.9933036776487,0.44594594594594594,0.45833333333333337,0.6666666666666666,0.043478260869565216,51.1453744493392,51.16672599401591,51.12514136500482,47.22222222222222,0.5741434998269697,0.42585650017303045,26.292293970329446,22.643830408205137,0.46875389689543484,0.5312461031045653,51.88062227006865,55.23070788749006,0.48702210202212964,0.5129778979778703,41.12714243265489,42.2088506672997,1.0259051895486802,2.051888375745807,1.3870756065941363,1.6149468212508276,-1.261838757517383,-1.3925118159406311,-0.3889456086645718,0.0008609484406493159,0.23013634097462063,0.6724605320002368,1.6357552207514738,5.912156068331652,0.9886607591046633,1.0501761445532527,1.430973145349846,1.7844850539052155,1.6631612207000221,1.7593602902279966,1.8428894802591773,0.9230268516475466,Stress
75.695886388324,793.4133333333333,61.39572424000677,,,,,,,48.943569270875344,49.258494663934165,0.07738176516654637,0.061687354137660924,790.0,40.0302,0.05067113924050633,52.0,1.2544186121820355,752.8,836.4,13.333333333333334,57.333333333333336,647.0,1066.0,9.375,179.6875,,,0.0582624321093981,0.045297331934432326,0.0020228670887751997,0.10558263113260562,1.2862221597009884,0.5518183387211092,0.42902257169118585,-3.0945071459223366,34.831015607909215,79.01951977668945,0.44079001879968743,8646.700106204613,2.2686539108192463,4.643820506548254,717.0717702897812,0.4266666666666667,0.4383561643835616,0.65625,0.0,52.16274089935761,52.01738184475547,52.301954152868824,46.57534246575342,0.5791780667362423,0.4208219332637578,26.51802178617505,22.60394558842291,0.5052429579873133,0.4947570420126867,56.16742584098126,55.5815147340956,0.5172790411446752,0.48272095885532473,43.920298297337325,42.42783954139587,1.3139506435388724,0.6669857971609168,1.4584057730056035,1.1802295364651727,0.8470575021681856,0.825380048918599,-0.917064707711187,0.000934467316020196,0.05093499458823553,0.6832545459973329,1.8588987720656835,5.98881869049588,0.9840009040857152,1.1417372432919735,1.1535163595356828,1.385944737939641,1.7603750293449882,1.668550815481577,2.044564137386595,1.1627128222258978,Stress
75.47068644044361,795.027027027027,62.27292403406704,,,,,,,47.824021017699565,48.13933670299122,0.07832805919433236,0.060153956270563094,791.0,46.701899999999995,0.05904159292035398,62.25,1.3021264776339063,752.6,836.8,12.162162162162163,56.75675675675676,647.0,1066.0,10.571428571428571,218.75,,,0.06339404788742102,0.05469796417345795,0.001798531058298155,0.11989054311917711,1.1589836814837584,0.528766041408322,0.4562325163468938,-2.9059287882823135,34.03965142450755,81.53671283743817,0.4174763764682698,8719.431609749045,2.39534511739254,4.647458285628876,781.2342679335807,0.3783783783783784,0.38888888888888884,0.5714285714285714,0.0,51.99641094661281,52.01844745304462,51.96714862925694,45.83333333333333,0.5940249519348831,0.40597504806511714,26.243914638551075,21.69581372830559,0.5268562226884816,0.4731437773115184,59.18331069080318,56.0853927151332,0.5368308639773307,0.4631691360226694,45.778856035727316,42.52222718381559,1.190334357577634,2.1492149488169154,1.545489118131227,1.6086417528840702,-1.0288311345747108,-0.6534459850291103,-0.4706159522165955,0.0010521869838995628,0.23849712185313132,0.5825369650541892,1.5546296759391054,5.966210122385705,0.9661995330596755,1.0298947583501605,0.7646767681788449,0.8468027849218538,1.7409793944928977,1.6323749663613072,1.8237157229413512,1.0908499155834641,Stress
75.674948651346,793.2162162162163,67.21225228125995,,,,,,,52.0133017760249,52.36304162148988,0.08473383537451423,0.06557266570284921,788.5,53.373599999999996,0.06769004438807863,75.5,1.2922127607027032,743.8,843.6,18.91891891891892,64.86486486486487,647.0,1066.0,12.333333333333334,140.625,,,0.05375377976528026,0.037802324029443515,0.0014490806085411465,0.09300518440326491,1.4219702398035754,0.5779654124678372,0.40645394417514297,-3.2753846959861415,37.02626181410892,87.75486040735382,0.4219283312882592,10207.77103676626,2.370070758099449,4.715901030098266,831.9409141302737,0.4189189189189189,0.4225352112676056,0.6,0.05,51.43953934740884,51.50740949871523,51.37328791666296,43.66197183098591,0.5742988359081082,0.42570116409189196,28.064904932831837,24.162787044912218,0.5385752398201435,0.4614247601798562,64.40126105731954,59.61034389551138,0.5439755965569867,0.45602440344301315,49.67474868915751,45.48204798114806,1.4244849594072018,1.5236572374879414,1.5244064083210052,1.7083281979619227,-0.4626114969588411,-0.2573839680758754,-0.37928926197065815,0.0013827791388987675,0.13007788035437753,0.4782645639400398,1.4604023332736122,6.074318230493815,1.0442112057575836,1.4447103674510149,0.8768936535961656,0.8632081244909546,1.7998997772400225,1.6305438948896591,1.8744612915743675,0.9230268516475466,Stress
76.0258436279659,789.56,68.97947990996053,,,,,,,51.19939822281487,51.54785198296586,0.08736445603875644,0.06484548130960899,787.0,54.856199999999994,0.06970292249047014,76.0,1.3472713020916467,739.8,842.8,17.333333333333336,62.66666666666667,647.0,1066.0,10.714285714285714,125.0,,,0.0568125922574904,0.028136855089275593,0.001357445032058555,0.08630689237882454,2.0191521787786657,0.6582625175301691,0.3260093639541005,-3.570674992984389,36.44983569275557,91.17993447949257,0.3997572042668397,10441.063173057568,2.501518394981809,4.725714833406129,912.3531334147472,0.38666666666666666,0.38888888888888884,0.5714285714285714,0.05555555555555555,50.47132757266299,50.438930166161676,50.50678868552547,48.61111111111111,0.5801414564237919,0.41985854357620794,27.763309778609134,23.618688908434873,0.4987408670461716,0.5012591329538282,64.39271753004893,64.55508020891841,0.5099571740732911,0.490042825926709,49.58438988617125,48.60658827017853,1.2950345822302247,2.2974243121862385,1.712219079149965,1.5947047475082876,-0.5462340372756742,0.33063245987220524,-0.5511504692530438,0.0011525655925395735,0.29004930140971946,0.5768447817134308,1.562185027583555,6.0154853571625475,0.9880811863254839,1.1845604120105195,1.1309595794517886,1.3825259340014395,1.7243199266555123,1.565467996013874,2.035716303147265,0.9966109904793409,Stress
75.5427801843427,794.8108108108108,70.74586500829527,,,,,,,51.97325444959351,52.29979584432129,0.08900969142093733,0.06539072411027474,798.0,65.2344,0.08174736842105262,87.25,1.3611975189452192,739.6,850.0,18.91891891891892,64.86486486486487,647.0,1066.0,14.8,125.0,,,0.04121644853836216,0.007977699644899097,0.0003968555111817253,0.049591003694442984,5.16645779773318,0.8311275325726217,0.16086989676704314,-4.831105174127014,36.981540296191596,92.95301672410979,0.39785196435264775,10799.368423167398,2.513497706683737,4.740368467453021,934.5487774615399,0.3783783783783784,0.38888888888888884,0.5357142857142857,0.05555555555555555,52.60517174835972,52.688760080781506,52.512760817286775,45.83333333333333,0.5833438984933239,0.4166561015066765,28.263271219022045,23.886304769795505,0.508662418974871,0.4913375810251288,66.2946245179126,65.15585989104598,0.5188792220294994,0.4811207779705006,50.95973773466176,49.07056976282816,1.5371168870470202,1.929721902814884,1.776176882322773,2.0819565784804843,-0.5842325590753195,-0.5757580320907074,-0.34154209178448425,0.0024305359746439443,0.26670265347587796,0.6018216193586543,1.5404450409471486,5.966210122385705,0.9823656484109503,0.8574305444343325,1.2832846371843394,1.5216523525823868,1.822930336307815,1.6157071147478175,1.8519188403827977,0.7552037877116291,Stress
75.15363205536461,798.2602739726027,57.162299978331745,,,,,,,34.98868864838082,35.20242991595155,0.07160859915257868,0.04383117861328231,798.0,65.2344,0.08174736842105262,87.0,1.633736564201787,746.6,852.0,15.068493150684931,63.013698630136986,676.0,902.0,18.25,62.5,,,0.05767227565757349,0.022298960144643276,0.00035061622616099807,0.08032185202837777,2.5863213030329444,0.718014764365715,0.2776200944266703,-3.8032152318883443,24.891876907813526,76.85104831269749,0.3238976885068832,6009.762554881999,3.0873946788871534,4.485827423371913,949.078070510087,0.3698630136986301,0.38028169014084506,0.5185185185185185,0.05555555555555555,52.580800771828265,52.4755186444561,52.681144944938296,45.07042253521127,0.49086144106735646,0.5091385589326434,17.455375700484662,17.77737920132227,0.5282986159499504,0.4717013840500497,55.85853386638668,52.78169967951292,0.5247381925276744,0.4752618074723258,41.38155353866828,39.38237570491336,1.4359440002147394,1.0698045974226886,1.5421843677131732,1.833044007766869,-0.35861088649354933,-0.9906800892550365,-0.22811890998186207,0.0005331272279156377,0.07742702394280115,0.5488491929806352,1.5686159179138452,5.850716510905175,1.1093111482951308,0.6668070516454887,1.0417911908396775,1.2695282386676592,2.067594267120825,1.6038189303296801,2.82267450249548,0.8479211724493175,Stress
75.94539838982142,789.7027027027027,57.113856421494255,,,,,,,36.7326512959911,36.981416823301295,0.07232323787930071,0.04651453157026834,794.0,60.7866,0.07655743073047859,84.75,1.554852546887284,738.2,840.2,14.864864864864865,64.86486486486487,676.0,901.0,14.8,46.875,,,0.05565880848702777,0.014760889754807577,0.0003464101470020718,0.07076610838883741,3.7706946811183837,0.7865178650378822,0.20858699299530717,-4.2157741801356385,26.14981061364261,75.63407385467136,0.345741135984407,6213.494437605786,2.8923373469944873,4.500306023848526,875.0370260608211,0.3918918918918919,0.4027777777777778,0.5172413793103449,0.05555555555555555,48.95359417652412,49.06487879396497,48.834600766767565,47.22222222222222,0.42455684379378267,0.5754431562062176,17.04120822529253,19.83963485327064,0.5192260711991827,0.4807739288008172,54.499904189080176,52.44305074301992,0.5091152439317841,0.4908847560682159,40.37723575479565,39.64772807076133,1.4555344936987664,0.6287926217605477,1.508800541424172,1.5845087987751034,0.19020067571025123,-0.3088963554248547,-0.3795974145832742,3.76093036311257e-05,0.01588793327706529,0.5330411896662284,1.6094379124341005,5.966210122385706,1.1265960126919048,0.6314321610770639,0.9810173385750259,0.9905151604706277,2.2816229624040596,1.6420471953109497,2.1573281760483165,0.9230268516475466,Stress
76.68966383733802,782.5466666666666,54.34382367087516,,,,,,,35.398503556704966,35.56141992651488,0.06944483439225158,0.04523500650445337,784.0,60.7866,0.07753392857142857,82.5,1.5352011585411127,735.2,831.2,13.333333333333334,58.666666666666664,676.0,895.0,12.5,93.75,,,0.054572364586640484,0.016663370426779723,0.00039917921977893224,0.07163491423319913,3.27498958427625,0.7618123811663471,0.23261520733498833,-4.094542356175252,25.145721178661088,71.6872242914996,0.3507699095226759,5663.119596182949,2.8508716764239836,4.460025843301875,817.4843091763584,0.38666666666666666,0.4054054054054054,0.5333333333333333,0.05263157894736842,54.14680648236416,54.25556992256957,54.039341693124484,44.5945945945946,0.479908547764381,0.5200914522356189,17.458365345814745,18.174572030536254,0.5110599007069664,0.48894009929303384,51.2480881196326,50.12675523811752,0.5076335154788789,0.4923664845211211,38.28290125150896,37.70282919884987,1.498426545622279,0.46156173679323675,1.5697793072925137,1.550573912024324,0.636829044639855,0.11567621877845813,-0.5416095913877562,1.1410863906419694e-05,0.009436032352440718,0.4398079648764215,1.717651497074333,5.978753523800369,1.0987756026992426,0.6026996694085696,1.0841905399760632,1.1125070461086295,2.149730949986392,1.6505035048699606,2.1293535269442505,0.6644073269862273,Stress
76.81138377778215,781.2666666666667,51.016248957147546,,,,,,,31.5339799564199,31.746779609116203,0.06529940561116249,0.04036263327470761,776.0,57.8214,0.07451211340206185,78.5,1.6178182718341367,735.2,827.6,10.666666666666668,50.66666666666667,687.0,885.0,10.714285714285714,85.9375,,,0.053478900180652364,0.01969601930460572,0.00024200922370868315,0.07341692870896677,2.7152136354855645,0.7284273684704101,0.2682762634035405,-3.9273387294122846,22.44836314244088,68.99854386800652,0.3253454621503949,4866.026586916365,3.073655902222905,4.39414458745415,848.3111264187371,0.4,0.4189189189189189,0.5161290322580645,0.0,50.78167115902964,50.811877382099134,50.74856697962493,44.5945945945946,0.40589794115648575,0.5941020588435142,14.30298369102592,17.304089310024814,0.5244493612701703,0.4755506387298296,49.96796998082995,47.58151985697911,0.513100276648821,0.48689972335117904,36.751689528992245,35.801065198883485,1.495473079608252,1.362780880368157,1.6596859198183265,1.8038288373583788,-0.3450212013668956,-0.3181103763314894,-0.39422883780031315,0.0003130041016826222,0.09261836390178425,0.49249446963247534,1.5723966407537515,5.882152023829213,1.066296683396183,0.5663859553284242,0.8182488328962073,0.8115932685813558,2.024405463014472,1.6044651461913952,2.5791775625309867,0.7474582428595056,Stress
76.3152314660992,786.2133333333334,48.894340946336285,,,,,,,31.687238457793715,31.885880368921097,0.06218966134679682,0.040303613681350756,784.0,51.891,0.0661875,70.5,1.5430294126596682,742.4,831.2,10.666666666666668,48.0,700.0,885.0,12.5,85.9375,,,0.052125403727924506,0.012245089477200032,0.00031286196692002565,0.06468335517204457,4.256841391398598,0.8058549775175009,0.18930819906652313,-4.402630281360929,22.546722232967117,65.5209183709205,0.34411486886261056,4641.018111844258,2.906006367307699,4.373583373243711,761.6168239109718,0.41333333333333333,0.43243243243243246,0.53125,0.0,47.86652078774617,47.895085543704774,47.842005508282504,44.5945945945946,0.36296465774810915,0.6370353422518908,13.59114336920157,18.005516658429613,0.5775226238055877,0.42247737619441206,49.792562482216994,42.58745667004949,0.5547832549420064,0.44521674505799363,36.496701608691126,32.694725077299005,1.4903562776446737,1.4214491507037659,1.7711530431872875,1.9373679797377785,-0.15548237477558935,-0.5034290988662393,-0.3830665617069754,0.0009257018274465914,0.1463442647535654,0.4633656694409778,1.410986973710262,5.798623190409342,1.1245507830634724,0.6659374855514075,0.0,0.0,1.9584305704696638,1.5840972472380215,2.5232799102127013,0.7474582428595056,Stress
76.94212464281547,779.6578947368421,46.636624415175085,,,,,,,30.703094306600434,30.895155455679948,0.059816779551647256,0.03938021344215805,775.5,48.1845,0.06213346228239845,65.75,1.5189551889937465,739.0,817.0,10.526315789473683,43.42105263157895,700.0,885.0,9.5,132.8125,,,0.04538547787044219,0.007922142035773424,0.000230593591507988,0.05353821349772361,5.728940186315568,0.8477211865198292,0.14797172931648656,-4.83809365066096,21.846173928523847,62.31786145123928,0.35056039183272397,4276.985727459796,2.85257554275318,4.338107910956083,711.0656298099454,0.40789473684210525,0.4266666666666667,0.53125,0.0,47.97951052931131,47.922457499730534,48.037809502802695,44.0,0.37279529285300067,0.6272047071469994,13.344955520264495,17.309581786444802,0.5568643134880147,0.4431356865119853,46.50367072598669,41.484026623085484,0.5367022016975517,0.46329779830244844,34.21022675187077,31.784792641186815,1.51854010447193,0.9078732947192263,1.7723351696731977,1.6604096575304452,0.798809168834544,0.5604827019248155,-0.6232831858738253,0.0006367393892327285,0.0724807328977346,0.4711582374728107,1.4469189829363254,5.807009421281388,1.1289199687761997,0.0,0.0,0.0,1.8600090496692947,1.5722089875260192,3.1315089095723354,0.9043052979984136,Stress
77.82808198935417,771.171052631579,43.60439982628503,,,,,,,26.796268396924226,26.974282045902388,0.05654309725123552,0.03474750291194597,763.5,40.0302,0.05242986247544205,56.75,1.627256421692287,735.0,808.0,7.894736842105263,35.526315789473685,700.0,869.0,6.909090909090909,85.9375,,,0.041663898696172444,0.011953697621819363,0.00024290477260434858,0.053860501090596154,3.485440239020465,0.773552006619686,0.22193810640032152,-4.42671462404645,19.073697752296113,58.61237301347106,0.3254210121796698,3512.1582329940024,3.072942319557058,4.252544183872426,720.4497659310371,0.4605263157894737,0.48,0.6666666666666666,0.043478260869565216,50.89344804765058,50.96008338011799,50.828381355859264,44.0,0.42888975544537905,0.5711102445546208,12.49243014032141,14.41564465470798,0.5599626182576405,0.44003738174235935,43.860019718756725,38.8807013895138,0.5474092735732492,0.4525907264267509,32.247187013292645,29.321662225659644,1.54964789830609,1.405183229050328,1.7472980320949993,2.05602812638556,-0.6814036492325819,-1.1893894569204706,-0.2802919306835085,0.0005567125195808371,0.12421245441419981,0.5134511207281056,1.529395204760564,5.895889519994064,1.0777465767277412,0.9818226193897337,0.0,0.0,1.9041466282697321,1.5404914198335244,2.1227488656933162,0.986514870543724,Stress
77.90701583803363,770.3421052631579,44.719735429026244,,,,,,,27.866586921735976,28.048304536769912,0.058051786503023166,0.03617430065336546,763.5,40.0302,0.05242986247544205,56.0,1.6047797871559502,734.0,807.0,10.526315789473683,38.15789473684211,695.0,869.0,6.909090909090909,93.75,,,0.038405767507636066,0.011069956161451256,0.00022034423492173395,0.04969606790400905,3.469369430872355,0.7728130036730294,0.22275315992471562,-4.503520492391271,19.833146338735407,60.28830881837853,0.3289716816984156,3756.4238599217683,3.0397753230223286,4.28174470038209,733.0516536514259,0.4473684210526316,0.4666666666666667,0.6571428571428571,0.041666666666666664,51.35818066961466,51.41019233686869,51.30442506862122,46.666666666666664,0.4899812846620078,0.510018715337992,13.885876550206241,14.166958131606894,0.48401790889152996,0.5159820911084699,41.94341784237784,43.306233730028744,0.4846004790177657,0.5153995209822344,31.241541798284118,32.219036163288486,1.3729537520621733,1.6538233435869865,1.7178145288616813,1.9505952583545798,-0.4601262386318883,-0.901656827493329,-0.3592469199352217,0.001283910335414107,0.20597440463046385,0.543670274097078,1.3862943611198906,5.843257941046697,1.0813341681017048,0.922219863528484,0.0,0.0,1.8258866714047135,1.5579259715048417,2.264925922968929,0.8220957254531033,Stress
78.28890772573118,766.3684210526316,50.562922411654746,,,,,,,31.82472833086456,32.03840600684527,0.06597730415640686,0.04152666975389236,763.5,43.7367,0.0572844793713163,58.25,1.588793528289677,722.0,800.0,10.526315789473683,42.10526315789473,655.0,884.0,7.6,132.8125,,,0.03290150881858568,0.018381639044860287,0.0004483537144578399,0.05173150157790381,1.7899115926653622,0.6360052930038856,0.3553277690418265,-3.996402990575633,22.654574145848112,68.26058575464738,0.33188367628834364,4858.2044364301955,3.0131039018960086,4.393445896212176,822.7049491321404,0.4473684210526316,0.4666666666666667,0.6571428571428571,0.043478260869565216,50.4258943781942,50.40669548652224,50.44427249669842,50.66666666666667,0.5748739484735589,0.42512605152644123,17.177137539591808,14.771457136855048,0.49642599513763735,0.5035740048623628,48.09470533313497,48.43972426104928,0.5042097374692146,0.4957902625307855,36.11201140296076,35.80923646513865,1.4531268366595622,2.179237478148919,1.685039767001928,2.3137128316605646,-1.320022154172257,-1.7438143906435393,-0.21151695445663768,0.004482974260030478,0.4131181756446463,0.5442582534326315,1.490091154801534,5.86957373052038,1.049149724976774,0.8762485438359497,1.3244768017289494,1.443368449708527,1.7978580755738185,1.5915848229592222,2.6331902310351767,1.0687244430890344,Stress
78.07700151824332,768.3947368421053,51.49215576437986,,,,,,,32.98868492882572,33.17367891827755,0.06701263464661236,0.04293195065911083,763.0,48.1845,0.06315137614678899,63.25,1.5609035605837591,723.0,808.0,11.842105263157894,44.73684210526316,655.0,884.0,6.333333333333333,109.375,,,0.05377064775143382,0.012948042022835513,0.0003598493497523627,0.0670785391240217,4.152801454969213,0.8016073166414242,0.19302808606036934,-4.346810697415566,23.45733332001927,68.51912076136055,0.3423472610180862,5049.406016770253,2.9210106633427104,4.410210403167361,800.5803295472044,0.39473684210526316,0.41333333333333333,0.6129032258064516,0.045454545454545456,46.832701678397385,46.94532704502746,46.72373201904404,53.333333333333336,0.5205283083595733,0.47947169164042697,16.942869025369074,16.260963037868294,0.4307226171243282,0.569277382875672,44.968729742507236,51.69800049571796,0.44016270818429165,0.5598372918157085,33.97975474797799,38.32167907447541,1.5283799424146514,1.542319417179569,1.7783623542257074,1.9742108413461037,-0.5014748531177897,-0.6424853086524243,-0.3730169088589034,0.0007189690102681782,0.14339506610581917,0.5243320716242841,1.580450375560848,5.932138039759375,1.045039282527067,0.8630631381156099,0.8815901311540404,1.0721251441657644,1.8302364452827977,1.5778668349089608,2.0234669797648817,0.9043052979984136,Stress
78.27610203086931,766.6623376623377,50.751098092763726,,,,,,,32.48380163129083,32.699576154772316,0.06619745825458315,0.04237041528652438,764.0,45.9606,0.06015785340314136,61.0,1.5623509424425392,723.0,809.4,10.38961038961039,45.45454545454545,655.0,884.0,7.0,125.0,,,0.04706695417545354,0.00945695186567737,0.000267163997196132,0.05679107003832704,4.976968778521143,0.8287738572928647,0.1665218116033926,-4.661005160770601,23.122092040965434,68.44809212673114,0.33780477033830325,4972.0827246595045,2.960289752564845,4.403508455708604,810.5047428215065,0.4025974025974026,0.41333333333333333,0.6129032258064516,0.043478260869565216,49.86479177934018,49.85563175457055,49.87517011591234,52.0,0.5528524222208367,0.44714757777916314,17.192246314351518,15.461565250646519,0.45873294346047877,0.5412670565395209,46.35977422637438,50.3578459573984,0.4683730934753272,0.5316269065246728,34.962851711879416,37.24897749918155,1.5296109116084013,1.3819598772938448,1.7892415782060516,1.821186303652171,0.16866391884887122,0.20874254020120286,-0.4768844769150074,0.0006872762085482383,0.12439572900153835,0.5774415954750505,1.7129785913749405,5.883542709469875,1.037270338988867,0.0,0.0,0.0,1.912766975211088,1.584825583588749,2.772692705378609,0.8952552200992716,Stress
77.84222532492282,770.922077922078,58.32074791813536,,,,,,,34.92906345272101,35.15983304353311,0.07565063913506212,0.04530816337089196,761.0,56.3388,0.07403258869908015,83.0,1.6696911440833984,722.2,825.0,12.987012987012985,48.05194805194805,655.0,925.0,8.555555555555555,125.0,,,0.04731717405914977,0.007800262538003837,0.00022526399044285844,0.055342700587596466,6.066100189399355,0.8549849132182502,0.14094473986967038,-4.853597887134592,24.861756370469113,78.88611544832408,0.315160104274057,6161.440371212718,3.172990446564962,4.496652359812328,1001.2195627366119,0.36363636363636365,0.37333333333333335,0.5357142857142857,0.05263157894736842,50.57356608478803,50.606266689845114,50.54095800192695,53.333333333333336,0.5501763316544978,0.4498236683455022,18.441619596264676,16.67513118389178,0.44307199623327426,0.5569280037667256,52.509480517387615,58.870821858713725,0.4527497088666891,0.5472502911333109,39.35313759752355,43.26565419776064,1.5589247323873174,2.692805812689885,1.953322040375339,2.7725908812362805,-1.5155391114879482,-2.2476201992950777,-0.1957564347937287,0.009715643903327829,0.7867510257120157,0.571407412651479,1.6835458845878224,5.8413983913161545,1.0458361584070837,0.7674600614269282,1.108893197360637,1.2249954287833758,1.795831725798798,1.5791098959675494,2.0973373516524725,0.8138683819084287,Stress
78.33053427162615,766.2077922077922,61.22872082831752,,,,,,,36.146813210339275,36.38467722602614,0.07991137841588612,0.047176253723789356,758.0,63.751799999999996,0.08410527704485488,91.0,1.6938898727261502,711.4,825.0,12.987012987012985,53.246753246753244,655.0,925.0,11.0,125.0,,,0.05451621798706258,0.006778870113337182,0.0003575646508054229,0.061652652751205184,8.042080328372702,0.8842477258368563,0.109952610485275,-4.993944840867747,25.727851997806823,82.85755002708702,0.31050703272539576,6697.08003592106,3.220538972089478,4.532855599125112,1067.3838759763494,0.35064935064935066,0.36,0.5185185185185185,0.05555555555555555,50.72126570497906,50.76800142483493,50.67474191812813,54.666666666666664,0.5532874794815762,0.4467125205184238,19.138442987871297,17.19670511076662,0.42293925249973174,0.5770607475002684,53.88539669549993,62.94233566892663,0.4344029214301439,0.5655970785698562,40.434613742630184,46.13818530310062,1.6508478235316089,1.6606339999736406,1.8786010237090431,2.299979148788638,-0.24207833874090134,-0.7691912929997438,-0.2462546683457744,0.005338555030143581,0.3153762434842128,0.5951289935239292,1.6397432619294294,5.805620631547799,1.065638246839034,0.8122952935908825,1.096897614089789,1.0938945298393425,1.7924844635336485,1.5729849334989603,2.097057928176982,0.651094705526743,Stress
