PPG_Rate_Mean,HRV_MeanNN,HRV_SDNN,HRV_SDANN1,HRV_SDNNI1,HRV_SDANN2,HRV_SDNNI2,HRV_SDANN5,HRV_SDNNI5,HRV_RMSSD,HRV_SDSD,HRV_CVNN,HRV_CVSD,HRV_MedianNN,HRV_MadNN,HRV_MCVNN,HRV_IQRNN,HRV_SDRMSSD,HRV_Prc20NN,HRV_Prc80NN,HRV_pNN50,HRV_pNN20,HRV_MinNN,HRV_MaxNN,HRV_HTI,HRV_TINN,HRV_ULF,HRV_VLF,HRV_LF,HRV_HF,HRV_VHF,HRV_TP,HRV_LFHF,HRV_LFn,HRV_HFn,HRV_LnHF,HRV_SD1,HRV_SD2,HRV_SD1SD2,HRV_S,HRV_CSI,HRV_CVI,HRV_CSI_Modified,HRV_PIP,HRV_IALS,HRV_PSS,HRV_PAS,HRV_GI,HRV_SI,HRV_AI,HRV_PI,HRV_C1d,HRV_C1a,HRV_SD1d,HRV_SD1a,HRV_C2d,HRV_C2a,HRV_SD2d,HRV_SD2a,HRV_Cd,HRV_Ca,HRV_SDNNd,HRV_SDNNa,HRV_DFA_alpha1,HRV_MFDFA_alpha1_Width,HRV_MFDFA_alpha1_Peak,HRV_MFDFA_alpha1_Mean,HRV_MFDFA_alpha1_Max,HRV_MFDFA_alpha1_Delta,HRV_MFDFA_alpha1_Asymmetry,HRV_MFDFA_alpha1_Fluctuation,HRV_MFDFA_alpha1_Increment,HRV_ApEn,HRV_SampEn,HRV_ShanEn,HRV_FuzzyEn,HRV_MSEn,HRV_CMSEn,HRV_RCMSEn,HRV_CD,HRV_HFD,HRV_KFD,HRV_LZC,Labels
75.34706135857576,797.2972972972973,64.0185610348975,,,,,,,84.22409768075278,84.79905516259481,0.0802944663827528,0.10563700387077467,805.0,53.373599999999996,0.06630260869565217,77.75,0.7600979149406462,739.0,843.0,32.432432432432435,56.75675675675676,634.0,1010.0,12.333333333333334,187.5,,,0.02569943656840777,0.06942397532280996,0.030397628393586923,0.12552104028480465,0.37018099941568683,0.20474206165035183,0.5530863603845888,-2.6675230053823884,59.9619869436829,68.08355619419937,0.8807117356303956,12825.317355172909,1.135445299004924,4.815038230248192,309.220615280965,0.4594594594594595,0.4722222222222222,0.6764705882352942,0.05,51.107011070110694,51.16881435629386,51.03903755096447,43.05555555555556,0.4279217518924765,0.5720782481075236,39.22823175554395,45.356994437952395,0.6145546066413123,0.3854453933586876,53.37310531062388,42.269164334651315,0.5330197743651348,0.4669802256348651,46.83771203403094,43.840273710335126,0.6941435485425064,1.9274749154389081,1.132891928364453,1.1526594530177294,-0.09599247848308501,0.06327971172487357,-0.48974434142050816,0.001415232239617434,0.26827242339996615,0.5533642187186323,1.5293952047605637,5.817297284430923,1.216625301208937,0.7169973211667241,1.0785062712283116,1.1575826011608308,1.8111861343376656,1.8906376133500424,2.954941908781222,1.0908499155834641,Relax
75.58026600114034,795.1486486486486,65.39001692320721,,,,,,,88.98322144443938,89.58903932130569,0.0822362171329062,0.11190765600327177,800.0,55.5975,0.069496875,66.5,0.7348578289451609,746.2,839.2,27.027027027027028,58.108108108108105,634.0,1010.0,10.571428571428571,187.5,,,0.02532590490392044,0.06129899217318565,0.035348674957680855,0.12197357203478695,0.4131536915381602,0.20763436276751387,0.5025596213227496,-2.7919918770693224,63.349017224083504,66.3583581556089,0.9546501599019591,13206.428566074606,1.0475041455004819,4.827755496557825,278.0426210264241,0.47297297297297297,0.4931506849315069,0.75,0.05,51.220739994966024,51.49440110123907,50.95727256539806,43.83561643835616,0.4198455057394703,0.5801544942605298,41.05188113161739,48.256979921158674,0.6542754369068035,0.34572456309319666,53.675480412518404,39.01761781033562,0.5424835120164418,0.4575164879835581,47.78239289717025,43.881149772450875,0.6536858031661421,2.378406493375694,1.2515458079639776,1.4909643964719068,-0.5206361547876952,-0.8182414682373762,-0.3993365561459934,0.004116392190554837,0.5152605880061268,0.49655859768074695,1.3256697393034558,5.7362162033498425,1.0777133919952497,0.0,0.9884733208819245,0.9952769866353005,1.798953512328474,1.86817855076138,2.3232774542884473,1.0069383836155055,Relax
75.62761685911869,794.4459459459459,62.24743860976522,,,,,,,87.55812159665285,88.15862795784334,0.07835327114124456,0.11021281188916823,796.0,48.925799999999995,0.0614645728643216,66.5,0.7109270673543641,751.6,835.2,27.027027027027028,59.45945945945946,634.0,1010.0,12.333333333333334,226.5625,,,0.04408360861478166,0.10119487972813428,0.05902947019541054,0.20430795853832648,0.43563082176899415,0.21577039352831642,0.495305618303415,-2.2907071189805666,62.33756364909297,62.570368301181574,0.9962793146594886,12253.732874228022,1.0037345805395779,4.795238518639851,251.21616952397355,0.527027027027027,0.547945205479452,0.8,0.1,49.085758434200365,49.245211201816645,48.93489764778452,42.465753424657535,0.3952727513137699,0.6047272486862301,39.19449366088728,48.47930543598532,0.6321762483688103,0.36782375163118985,49.749394434676724,37.94797415842467,0.5141587332128937,0.4858412667871062,44.78398474873789,43.5332734714725,0.6029261445726661,2.4290472502816796,1.209533313904102,1.3035972048933675,-0.282820627057232,-0.20436416809862634,-0.46127539677198226,0.0034187720206488473,0.5002985661093945,0.5115627148527042,2.0243817644968085,5.837699649354261,1.1172050012802028,1.172502843098844,1.2542733291735892,1.576144262068988,1.8436367101205506,1.8638283840534065,2.9934804877763805,1.0069383836155055,Relax
76.93372691550644,781.25,59.757984124857046,,,,,,,86.93499487164725,87.51833784675905,0.07649021967981702,0.11127679343570848,781.0,46.701899999999995,0.059797567221510875,66.5,0.6873869862543278,738.0,815.0,25.0,53.94736842105263,634.0,1010.0,12.666666666666666,156.25,,,0.05288556368710122,0.06650631495042438,0.035679557487849754,0.15507143612537536,0.7951961212483892,0.34104000716381583,0.42887534037315533,-2.7104583741683848,61.884810169618596,57.824933055584964,1.0702098022341162,11242.142203367122,0.9343962257797025,4.757819184402703,216.12559681241018,0.5789473684210527,0.5945945945945946,0.8636363636363636,0.1,50.581245156290365,50.68971314861892,50.468879922727226,45.94594594594595,0.4138793670731987,0.5861206329268013,39.81358589252696,47.37922055649017,0.597137789771147,0.40286221022885327,44.6840384465403,36.702310431238395,0.4992984576191278,0.5007015423808723,42.318937330192455,42.37835610032279,0.6292729970185301,2.775253326643073,1.4037102860605368,1.5369150942224419,-0.3660349809242085,-0.39645594950444973,-0.4520026489534817,0.006801088495969064,0.7574614637299708,0.5557362328129964,1.6094379124341005,5.932138039759375,1.0496638800944698,1.0289643506503228,1.179185490411299,1.6432599880027055,1.8195244336637995,1.9043738155152428,3.097731443612986,1.3153531607249653,Relax
76.9153319271233,780.6973684210526,45.22389331222811,,,,,,,60.045871354046206,60.45015219915413,0.05792755956599761,0.07691312124631339,781.5,43.7367,0.05596506717850288,58.5,0.7531557506356461,746.0,813.0,14.473684210526317,48.68421052631579,634.0,922.0,9.5,156.25,,,0.05088615754461055,0.07983470526177651,0.044237919867203275,0.17495878267359033,0.637393942618762,0.29084654549492195,0.45630578837942154,-2.5277969660395057,42.74471254378078,47.67215932569842,0.8966389009515365,6401.726227069553,1.1152761707514296,4.513267207352642,212.67049321686795,0.5526315789473685,0.5675675675675675,0.8095238095238095,0.10526315789473684,50.13415101571484,50.22876369684634,50.036776688265384,47.2972972972973,0.3818307551781905,0.6181692448218096,26.413039367869967,33.60753213516601,0.5608873633701449,0.4391126366298549,35.70283079430435,31.590230262662665,0.4810881026258815,0.5189118973741186,31.403349943719185,32.61448193873593,0.7866975944535072,3.0678843430494043,1.4146078513792417,1.6464703755625325,-1.4007973679044987,-0.9057225222048364,-0.4244226645282121,0.0026795290449346085,0.6272887632252407,0.6978852095361106,1.8787708462176849,5.833325210755072,1.0955312547325,1.0909193740014214,1.0293427087394127,1.2637588868123144,1.8805333164432683,1.8245965819190522,2.5919937579468115,1.1509340156343446,Relax
76.60044688045151,782.0,52.60392887735034,,,,,,,70.81525259433874,71.19719348654384,0.06726845124980863,0.09055658899531809,781.5,43.7367,0.05596506717850288,54.25,0.7428333155667612,749.0,817.0,17.105263157894736,51.31578947368421,525.0,922.0,9.5,281.25,,,0.05262045143844868,0.050334014542947635,0.010307366941405318,0.11326183292280163,1.0454252838018738,0.464591205002963,0.44440402599925166,-2.9890741969610586,50.34401831578584,46.542482773297586,1.0816788300917475,7361.177603664263,0.9244888336357481,4.573917406074202,172.1120224543911,0.618421052631579,0.6351351351351351,0.851063829787234,0.15,45.396505376344095,44.84749863257735,45.82024451732463,45.94594594594595,0.2640317992076786,0.7359682007923214,25.903276428470004,43.24701208238615,0.5763408380588776,0.4236591619411224,35.333710264860116,30.294085588141147,0.40774430607944806,0.592255693920552,30.979435201523696,37.33654828499599,0.7164519976802174,2.8233392256333243,1.3948800045227618,1.353740636392705,-0.30986393941279466,0.4303558157167937,-0.514571174358557,0.003666328420530622,0.6164188234563321,0.7141428850105802,1.7553918250571803,5.780693631807703,1.029524337543282,1.1538413827029896,1.271940412953786,1.7147775309457676,1.727039949425405,1.9151804204310536,2.2343999174315763,1.0687244430890344,Relax
76.76918619706538,782.2666666666667,46.54243438195082,,,,,,,54.210799761770815,54.5617862864601,0.05949689072177112,0.06929964176125467,781.0,47.4432,0.060746734955185656,61.0,0.8585454298125355,745.8,823.0,13.333333333333334,52.0,636.0,905.0,8.333333333333334,156.25,,,0.06276693524370491,0.044179753263702055,0.0011491558143176671,0.10809584432172463,1.4207171975148631,0.5806600210910262,0.4087090816572955,-3.1194886658020025,38.5810090768071,52.476482276835725,0.7352057036383631,6360.454786102728,1.3601635502162608,4.510458279703516,285.50639374608625,0.56,0.5753424657534246,0.7857142857142857,0.1,52.12339743589743,51.930320710381906,52.3134953171479,50.68493150684932,0.6045421939376102,0.3954578060623895,30.00810392827016,24.27030995281023,0.37385887866836065,0.6261411213316392,32.086220540842994,41.5241573491316,0.45483581832058145,0.5451641816794184,31.06454449984321,34.00958386073636,0.7497231883965263,2.694234118914619,1.3555376013198215,1.6034224816990468,-0.9026371741148616,-0.9000727550197114,-0.4079943058255507,0.003458903152283294,0.5715299230758213,0.6443696842097326,1.8718021769015913,5.782021690438189,1.1514379408163213,1.0255241638725208,0.8308862476853277,1.0794953938149472,2.0374108720970368,1.8341754993996333,2.9653887752923644,0.9966109904793409,Relax
76.61102904103078,783.4342105263158,58.41217579153985,,,,,,,79.91261894511196,80.44698998842777,0.07455913337291997,0.10200297341039802,781.0,53.373599999999996,0.06834007682458386,74.75,0.7309505878121739,744.0,826.0,22.36842105263158,55.26315789473685,636.0,977.0,9.5,164.0625,,,0.05960814117328526,0.11990112235223677,0.011954874829446072,0.1914641383549681,0.4971441468093419,0.31132796817947056,0.6262327942057959,-2.12108785625656,56.884612146863574,59.985310514137346,0.9483090386513379,10719.87164462642,1.054508561283119,4.737159695284569,253.02009395353653,0.5526315789473685,0.5675675675675675,0.7857142857142857,0.1111111111111111,49.19933738266152,49.21135556030872,49.179234104485545,52.702702702702695,0.44312582471729955,0.5568741752827004,37.86854931241791,42.45156222255118,0.47982441386802416,0.5201755861319759,41.5514402709291,43.263324986515876,0.4624472349091754,0.5375527650908246,39.752667933206794,42.85936551107601,0.7421520417557507,2.8099033105637865,1.4247085097162089,1.7563864301513847,-0.7715180008527938,-0.9926515065170076,-0.3819610912630916,0.006141819176964762,0.7394029073422494,0.6138363939955105,1.7635885922613588,5.92220530946775,1.1073187536717863,0.8169164972594082,0.9587621064709388,1.174359600306876,1.7992585447054683,1.9040355941594198,2.9279748669176247,0.986514870543724,Relax
76.29253968390158,788.68,63.301116509516255,,,,,,,87.05256256221668,87.58337330101892,0.08026210441435849,0.11037754547118817,785.0,50.4084,0.06421452229299363,69.5,0.727159714158613,745.6,828.4,25.333333333333336,53.333333333333336,636.0,996.0,8.333333333333334,148.4375,,,0.041738916179312344,0.1658973206080227,0.01633710026814844,0.2239733370554835,0.25159487824358434,0.1863566294454622,0.7407012048354935,-1.7963862325609914,61.93079718034329,60.5967279600711,1.0220155322767799,11789.780437170428,0.9784587106736675,4.778475827201646,237.1655852434166,0.5466666666666666,0.5492957746478874,0.7435897435897436,0.16666666666666666,53.089533417402265,52.82670858992723,53.374897577080404,54.929577464788736,0.5331242209553428,0.4668757790446573,45.25173121640974,42.34690394789922,0.45998524238728844,0.5400147576127116,41.09804122753816,44.529927540098655,0.4973774225063728,0.502622577493627,43.224808679869355,43.45212722467704,0.5952267616882807,2.682619786044486,1.2669917531218156,1.4710328203945522,-0.4862625044212674,-0.4982596933354113,-0.42393962486439624,0.0054748267880802386,0.6621872385440132,0.5833789184086249,1.7635885922613588,5.942021690438188,0.9883694943561026,1.6629109257054526,1.1222336486395599,1.5573813907476535,1.8108515715605595,1.8923874738602957,2.831505960121617,1.0796619063526194,Relax
75.95817886206544,791.9866666666667,64.73594876931257,,,,,,,93.5681569766125,94.19924608889998,0.08173868512430248,0.11814360129372443,795.0,51.891,0.06527169811320754,68.5,0.691858756879153,745.6,837.0,26.666666666666668,54.666666666666664,636.0,1010.9999999999999,10.714285714285714,148.4375,,,0.05213455070182349,0.12634852486818174,0.021478147821284564,0.1999612233912898,0.4126249258249354,0.260723303336693,0.631865132275868,-2.0687111201810118,66.60892569212155,62.97356391330987,1.0577283792261807,13177.729066346936,0.945422302776433,4.826810684185596,238.1464472358412,0.5333333333333333,0.5416666666666666,0.7435897435897436,0.16666666666666666,51.031894934333955,51.00087280303644,51.04996382863537,55.55555555555556,0.5121366940898637,0.4878633059101361,47.671679654653346,46.52823564598991,0.42799626671708546,0.5720037332829145,41.19820201009729,47.62749104329284,0.47242852235626803,0.5275714776437322,44.55267045846227,47.08107164990887,0.5993301879648786,2.502202336568879,1.2190965610500484,1.5173295489148884,-0.8768130614555592,-1.2266479433058035,-0.38081180186499664,0.004078903676944545,0.5408499381153354,0.6018069967964976,1.7491998548092593,6.015485357162546,1.053496275661952,1.021028647799822,1.4672434064120263,1.7742940488689996,1.830813576629332,1.8769525699743121,3.1596366911645792,1.1627128222258978,Relax
77.48399174107735,776.5263157894736,80.83950745095049,,,,,,,112.29467188310107,113.04662675117652,0.10410401528860373,0.14461154709088522,790.5,68.9409,0.08721176470588235,96.0,0.7198872938077111,705.0,837.0,35.526315789473685,60.526315789473685,543.0,1010.9999999999999,12.666666666666666,281.25,,,0.03638265323396501,0.10016038690153475,0.058475712386826396,0.19501875252232614,0.3632439366446529,0.18655976803974197,0.5135936191062866,-2.3009825088029974,79.93603636602148,82.10041423779795,0.9736374305553746,20617.586770109694,1.027076372186706,5.021207940950108,337.2935824415332,0.5657894736842105,0.5753424657534246,0.7619047619047619,0.26666666666666666,49.32369835093571,49.475477929278064,49.184566506306176,53.42465753424658,0.4344477492632885,0.5655522507367116,52.689939549497765,60.1167220519405,0.6130731133307581,0.38692688666924174,64.28379145510822,51.06928797402773,0.5261426147958839,0.473857385204116,58.77344457139454,55.77675342131542,0.6117585785296494,3.2874962254920117,1.310366344664064,1.7639782529864059,-1.5227985436925753,-1.4626192505190627,-0.3620190329634665,0.005875762262157171,0.8804314908651862,0.39530269682639574,1.0082282271998406,6.063716987127795,0.9207885824014189,1.1977724690543359,1.0432905485401989,1.4555459259987171,1.7948117379468356,1.882544860533022,3.444844625588641,1.1509340156343446,Relax
79.03247358444783,762.6753246753246,88.34597681818335,,,,,,,121.55749127145774,122.3085736691523,0.11583694130368351,0.1593830131100747,775.0,96.369,0.12434709677419355,132.0,0.7267834824008694,678.4,837.0,36.36363636363637,59.74025974025974,543.0,1010.9999999999999,12.833333333333334,320.3125,,,0.009795467869383985,0.04788796314352611,0.01656118111361507,0.07424461212652517,0.20454968694378928,0.13193506692028883,0.6450025365061786,-3.0388910975111205,86.485221838712,87.80958016310665,0.9849178378721929,23857.98038200286,1.0153131170417122,5.0846037870968255,356.6168741661117,0.5584415584415584,0.5675675675675675,0.7619047619047619,0.26666666666666666,52.393934230703685,52.742678010821585,52.05764071006396,45.94594594594595,0.464931660304205,0.535068339695795,58.99802256573238,63.29181095002206,0.6617200024074019,0.3382799975925981,71.42973386618422,51.071670113940336,0.5647754912591718,0.4352245087408283,65.50944033824656,57.5072552881829,0.5026429044420481,3.34051686227138,1.2961869495316773,1.810636576819893,-1.5350532818930471,-1.8103947718027245,-0.3459969973214216,0.009165717008631946,1.0453224153169636,0.42820300753664053,0.9903987040278769,6.136916410824774,0.9000275225477488,1.0175113528365087,1.0045585510735844,1.1028700229246582,1.7279488275068382,1.9238020923464614,2.463321360722102,1.0580288964809574,Relax
80.21138610786574,750.3589743589744,85.04666012804029,,,,,,,113.75828783850454,114.50182745006879,0.11334129801098862,0.1516051539673892,745.0,95.62769999999999,0.1283593288590604,123.75,0.7476084753383038,674.8,823.2,39.743589743589745,61.53846153846154,543.0,1010.9999999999999,13.0,156.25,,,0.010885212701867866,0.01718838123797978,0.02467730317697031,0.052750897116817956,0.6332889962793988,0.2063512337574532,0.3258405482643405,-4.063521632841798,80.96501864819561,87.5314668543761,0.9249818557581706,22264.425812010388,1.0811022873311824,5.054581609344103,378.5218761188783,0.5897435897435898,0.6,0.8,0.29411764705882354,50.504335515837894,50.618736531772115,50.39763512902399,45.33333333333333,0.43490259952049914,0.5650974004795007,53.39524914801828,60.86509024495334,0.6338962956862849,0.3661037043137151,69.6904571511284,52.962230615274116,0.5421405438102184,0.4578594561897815,62.0798375058771,57.05066643901626,0.565423541885442,2.3978883155421116,1.174235353312567,1.161964001303394,-0.041504243725682954,0.3468195154575855,-0.5051175661225066,0.0036244287927661295,0.4827409950536855,0.45386398479459267,1.3499267169490163,6.028991962451994,0.9961750823799417,1.4002286465107612,0.8817136489506522,1.1852970153837927,1.7946003227039997,1.9605065861222744,3.056337529933952,0.9669849567480383,Relax
80.49438709910186,747.6835443037975,82.4719912523216,,,,,,,110.2843643751961,110.99362331046056,0.11030333873285263,0.14750139308988933,744.0,88.95599999999999,0.11956451612903224,113.5,0.747812182801774,676.6,813.2,39.24050632911392,63.29113924050633,543.0,1010.9999999999999,11.285714285714286,156.25,,,0.014478014862463067,0.03386865667335487,0.03890142816595725,0.08724809970177519,0.42747532038532854,0.1659407472707224,0.38818790081528576,-3.3852652741921627,78.48434371129191,85.33912292006461,0.9196760058666946,21041.71232498657,1.0873394473933338,5.030051188743573,371.17037902773933,0.6075949367088608,0.6233766233766234,0.8541666666666666,0.29411764705882354,50.708318198329096,50.89367030006239,50.52268251240248,45.45454545454545,0.402101432929336,0.597898567070664,49.77012090667386,60.689651228473586,0.656423351946155,0.3435766480538451,69.1417211531497,50.021878180911884,0.5398800611261071,0.4601199388738926,60.239698451622594,55.612148236602735,0.6673751153222253,3.019909961304653,1.3068580828814609,1.6834074820133451,-1.2292886147624902,-1.148050320396926,-0.375311051005902,0.004861122571189571,0.7339724051626803,0.4758177812377804,1.2776605201170954,6.015744197516804,1.0872459155111271,1.19801658502721,0.8890985499657734,1.1611686818313505,1.7981068382459076,1.935416295188954,3.22978223064171,1.0373310091937005,Relax
81.10220104783517,742.9,84.00129595142558,,,,,,,122.93350059939013,123.71310688048142,0.11307214423398247,0.16547785785353364,734.0,82.2843,0.11210395095367848,109.25,0.6833067922239116,676.8,810.0,41.25,63.74999999999999,543.0,1010.9999999999999,10.0,156.25,,,0.02009471838201551,0.03289672248000793,0.02413067533123162,0.07712211619325506,0.6108425662838454,0.2605571446154502,0.4265536801087548,-3.4143822468417313,87.47837679684454,79.32692554562169,1.1027576853023866,21800.738790149782,0.9068175296604625,5.045441321320923,287.7401866353604,0.625,0.6363636363636364,0.8571428571428571,0.29411764705882354,50.76036497518809,50.90644649500676,50.613811048509035,46.75324675324675,0.42997020686004417,0.5700297931399557,57.3641650849852,66.04961227782705,0.6424585294261824,0.3575414705738173,63.5833158379625,47.433353914418866,0.5258501799726848,0.4741498200273151,60.55363527009559,57.499888459117024,0.4781107002370664,1.8721833105323764,1.062855903915861,0.8706067505149271,0.613689907097287,0.862213560214874,-0.6026871419691618,0.004110098625598587,0.362400401427471,0.5025177572564887,1.341173925839421,6.012492001110317,1.0575099478338401,1.2076313017405131,1.0144447908340466,1.3722977708980175,1.798702817280167,1.968283918462612,3.694934556642632,1.0273133154191965,Relax
80.13339742718914,751.1898734177215,80.87233940447749,,,,,,,102.51503954705053,103.08525967649673,0.10765898511987264,0.13647020969629603,739.0,93.40379999999999,0.12639215155615696,115.0,0.7888826825976117,683.6,823.0,35.44303797468354,62.0253164556962,582.0,982.0,8.777777777777779,117.1875,,,0.022035829991359182,0.03884557504552409,0.028551228413397807,0.08943263345028107,0.5672674420583257,0.24639585284726878,0.43435571051499666,-3.248161107097509,72.892286157627,84.17840971415806,0.8659261490582324,19276.676583131648,1.1548328931833092,4.992002270959086,388.84798573508454,0.5822784810126582,0.5921052631578947,0.8444444444444444,0.21052631578947367,53.33333333333334,53.30119745539287,53.38347532445297,43.42105263157895,0.4536602385181426,0.5463397614818574,49.140535281905585,53.926958778674724,0.6335360581209781,0.366463941879022,67.00178700149202,50.958465446001746,0.5563767954761045,0.4436232045238956,58.75385804007049,52.46371166686664,0.7109466486678464,2.951014996892107,1.4002612033908566,1.7438520343174286,-0.9552039533403676,-0.9908661625651942,-0.38356859206461896,0.006647852177577876,0.787335252297971,0.5712426971208253,1.3040562628829184,6.006188659514735,1.0116151902092687,1.4683696120046188,1.0751206376937126,1.3542942118059382,1.724578724774354,1.8875615978655018,2.6332102151757533,1.1969203952235006,Relax
77.93991419335846,772.7763157894736,83.43549982818433,,,,,,,110.35741932466526,111.0410069534009,0.10796850022887418,0.1428064202665468,785.5,85.9908,0.10947269255251431,126.0,0.7560479425739545,697.0,836.0,35.526315789473685,59.210526315789465,582.0,995.0,10.857142857142858,117.1875,,,0.015361987145267823,0.026432424011761844,0.020733180936707892,0.06252759209373757,0.5811796579243764,0.24568333164402148,0.42273215914241447,-3.633163840165022,78.51784900653234,85.7798355103353,0.915341566457912,21159.406178533794,1.0924883525935458,5.032473585375754,374.85388472972625,0.5789473684210527,0.589041095890411,0.8372093023255814,0.15789473684210525,52.63157894736842,52.63066841357714,52.627887796613656,41.0958904109589,0.44601804015077606,0.5539819598492238,52.46594777258556,58.47215784664735,0.6675271581872069,0.33247284181279324,70.08412876753984,49.46104603700851,0.5664853114504528,0.43351468854954733,61.905011028109755,54.15435494176955,0.6189863095399206,1.516662644393284,1.1038679360501025,0.9835758785401588,0.5370505812535473,0.43539604085269734,-0.579313654855701,0.002805832048217981,0.2410212224071769,0.5555306680916758,1.1735135968412274,6.05378425683617,1.001681313328897,1.4441001983960173,1.019263274971954,1.3601300415821185,1.5730362190485367,1.9080597966439656,2.914548720675729,0.986514870543724,Relax
76.00698653236441,791.1486486486486,72.31053323912717,,,,,,,100.26499136363941,100.89515822285938,0.09139942710215065,0.12673344198324907,813.0,45.9606,0.05653210332103321,90.5,0.7211942299667939,729.4,841.0,28.37837837837838,54.054054054054056,582.0,982.0,10.571428571428571,281.25,,,0.053701108641332165,0.08391140260916764,0.06378326803186748,0.2013957792823673,0.6399739126213236,0.2666446577613746,0.4166492610131592,-2.4779937676020656,71.34365056827352,70.61909179769881,1.0102600975477047,15828.046904439552,0.9898441029467462,4.906397438535127,279.6075662856284,0.6216216216216216,0.6338028169014085,0.8888888888888888,0.2222222222222222,52.98438934802571,53.29719319378613,52.67549363659704,45.07042253521127,0.4358241332980867,0.5641758667019134,47.12866549257587,53.62122817607884,0.6705929912152102,0.32940700878478957,57.82979236617565,40.53111448278744,0.5519362663424728,0.4480637336575272,52.75128432666877,47.52897722615085,0.6036113288605336,1.7187250741217428,1.1658359855442886,1.0726617287771365,0.3325794335145442,0.17052697201837375,-0.5542112628541034,0.0036142185674466185,0.3101949098959648,0.6123416824403227,1.0240014248769351,5.912156068331652,0.9175941321366059,0.7574853162365338,0.8966124858351682,0.8820690492938705,1.4114541796774427,1.8851253585107703,2.3762580976188192,0.9230268516475466,Relax
75.31483700514583,798.1917808219179,67.36852577309513,,,,,,,102.9042165208879,103.61871466182647,0.08440142756634764,0.12892166894392834,812.0,41.5128,0.05112413793103448,59.0,0.6546721606827491,751.8,841.0,27.397260273972602,53.42465753424658,582.0,982.0,10.428571428571429,281.25,,,0.025165835055810618,0.03263612980810853,0.03576845666152882,0.09357042152544798,0.7711035347566886,0.2689507500932478,0.34878682040812026,-3.4223353279719513,73.26949579521144,60.68925958093412,1.2072893342437394,13969.630359241371,0.8283018590787203,4.852155024661111,201.0761061479951,0.6027397260273972,0.6142857142857143,0.8837209302325582,0.15,51.02974828375285,51.12228284498633,50.933176607092,42.857142857142854,0.41997408279863807,0.580025917201362,47.4860987812727,55.80574961543698,0.7091845747928287,0.2908154252071712,51.108305189360486,32.72808227124209,0.5376463460533045,0.46235365394669553,49.33045933697355,45.74608758841588,0.46678884108759694,2.329865806664288,1.188770853591275,0.9996526307125849,0.08626360833844515,0.5105169767670663,-0.5811712942169207,0.005263188422464655,0.5114194019027551,0.6134849921824652,1.058120927313373,5.823319250631203,0.9283478267056624,1.2637320336391145,1.035733749464188,1.0179393518981354,1.4386182630978541,1.911994973085401,3.2206967941919515,1.017505406939181,Relax
74.9651362032455,800.8513513513514,64.21916293879727,,,,,,,98.00223648552304,98.65059492083358,0.08018861781332362,0.12237256804293918,816.0,39.2889,0.04814816176470588,54.25,0.6552826266192789,772.2,841.0,22.972972972972975,52.702702702702695,582.0,989.0,10.571428571428571,273.4375,,,0.01941819312716268,0.042606602094634356,0.030969330565618274,0.09299412578741531,0.4557554973295583,0.2088109648081718,0.45816444569878645,-3.1557460589674924,69.75650463660861,56.21660855677413,1.2408522397106239,12319.674272324626,0.8058977273822768,4.797569335354963,181.21934830817332,0.5540540540540541,0.5694444444444444,0.8292682926829268,0.15,47.84946236559139,47.86653244444032,47.82473765230868,47.22222222222222,0.39435820197283217,0.6056417980271678,43.8189139781239,54.30303347368768,0.6737459392325585,0.32625406076744135,46.14373262186472,32.110169998731365,0.504325375834611,0.4956746241653891,44.996340309520534,44.60875733413716,0.5237370021731342,1.7786961198057143,1.0879398973450503,0.9729751415757242,0.15765134147314797,0.07932229156371084,-0.5646342871551795,0.0031661814492895627,0.29957513483362685,0.6066218735165076,1.05999745254033,5.783645595300207,0.8885510806126944,1.2235124572003044,1.0680526657126432,1.1883146686253703,1.4859218325606272,1.9367260092469478,2.9334307778475344,1.0908499155834641,Relax
74.05392107591109,811.7671232876712,51.78173223250144,,,,,,,76.3120421544187,76.8377148853022,0.06378890047035227,0.09400730821094797,818.0,34.099799999999995,0.041686797066014664,46.0,0.6785525687770252,784.8,843.6,20.54794520547945,47.94520547945205,623.0,971.0,8.11111111111111,234.375,,,0.023336409127864388,0.045086595892432746,0.020773089699125686,0.08919609471942282,0.5175908419331593,0.26163039089628204,0.5054772412879525,-3.0991702852422405,54.332469246275714,48.78499907333492,1.1137126222878817,8327.13521282562,0.8978976981923006,4.6274657265844565,175.21575349704378,0.5342465753424658,0.5492957746478874,0.8461538461538461,0.08695652173913043,51.35384615384615,51.33625102558814,51.37006256331213,47.88732394366197,0.4616498208893997,0.5383501791106002,36.92083270084714,39.870123658742024,0.6353585200258832,0.3646414799741168,38.88622011159006,29.459090617638854,0.5391750185178924,0.4608249814821078,37.91626301398237,35.0532793086584,0.4507410654600616,2.4930746803364454,1.140030951786537,1.2439007896034011,-0.2484295504938281,-0.33277283024195287,-0.4583366520721927,0.00485819350723129,0.5873440065650705,0.5856411354364899,1.1977031913123406,5.686332949261339,0.9962951921452385,0.769012345885715,1.2655239314782694,1.5798029286244915,1.5930566890761,1.96581834501612,3.0088455408338,1.1022975241841126,Relax
75.07075347565168,801.3243243243244,59.915490280599435,,,,,,,90.23690281773298,90.85926696102091,0.07477058721650574,0.11260971379325171,809.5,45.2193,0.05586077825818406,62.25,0.6639799063319036,761.8,842.2,28.37837837837838,56.75675675675676,623.0,971.0,10.571428571428571,234.375,,,0.02488321457411445,0.08012162030562851,0.023938442054839772,0.12894327693458274,0.3105680399272506,0.19297799129720072,0.6213710571841361,-2.524209544903883,64.2472038017767,55.70144581111886,1.1534207571493948,11242.698692098655,0.8669863046954657,4.757840681551517,193.16956267990665,0.5675675675675675,0.5833333333333334,0.8333333333333334,0.15,50.54360956752839,50.61286742227479,50.47318078359425,47.22222222222222,0.4344122055728553,0.5655877944271444,42.34629066793612,48.31860407751863,0.6714089632788955,0.3285910367211044,45.64151328855432,31.929662230905755,0.5361082810009032,0.46389171899909676,44.02474343254379,40.9523554278611,0.4937660568641426,2.2976797785274328,1.0832969374964085,1.3735067258438265,-0.33770439116120343,-0.8026391840198339,-0.3736944150966887,0.005606598374517103,0.5551913204165266,0.544837987101396,1.3862943611198906,5.901954885869983,1.051612526453634,0.9158904115324116,1.0234626227589134,1.3126316756779222,1.7160291470440043,1.9641160381156952,3.532628124597901,1.174761447551423,Relax
75.87757285549718,792.2266666666667,60.73837856438572,,,,,,,90.404272202327,91.02092492678787,0.07666792992458267,0.11411414940462367,794.0,45.9606,0.057884886649874054,60.0,0.6718529676169698,750.2,838.2,30.666666666666664,58.666666666666664,623.0,971.0,10.714285714285714,171.875,,,0.013040745781378555,0.08585593324101591,0.027261926680768888,0.12615860570316334,0.15189102592095063,0.10336786546343044,0.6805396489798328,-2.455084582308459,64.36151324560335,54.62499888802942,1.1782428293963334,11045.046798964317,0.8487214817274507,4.750137670322156,185.4456399824347,0.56,0.5753424657534246,0.8333333333333334,0.1,49.75688816855753,49.902276309149116,49.61061250553115,50.68493150684932,0.4230163178719471,0.5769836821280527,41.86074435325081,48.88888715926384,0.6002698746647085,0.3997301253352916,42.32185698382684,34.536226269784066,0.49723471375257516,0.5027652862474248,42.09193210324107,42.32537189812368,0.46559244683683354,2.063206255907028,1.0001247714540158,1.1952268151325098,-0.20457071250201864,-0.5931095185143913,-0.40543745051183777,0.0038821094312394815,0.4180027221812708,0.608933859911494,1.6094379124341003,5.915355023771522,1.1086047449320602,1.0514790844698014,1.051759152575562,1.3073383195182608,1.8164487759570545,1.9462589435748143,2.6732664002162583,1.245763738099176,Relax
76.39113738153483,787.48,56.40547222829801,,,,,,,78.97211276516917,79.42500694988489,0.07162781559950476,0.10028459486611618,791.0,41.5128,0.05248141592920354,49.5,0.7142454501125588,751.8,821.2,25.333333333333336,56.00000000000001,622.0,971.0,6.818181818181818,171.875,,,0.025126106258162837,0.08540054367993863,0.020969518079080023,0.13149616801718148,0.2942148278625677,0.19107861952965674,0.6494527176547081,-2.4604028119322496,56.161961010052266,52.520812679657325,1.0693277225659772,9266.667363978908,0.9351670015627976,4.673893683840656,196.462923653106,0.52,0.5342465753424658,0.8205128205128205,0.043478260869565216,53.732162458836456,53.96603075509786,53.519218048457105,50.68493150684932,0.48327656291981924,0.5167234370801806,39.085084567088224,40.41497077833533,0.593525961921218,0.4064740380787819,40.4623682023376,33.484810347232276,0.5346522672173503,0.4653477327826496,39.77968750604999,37.11200875056356,0.6100233646753508,2.0444941388962516,1.0784091553029405,1.1816136920919023,-0.43712338382987426,-0.45414956193940004,-0.4495207470515527,0.0015828275096314902,0.3009913367438015,0.6130596037460179,1.5284688499004333,5.823958317474543,1.1052276583949134,1.21499148765342,1.0182463082808817,1.287969204527944,1.7324743462140177,1.950651287179324,2.1978581561685715,1.3288146539724546,Relax
76.78783860322724,782.68,54.146238420920206,,,,,,,74.0562240755247,74.52150210639881,0.06918055708708566,0.09461877660796839,780.0,42.9954,0.055122307692307686,57.0,0.7311504076375849,744.6,820.2,21.333333333333336,57.333333333333336,626.0,971.0,9.375,179.6875,,,0.024886641017108937,0.10703739133670216,0.020002731833899237,0.15192676418771034,0.23250418107467022,0.1638068259412193,0.7045328182232201,-2.234577053819391,52.69465948364218,53.87844038567919,0.9780286716994194,8919.314771121475,1.0224649122631582,4.657301600823144,220.35525928727708,0.49333333333333335,0.5068493150684932,0.7837837837837838,0.047619047619047616,52.65957446808511,52.91214525079212,52.41317597257583,53.42465753424658,0.44486004336684415,0.5551399566331559,35.165168008924546,39.2827823136469,0.5730498132281088,0.4269501867718912,40.786008312148475,35.20494090826659,0.510344068617662,0.4896559313823379,38.0794400899917,37.29963036449498,0.500513372179798,2.4417417831489288,1.0617996436873496,1.3579845691224002,-1.153180175909501,-1.4306505562655554,-0.3786993254245404,0.0025985249307076803,0.44540608042528357,0.6433923814419269,2.6210388241125804,5.978753523800369,1.1356293931787271,0.8989379243920602,1.207880353071019,1.5956224269109245,1.8615360540590686,1.9513047224640174,2.22663185446261,1.245763738099176,Relax
77.95334443733957,770.7763157894736,54.470444263339864,,,,,,,78.30053213952849,78.78953147639774,0.07066958746332012,0.10158658294959226,766.0,38.547599999999996,0.05032323759791122,51.25,0.6956586727440838,735.0,798.0,21.052631578947366,57.89473684210527,626.0,972.0,7.6,132.8125,,,0.040399783804278284,0.1129449691315793,0.021978120391900953,0.17532287332775853,0.3576944074172361,0.2304307648937092,0.6442112599902099,-2.180854577727825,55.71261199347176,51.51959655149512,1.081386806625817,9017.286038914795,0.9247384875354979,4.662045956186895,190.5686151738746,0.5394736842105263,0.5540540540540541,0.8292682926829268,0.045454545454545456,52.61802575107295,52.78473208214456,52.462242498049314,52.702702702702695,0.5012428695389314,0.49875713046106873,39.46286314457641,39.3648903795577,0.45474870850007704,0.545251291499923,34.742269959257435,38.04265378370582,0.47982226106282944,0.5201777389371707,37.177566417730254,38.70941811433944,0.5803057715024196,2.4811434333134423,1.1049095174695398,1.3317020753528026,-1.1592972738839045,-1.096184060894811,-0.40859353198279524,0.0017895322648610321,0.40835020605268796,0.704572639376539,2.5336968139574325,5.92220530946775,1.1348944403412813,1.0626806043060124,1.0450997811997165,1.3722757065447864,1.753079499961537,1.9912353529692743,2.2264929249436567,1.1509340156343446,Relax
79.21412060272614,758.0,45.418115271389176,,,,,,,62.24438638434503,62.649664959044436,0.05991835787782213,0.08211660472868737,756.5,35.5824,0.047035558493060146,49.5,0.7296740784131531,729.2,792.0,15.384615384615385,53.84615384615385,597.0,905.0,7.090909090909091,156.25,,,0.02709759552466869,0.05068233637055008,0.007836571925717992,0.08561650382093676,0.534655611109796,0.31649967372344645,0.5919692361714514,-2.9821778241468415,44.30000293160554,46.54898969428274,0.9516855945220778,6478.342236374469,1.050767192186181,4.518433997051036,195.6486048006598,0.5641025641025641,0.5789473684210527,0.8409090909090909,0.09090909090909091,50.78337874659401,50.858777695235545,50.70876694116082,52.63157894736842,0.4024154783693007,0.5975845216306992,28.10354444774388,34.247070562389176,0.5830986071012558,0.41690139289874395,35.5452244911742,30.055705904710855,0.4972230029336969,0.5027769970663031,32.041162546436155,32.21961591589613,0.6659327279049971,1.752535638826977,1.0992516096986886,0.9100903580493105,0.06887493209118567,0.48309221293850957,-0.6079357517522378,0.0011367542015890701,0.2062138302333737,0.6508567844888193,2.3191143949452564,5.778866641883698,1.1952987462875788,1.3499763184562645,1.1457931160438242,1.445956585346662,1.8506131567054034,1.9749347453191997,2.8506625623956374,1.0475670364770413,Relax
79.1397128731943,758.4102564102565,37.69268622343856,,,,,,,39.81744054341729,40.06748835019606,0.04969959979424247,0.05250118943786849,757.0,33.3585,0.0440667107001321,40.5,0.9466375967168988,733.2,789.8,6.41025641025641,46.15384615384615,597.0,867.0,6.0,156.25,,,0.03575275836094914,0.04731747198905182,0.0016653484105675499,0.08473557876056852,0.7555931637518909,0.42193325264200116,0.5584132743431603,-3.0508756650299915,28.33199271753662,43.602169438774496,0.6497840149288896,3880.923592473277,1.538972915653268,4.295905202407066,268.4102313199944,0.5512820512820513,0.5657894736842105,0.813953488372093,0.08695652173913043,51.80904522613067,51.67384948445516,51.96673756779722,52.63157894736842,0.4685938498337129,0.5314061501662872,19.399708353749194,20.659042877916175,0.5380555232516826,0.4619444767483174,31.983180215534595,29.634867353646737,0.5174261911087374,0.48257380889126256,26.45063799712485,25.544289143562168,0.8275994316095496,1.9962527645835904,1.2259913479029068,0.9972128249265304,0.04641843332841411,1.0839024069594094,-0.614603985544936,0.0006413587047514693,0.2270978634063706,0.6825216457163301,2.501435951739211,5.769188596984166,1.229978039192876,0.9000120601018302,1.0372104567584381,1.30740016719378,1.8280427402081982,1.8777360452107188,2.133308457150197,0.8864028770190351,Relax
79.24960100169888,757.4615384615385,42.451712004910384,,,,,,,49.46532302348972,49.78198539351111,0.05604470966424647,0.06530407223574351,754.5,35.5824,0.04716023856858847,44.75,0.8582115593332169,729.4,787.2,10.256410256410255,46.15384615384615,597.0,913.0,6.0,156.25,,,0.023083706131553597,0.032824635821632246,0.008537153392308367,0.06444549534549421,0.7032433278769498,0.358189598944056,0.5093394913897147,-3.4165759533976328,35.201179452681366,46.98526186514112,0.7491961958989848,5195.995180592925,1.3347638515436768,4.422638849544677,250.85691637161602,0.5641025641025641,0.5789473684210527,0.7954545454545454,0.14285714285714285,51.473823141223065,51.416651100517505,51.542275956403095,51.31578947368421,0.4028980122608213,0.5971019877391789,22.34714158101893,27.204996638582095,0.5925965628873843,0.40740343711261584,36.169392612262286,29.989829452597945,0.5243852719432598,0.4756147280567403,30.063430432853792,28.631291559246627,0.8841179912334647,1.4982953053032562,1.2878046076335232,0.9008372183101758,0.6208308293923608,1.2969831191002985,-0.7582717759000285,0.001327821322450885,0.17616110623003067,0.6014604459321209,1.5686159179138455,5.727584590601647,1.107339991723371,1.0711526207508943,0.899961934066053,1.373848871497975,1.7568998775989175,1.913474515927416,2.2247543333872146,0.9669849567480383,Relax
79.42456036522833,756.0769230769231,44.308472770349006,,,,,,,51.75002352719209,52.03441142800523,0.05860312809182389,0.06844544774173336,753.5,33.3585,0.044271400132714,44.75,0.856201983117304,729.4,782.2,10.256410256410255,42.30769230769231,597.0,939.0,5.2,156.25,,,0.04944888187443489,0.05531308467635812,0.014862539893836754,0.11962450644462976,0.8939816349741618,0.4133674891885397,0.46238924046855506,-2.8947457858498216,36.79388517579327,46.67294147021254,0.7883343971212046,5394.990617036541,1.268497231189891,4.438960803656754,236.8179881058098,0.5512820512820513,0.5714285714285714,0.7727272727272727,0.13636363636363635,54.01491882404563,53.66343075325752,54.413753810465984,49.35064935064935,0.4655668223324652,0.5344331776675348,25.13188894821205,26.926557033609228,0.6350889945578527,0.36491100544214705,37.194820379650324,28.19412709071581,0.5700305740885756,0.42996942591142434,31.74166430088153,27.56762844435159,0.9741357282033561,2.74896889217117,1.5440917513922958,1.607538130090081,-1.1196254889254202,-0.4586320146236882,-0.47691993573354896,0.0015857193194535994,0.4580304910293106,0.667298278416212,1.3758230612525957,5.640983468779037,0.9948946840760905,1.452126662493369,0.9120774846963176,1.3398328930580383,1.6069454657023878,1.845280447918736,2.3843487241523644,0.9669849567480383,Relax
79.3016109727634,756.8461538461538,40.38486180411,,,,,,,47.994182547904266,48.30048066002101,0.053359406794738294,0.06341339293858679,754.0,36.323699999999995,0.04817466843501326,45.0,0.8414532691290408,730.4,786.6,12.82051282051282,42.30769230769231,597.0,913.0,5.571428571428571,156.25,,,0.05258755711536561,0.04990236475343704,0.014477475012569702,0.11696739688137235,1.0538089201823573,0.4495915829322901,0.4266348237539023,-2.9976868874990896,34.153597409270546,45.46170449432944,0.751260820269742,4877.890446487868,1.3310956368534537,4.395202152142849,242.05550598529183,0.5641025641025641,0.5844155844155845,0.8222222222222222,0.13636363636363635,51.55195681511471,51.57428569238627,51.52757925876625,45.45454545454545,0.3549065486426297,0.6450934513573703,20.350223068737318,27.436169941386343,0.6126843214458653,0.387315678554135,35.58476467416117,28.29295139454886,0.5196639814935315,0.4803360185064685,28.986264470114094,27.867853520382006,0.9097565027996939,1.743998192295149,1.327196348967966,1.1012790876654388,0.27486754183870765,0.8694651838222276,-0.6295398483212955,0.000957922320991738,0.20356024949464502,0.6801112099745277,1.409824858530085,5.708228500802584,1.1166152151006508,0.7976755586152144,1.3255143466270796,1.5668329799065144,1.6972649586347184,1.8582029706799486,2.500666691581765,0.9669849567480383,Relax
78.68158648201302,763.0519480519481,43.97244834280238,,,,,,,55.15468677895117,55.4598179180997,0.057627070417765006,0.07228169316618568,758.0,34.099799999999995,0.044986543535620045,46.0,0.7972567865181623,735.2,788.6,15.584415584415584,36.36363636363637,597.0,913.0,5.923076923076923,156.25,,,0.054209718103888756,0.04932986606098136,0.008739047316875227,0.11227863148174533,1.098922872340155,0.48281420416762355,0.4393522205425312,-3.0092255789037408,39.21601333325949,45.73803649541746,0.8574048284120938,5634.959914520993,1.1663102036082433,4.457860940909265,213.3789546304464,0.5454545454545454,0.5599999999999999,0.8095238095238095,0.19047619047619047,54.17549809241204,54.16795248651587,54.18565191411842,40.0,0.3599558813988192,0.6400441186011807,23.55419283269966,31.40859754907882,0.710845681057765,0.2891543189422349,38.56249998690533,24.594746943525696,0.5619916876761023,0.4380083123238978,31.952045358944343,28.20816882762923,0.8203650453179565,1.9294122898224972,1.3608053809268184,1.144892228970699,0.07780454712480989,0.456441017117418,-0.6119061763496816,0.002183803201455639,0.29080304763101966,0.7259840582877168,1.4566751578816903,5.727698553625721,0.9798481931691984,1.000668155894422,1.3181464021195075,1.7589058255448076,1.6454427751492489,1.877408177374914,2.227013047662337,0.9766420582901144,Relax
77.9146522806965,770.4473684210526,44.54821948910106,,,,,,,64.8771146090823,65.31027263541098,0.05782123648549511,0.08420706886447134,772.0,32.6172,0.04225025906735751,43.5,0.6866553754359577,738.0,791.0,21.052631578947366,38.15789473684211,679.0,914.0,6.909090909090909,132.8125,,,0.05614678717355957,0.09955364305225083,0.01587458236994426,0.17157501259575467,0.5639852591239768,0.32724338074709153,0.5802339253607265,-2.3070586539406075,46.1813366616413,43.18517221337781,1.069379472043308,6265.432094136812,0.9351217469036115,4.503921137347555,161.53357472202862,0.5789473684210527,0.5945945945945946,0.8636363636363636,0.23809523809523808,49.06474820143886,49.18930617115896,48.94225630884505,41.891891891891895,0.30797204746608886,0.6920279525339113,25.629902299694624,38.419624771301024,0.7410266283162696,0.25897337168373036,37.17505014325002,21.976686418701657,0.5099844369466491,0.4900155630533511,31.92864110046844,31.29730270737011,0.622169248861187,2.630246962631304,1.3121634568239582,1.3361401576772707,-0.6204220598324142,-0.33316305558864756,-0.4908842396953758,0.0038825367641743464,0.5501582980066376,0.6612898422377289,1.329135947279942,5.780693631807703,1.0019948918526143,0.8023351253519951,1.3027518787961418,1.7469023530956747,1.6971204713440322,1.9480401088331698,3.3792918260539384,1.0687244430890344,Relax
80.33641144088493,748.3461538461538,64.77991249559591,,,,,,,72.49818627377525,72.97332586944626,0.08656410160279045,0.09687787650296328,753.0,51.891,0.06891235059760956,78.25,0.8935383879945247,688.2,790.0,26.923076923076923,47.43589743589743,584.0,914.0,8.666666666666666,171.875,,,0.047044069513383704,0.06428839792328042,0.023090745611140554,0.1344232130478047,0.7317660889531652,0.3499698336823232,0.47825369194543543,-2.744376100671152,51.59993356802115,74.47291548021357,0.6928684507017929,12072.504368202564,1.443275413950685,4.788767481175275,429.9397116712785,0.5769230769230769,0.5921052631578947,0.8444444444444444,0.2,49.77947662452221,49.91273898269765,49.63318261364386,42.10526315789473,0.3269320576905495,0.6730679423094504,29.50390250725986,42.333108854219034,0.596828120428321,0.40317187957167916,57.53379144094996,47.28718624059066,0.5092856181716534,0.4907143818283464,45.719894032732746,44.87855884392604,0.8106394140188568,2.634304091597589,1.4641375140131143,1.7983639071701594,-1.0094316316076206,-1.3596833218914366,-0.3731253562475578,0.004889554780682244,0.6140532302159611,0.5251141284628225,1.0198314108149953,5.9936728919114355,0.919148324465249,1.2779616953716748,1.0779192145881393,1.4851506905632625,1.5902725721387854,1.9073590097047413,2.4346847226668826,0.8864028770190351,Relax
81.1162078387137,740.2025316455696,65.92680085088065,,,,,,,64.67740460676099,65.09270650050158,0.08906589484950359,0.08737798351347764,751.0,50.4084,0.06712170439414114,88.5,1.019317352817665,684.2,785.0,24.050632911392405,48.10126582278481,584.0,914.0,8.777777777777779,218.75,,,0.011541205900065958,0.03462856396935665,0.003864148123344834,0.05003391799276744,0.33328572072116386,0.2306676423328326,0.6921017853201565,-3.3630763892486817,46.027494172290325,81.54961114308932,0.5644109582758052,11792.044214026762,1.7717586544649258,4.77855920885803,577.9449172440715,0.5316455696202531,0.5333333333333333,0.8,0.15,49.16256157635468,49.35063957521123,48.97294495189913,41.333333333333336,0.3114221528899403,0.6885778471100595,25.68705267882392,38.19583848957996,0.558207018622311,0.441792981377689,60.92836736142245,54.203995500891146,0.49857997846012597,0.501420021539874,46.75516348304818,46.88813925814665,0.9773483437680874,2.1794652844592655,1.3836383000235515,1.837743913799832,-1.3041889172539918,-1.8362093816665457,-0.2916435664223274,0.002139271284380171,0.359019989967127,0.5228751281648529,0.933097850190536,5.955555748122331,0.9093498384386591,0.9189738804425774,0.998904473445547,1.2623890521605339,1.47632899226055,1.7814242179735194,2.5966997540376684,0.7979469301490004,Relax
80.56345144000117,745.3291139240506,69.18902416271976,,,,,,,64.84636676060796,65.26508868860749,0.09283016437993345,0.08700366797588406,759.0,51.891,0.06836758893280633,96.5,1.0669683996043062,684.2,792.8,22.78481012658228,48.10126582278481,584.0,914.0,11.285714285714286,226.5625,,,0.020648866626169823,0.013004353357810385,0.008969921439641773,0.04262314142362198,1.5878426291583472,0.4844520121345656,0.30510077210318665,-4.342471103900554,46.14938678645579,86.96929348142373,0.5306400102734318,12609.032071035299,1.8845167734048422,4.807651859315009,655.5803693476457,0.5316455696202531,0.5333333333333333,0.8,0.15,50.45513654096227,50.62009904610232,50.27687723979284,40.0,0.3146277066043891,0.685372293395611,25.88636506162841,38.20637738293534,0.5498192827973821,0.45018071720261793,64.48755710712743,58.352489124398,0.49814353008847817,0.5018564699115219,49.136284544870286,49.31906456807681,0.9762689363340498,1.6129167105420845,1.3620994418402255,1.5398214821388085,-0.3824676268639191,-0.9026531360744139,-0.38981325623512664,0.0012068759449119252,0.19800411209355914,0.47481490004963023,0.9923900754128022,6.06637710890921,0.874522131784994,0.9153666242905111,0.9095249169080691,1.1755278438964014,1.637308460660053,1.7631852995942472,2.8385987993993265,0.9575363161788004,Relax
80.34752540846843,747.9746835443038,75.33786712308083,,,,,,,79.83604995110211,80.33418793752602,0.10072248269966805,0.10673629964692954,766.0,60.7866,0.07935587467362924,104.5,0.9436572471862482,674.4,800.4,31.645569620253166,56.9620253164557,584.0,914.0,9.875,203.125,,,0.01585771040564818,0.009215994029098788,0.005877178417182297,0.030950882851929262,1.7206728167985663,0.5123508263564676,0.2977619111283065,-4.686814822913058,56.8048490517392,90.15116620007069,0.6301066469364726,16088.16945407851,1.5870329330152586,4.913476741927879,572.2914788369769,0.5949367088607594,0.5945945945945946,0.8409090909090909,0.2,51.67667667667667,51.94437214219282,51.39586364372343,43.24324324324324,0.35383058838674375,0.6461694116132564,33.79742939583177,45.67296224813408,0.5526893377514002,0.4473106622485998,67.02115260030492,60.29426068341339,0.49615533969754844,0.5038446603024517,53.07589438549101,53.48559316245306,0.8833865794651257,0.8594786785998672,1.2739209178448085,1.0465896742037217,0.9724291078760361,0.5122438523393509,-0.7644989914251515,0.0022972429125086642,0.11368657993249995,0.5017014355240503,0.8527773261518291,5.990427741820602,0.9134966491902461,0.9288326528527555,0.9826129177098123,1.0987690027893904,1.6067109104043975,1.838547084613555,2.6510506440935035,0.9575363161788004,Relax
76.84283693729807,781.7368421052631,47.0147121430594,,,,,,,57.978041820445554,58.342780187440496,0.060141353983581,0.07416567660327648,778.0,38.547599999999996,0.04954704370179948,47.5,0.8109054853673928,746.0,814.0,19.736842105263158,51.31578947368421,656.0,920.0,9.5,187.5,,,0.059540462408710554,0.14365747587299338,0.048806625280072354,0.2520045635617763,0.4144612874957505,0.23626739757081752,0.5700590252913307,-1.9403234526346707,41.25457550381533,51.57680357163158,0.7998668518982492,6684.615305861903,1.2502080785405638,4.532046528987066,257.9269459622144,0.5263157894736842,0.5466666666666666,0.7560975609756098,0.045454545454545456,52.25919439579685,52.26064718488147,52.255878176040085,50.66666666666667,0.49554756077728285,0.5044524392227171,29.054003771169562,29.313888415801376,0.5276619981926667,0.47233800180733343,37.46556897818127,35.44711282753234,0.5151253500536705,0.48487464994632956,33.524647604367104,32.52538902043957,0.9245644133276644,1.7669996329376927,1.3350224057342446,1.5161123887467558,-0.3650929130622398,-0.7549725908251821,-0.39751555142575584,0.0015956351450524462,0.24658545534130952,0.5459950802361897,2.2617630984737906,5.737994783151961,1.2359830669797178,1.2505206400361963,1.1028137534161353,1.5676072880626994,1.8918692729636104,1.869525295027754,2.685531023004247,1.0687244430890344,Stress
77.10847767455252,778.4868421052631,43.75065513293948,,,,,,,56.48492424237344,56.86377589475578,0.056199607709007025,0.07255732683884698,779.0,31.1346,0.03996739409499358,40.5,0.7745545509666973,747.0,805.0,17.105263157894736,55.26315789473685,656.0,920.0,6.909090909090909,140.625,,,0.04824081219982773,0.0875616166176051,0.0506754422743645,0.1864778710917973,0.550935604701118,0.25869456744323444,0.46955499923366895,-2.4354125435284626,40.20876153905395,45.899109885577175,0.8760248649547059,5797.954899768324,1.1415201097650398,4.4702449427714,209.57902781880668,0.5131578947368421,0.5333333333333333,0.75,0.045454545454545456,50.55976886962803,50.6542738531593,50.47183104109712,50.66666666666667,0.4696206710657735,0.5303793289342265,27.555349703774354,29.28367777079552,0.5698250570045476,0.43017494299545234,34.64774981101899,30.104181126901977,0.5263146548395641,0.47368534516043614,31.30306585834895,29.696763334622048,0.5317330876676158,2.421443823853159,1.0114191109856887,1.0526615526321472,-0.9147700096488158,-0.32405773666439797,-0.4829678304984045,0.0009956636331522701,0.3356144601146018,0.5392606643567555,2.505525936990736,5.728062052860336,1.301799800354531,1.5290648846150876,1.3275654586458039,1.5501541627759878,1.8264620846007344,1.930292567468981,2.354568451513984,1.0687244430890344,Stress
77.18916890243905,777.4473684210526,38.761972683492125,,,,,,,48.13896550612612,48.446002261643166,0.049858002300805636,0.06191925969714628,779.0,25.9455,0.033306161745827984,37.25,0.805209922480767,747.0,798.0,10.526315789473683,47.368421052631575,657.0,920.0,5.846153846153846,132.8125,,,0.025421960216102088,0.12002657132766767,0.03413125145426858,0.17957978299803834,0.2118027694609485,0.14156359803809201,0.6683746317311163,-2.1200421329810286,34.256496720586696,40.89810894546735,0.8376058845719142,4401.4527847861245,1.1938789094241888,4.350566157420285,195.30955882130488,0.4868421052631579,0.5066666666666667,0.6842105263157895,0.043478260869565216,47.90940766550522,48.154659477308684,47.65566383073991,50.66666666666667,0.3639889069170666,0.6360110930829337,20.67476592239791,27.329322931457558,0.5931327344833129,0.40686726551668706,31.4977240609702,26.087328232195304,0.4986146754145716,0.5013853245854286,26.64162689258078,26.7155440351323,0.9022367233904254,2.480516881420071,1.3239814594527175,1.546569602798102,-1.1278560004647638,-0.6542392277582056,-0.41026541886787926,0.0014141641390191379,0.3667549141500474,0.6232125006564408,2.114532861491106,5.6654977436213425,1.28771555648775,1.1889111597336761,1.0786556940454546,1.3315145928193846,1.8108562144506222,1.9380650342401866,2.1009389199383657,1.0687244430890344,Stress
77.43988806636877,775.9736842105264,43.28848151158628,,,,,,,50.94873240163423,51.258848500035086,0.05578601748025498,0.06565780958599046,776.0,30.3933,0.03916662371134021,47.0,0.8496478611153389,742.0,797.0,13.157894736842104,51.31578947368421,667.0,935.0,5.428571428571429,125.0,,,0.029165967332931655,0.06760538883914262,0.014020272655436476,0.11079162882751076,0.43141482999717545,0.2632506412405901,0.6102030411015626,-2.6940675825550504,36.2454793701887,48.14166781676951,0.752892058250692,5481.821028617656,1.3282116460671018,4.445894962480016,255.76929542130821,0.5131578947368421,0.5270270270270271,0.717948717948718,0.15,52.70858046658758,52.62168743627449,52.791271559269234,51.35135135135135,0.52545419990446,0.4745458000955399,26.290605659549684,24.984589845137137,0.5262833406101362,0.47371665938986385,34.92455999280006,33.13450300652613,0.5259831316350042,0.474016868364996,30.910522776529003,29.34386664380837,0.823054932643794,1.8919601744458219,1.204775619169915,1.210302340055349,-0.392769469359596,-0.14329840255672188,-0.49707883867742997,0.0006600275142825579,0.21099943288943332,0.6267758442241638,2.1484344131667874,5.691813533095027,1.2674842957183798,1.0776537544505163,1.221819994031617,1.3632507024778546,1.7868287365950783,1.954534282890979,2.497198136537618,1.1509340156343446,Stress
77.22127166138662,777.6052631578947,42.07361134879943,,,,,,,48.689903128540585,49.009533913458256,0.05410664426052924,0.06261519235454811,778.0,31.875899999999998,0.04097159383033419,42.5,0.8641136795389746,747.0,805.0,10.526315789473683,51.31578947368421,667.0,920.0,6.909090909090909,125.0,,,0.06024907598537995,0.04881104674550256,0.008779641481626486,0.117839764212509,1.2343327996941857,0.5112796719172691,0.41421541422535485,-3.0197986240046375,34.654973772998396,48.543751975469064,0.7138915383077687,5285.046191061365,1.4007730115003632,4.430018897335681,271.995110576818,0.5394736842105263,0.5540540540540541,0.7560975609756098,0.2,51.37014314928427,51.421698938424335,51.31605535153266,47.2972972972973,0.4264494974775454,0.5735505025224545,22.634582486194095,26.24971042311319,0.6120679004321988,0.3879320995678014,37.97809198565498,30.235085331200654,0.5493908380705192,0.45060916192948086,31.26227595037824,28.312609225239928,0.9316368015752075,2.3876248034831944,1.3356386250697627,1.4664497036137925,-0.8470718795764753,-0.252858758646485,-0.44521288338385684,0.0010660166827342486,0.32850406203011473,0.5829426452387003,2.0243817644968085,5.780693631807703,1.3273782935039495,0.9396804009796695,0.9894007949874922,1.4062460594277184,1.8625567244196712,1.9141236642433586,2.5692089978314994,1.233143588179655,Stress
77.23821893054918,777.0533333333333,38.995458271005944,,,,,,,41.08215236867761,41.3576364300159,0.050183760365233546,0.05286915402890958,784.0,34.099799999999995,0.04349464285714285,42.0,0.9492067971769017,747.0,805.0,8.0,48.0,667.0,881.0,7.5,125.0,,,0.06563382298445963,0.06174722382274418,0.01853521627840546,0.14591626308560926,1.0629437069571352,0.44980471399512323,0.42316889507043504,-2.7847062628208334,29.24426517351204,47.03022829197318,0.621818482188896,4320.834906607779,1.6081863576647757,4.342537782771751,302.533486148045,0.49333333333333335,0.5068493150684932,0.6756756756756757,0.14285714285714285,48.8750598372427,48.94056423724003,48.81339633994056,47.94520547945205,0.36563298183244863,0.6343670181675516,17.68541694738181,23.29501093038111,0.6143601783535906,0.38563982164640953,36.86282510722935,29.205727149121532,0.5449926915116903,0.4550073084883097,28.910567682846686,26.416207454473003,1.112568037528,1.7167719080936443,1.3572672492783786,1.5348499028608735,-0.5559628844775855,-0.44322344579561523,-0.39656013548142915,0.0006090126889579931,0.16409447612256428,0.5246261898266429,1.6486586255873816,5.771956523742675,1.304406571194242,0.8986421936606738,0.8788332597606244,1.2976859441368598,1.950481764874665,1.849822267639727,2.7122847803200645,1.0796619063526194,Stress
78.10300956786735,768.2337662337662,39.72335124725827,,,,,,,41.00609710762535,41.24039069360769,0.05170737475130823,0.05337710851822619,767.0,34.099799999999995,0.044458670143415896,45.0,0.9687181675202993,740.2,793.0,9.090909090909092,46.75324675324675,667.0,881.0,7.7,85.9375,,,0.048140225249129615,0.037436103045283005,0.012657238035236908,0.09823356632964952,1.2859304610551696,0.49005881642922294,0.3810927816634077,-3.2851197181189793,29.161359918232577,47.183527455648075,0.618041114998108,4322.629883859476,1.6180153322049802,4.342718161530885,305.3746834030129,0.4805194805194805,0.4933333333333333,0.7027027027027027,0.21052631578947367,46.83065279091771,46.88232643970567,46.781068254851235,49.333333333333336,0.3481540604410224,0.6518459395589778,17.222465948096207,23.56579442044479,0.5953524345118347,0.4046475654881651,36.4063778936998,30.01434510061849,0.52693581765093,0.4730641823490703,28.478392551829597,26.983398400550733,1.0806715161546243,2.3018257326462486,1.4007390226964191,1.5246860718926483,-0.9641116801904541,-0.11224379000402962,-0.4461527224071234,0.000731211828729436,0.2660128847177443,0.5129305395355459,2.3978952727983702,5.85756868349585,1.2695489848743897,1.085951355463421,1.245511514672033,1.6137860308944958,2.013294160921033,1.8171268720973175,2.400235885618723,1.0580288964809574,Stress
78.29895410348679,766.5454545454545,41.25643345510378,,,,,,,39.4246449772087,39.68580770670207,0.053821248577578466,0.05143158144559959,768.0,34.099799999999995,0.04440078124999999,45.0,1.0464630303951763,738.4,793.0,7.792207792207792,38.961038961038966,667.0,881.0,9.625,171.875,,,0.056781808615486526,0.029308604839769395,0.007912084175581546,0.09400249763083747,1.9373767166985112,0.604045743959672,0.31178538420190577,-3.529874125536599,28.06210374627438,51.28659326883399,0.5471625615524605,4521.410623960337,1.8276104219607188,4.362244060398437,374.9276494599258,0.4805194805194805,0.4933333333333333,0.7027027027027027,0.21052631578947367,50.4879301489471,50.52602228714651,50.44848728993371,45.33333333333333,0.3634139527796355,0.6365860472203645,16.917249579447994,22.390176417348748,0.6374990027445695,0.36250099725543056,40.9490288739577,30.8786606478096,0.5743461371168482,0.42565386288315177,31.3290304594122,26.97046239316806,1.1477834393648136,2.0933798089484656,1.4891612707562691,1.622978070353261,-0.9850208269763403,-0.6569367776049737,-0.4360761964814164,0.0004620711795312604,0.22626613508771878,0.5593911457434548,1.6094379124341005,5.909516735443904,1.1341271219161777,0.0,0.0,0.0,1.9072907441491038,1.7006378668682467,2.7604109416267155,0.8952552200992716,Stress
77.9131560132982,769.8181818181819,42.96777472794898,,,,,,,42.36448984704053,42.638823837503,0.05581548441278209,0.05503181250796479,769.0,35.5824,0.046271001300390115,54.0,1.0142403433414788,741.4,805.0,10.38961038961039,36.36363636363637,667.0,881.0,9.625,101.5625,,,0.02105956291818441,0.02893494450262887,0.011055205943948458,0.06104971336476174,0.7278245484891479,0.3449576051628134,0.4739570901790719,-3.542705261959596,30.150201477316976,52.71767488816284,0.5719182710785081,4993.399791472587,1.748501578930547,4.405366448754659,368.70775111799986,0.4935064935064935,0.5066666666666667,0.6842105263157895,0.15789473684210525,48.5616772306192,48.566345212518904,48.558671914135964,48.0,0.3432819407482349,0.656718059251765,17.668050260286222,24.43726662292655,0.5990629583009379,0.4009370416990622,40.80303622145289,33.38061534371166,0.536004171144977,0.463995828855023,31.440799647028673,29.252739023250783,1.112155245107456,2.351214334923255,1.4166848349976524,1.651029513481046,-1.4146232746950744,-0.7596480309323628,-0.4003303633349774,0.0006434097802759964,0.269175820295209,0.506468460200467,1.4039939382192914,5.8673724172901816,1.1055465214357294,0.7903555306523851,0.9538270728210061,1.218452876145364,1.8979366362735572,1.730966877315038,2.9875724294213626,0.8952552200992716,Stress
77.58289438965178,773.6052631578947,37.71191816826379,,,,,,,36.207733980463345,36.447800511994714,0.04874826990488908,0.04680388785446159,776.5,34.8411,0.044869414037347066,46.25,1.0415431738592662,747.0,805.0,5.263157894736842,31.57894736842105,668.0,881.0,9.5,171.875,,,0.024849556326744765,0.013110394663308014,0.0003469730231523394,0.038306924013205124,1.8954087168932507,0.6486962074579168,0.3422460821649008,-4.3343498776697125,25.772486901365976,46.97656114805869,0.5486243835545426,3803.5350437105376,1.8227407129099704,4.287157531925249,342.5043622282853,0.4868421052631579,0.5,0.7297297297297297,0.08695652173913043,48.833034111310596,48.8912164957844,48.7793973779264,47.2972972972973,0.345629290617849,0.654370709382151,15.153270987533405,20.850335404652043,0.590536058737439,0.409463941262561,36.099769782899976,30.06000530470543,0.5338669572236434,0.4661330427763566,27.68406581411047,25.86832431184329,1.0359707512258918,2.5065052503141425,1.5394478334064936,1.3634953948219866,-0.4921419108311209,0.6614523187220644,-0.5701983123962955,0.001061782022349545,0.36033401984334434,0.5995695590478607,1.927891643552635,5.797076690989763,1.0649724359655268,1.1730114972608838,1.271481610309184,1.6196079085938369,1.8708248178699671,1.7709403531689643,2.589982316189891,1.0687244430890344,Stress
77.9347455373415,769.9090909090909,38.369458049401544,,,,,,,22.544400635190993,22.689989291206984,0.049836348865676824,0.029281899514358358,776.0,37.065,0.04776417525773195,54.0,1.7019506825791682,741.0,804.6,2.5974025974025974,32.467532467532465,683.0,834.0,9.625,140.625,,,0.016080237520212724,0.012802900895559077,0.00018184510633783495,0.029064983522109636,1.255983909536506,0.5532512174995916,0.4404922812297469,-4.35808350126827,16.044245292862602,51.9158859168012,0.30904308015805826,2616.7933966225833,3.2357948266906864,4.124739545154689,671.9566202905968,0.45454545454545453,0.452054794520548,0.6666666666666666,0.08695652173913043,48.796498905908095,48.84595143393558,48.747535948395374,50.68493150684932,0.4943951122271987,0.5056048877728015,11.283321024119331,11.41052146047673,0.5127171292410431,0.48728287075895693,37.17399043661486,36.24022137825296,0.5111192534803665,0.4888807465196337,27.470155608540573,26.8659044659284,1.3543294866419198,1.4966339219452323,1.5253886739931009,2.0649613506393525,-1.2484647553063493,-2.1560541810661285,-0.13947584727670181,0.0011100998268977558,0.1736225817004251,0.5248842933111146,1.8607523407150064,5.698287352242729,1.0655667348950837,0.7180883130983715,1.3653579690818054,1.6726273005508172,2.0728430396628084,1.6438151780524983,2.16776553146177,0.8138683819084287,Stress
79.24465630129284,757.1666666666666,42.536589800564315,,,,,,,23.64427939379731,23.798029465171137,0.056178634999644705,0.031227311548048396,759.5,51.149699999999996,0.06734654377880184,71.0,1.7990224651009281,713.0,800.2,2.564102564102564,38.46153846153847,666.0,834.0,11.142857142857142,93.75,,,0.03520866433125236,0.015087865882567227,0.00020567407305480828,0.050502204286874394,2.333574847847305,0.6971708429052303,0.29875658093776686,-4.19386444214385,16.82774801369978,58.02639669669475,0.29000160223042604,3067.6193990128245,3.4482568106828317,4.193771585459693,800.3596704350457,0.47435897435897434,0.4657534246575343,0.7058823529411765,0.04,49.35593220338982,49.3384318154293,49.37473067638192,49.31506849315068,0.5068413594443282,0.49315864055567177,11.980796037167584,11.81797248618436,0.4912931669169512,0.508706833083049,40.672040811515735,41.38656557179619,0.49249946495136,0.5075005350486401,29.981280638573562,30.434456488598546,1.3666416624226108,1.1778256743235946,1.5705389271729895,1.5449771942570907,0.20781333723668638,0.2793607649822416,-0.521702475564203,0.00017840312817688745,0.07260269829554336,0.5029303044754516,2.6149597780361984,5.785151577725661,1.0447086312830285,1.0449455309015818,1.1624464382130157,1.5693232971485247,2.0999035204048075,1.6476843714611762,2.8075234634095425,0.8864028770190351,Stress
80.4508862408523,746.379746835443,51.933958012141545,,,,,,,23.099561545400455,23.24734166391707,0.06958114583405438,0.030948805408158128,751.0,65.2344,0.08686338215712383,89.0,2.2482659642724925,700.8,799.8,2.5316455696202533,39.24050632911392,645.0,834.0,11.285714285714286,179.6875,,,0.008327477651973288,0.007173161500886459,0.0005696768676130762,0.016070316020472823,1.1609215338235697,0.5181900369205232,0.44636094845603475,-4.937408786980963,16.438352935116317,71.48596661753565,0.22995216701852578,3691.72181001155,4.348730490195539,4.274199077253679,1243.492810603111,0.5316455696202531,0.5205479452054794,0.7894736842105263,0.08333333333333333,49.24657534246576,49.19070692770861,49.30214688286683,49.31506849315068,0.5003123498318115,0.4996876501681883,11.628167771161788,11.62090592619416,0.5263573704094208,0.4736426295905795,51.86341957883653,49.19785699431408,0.5250491432264853,0.4749508567735146,37.58343103100574,35.74545137061801,1.4150229613445373,1.0088345046763771,1.412537731402986,1.8892346581499497,-0.3096293814101312,-1.249218270344579,-0.027477574827912143,0.0006152892768343832,0.08428839186147535,0.6998177231089966,1.717651497074333,5.854289925337522,0.895618800996076,1.2083362491537233,1.301571509072939,1.5963472203143887,1.9579550717728964,1.6764121398864658,2.230413337287057,0.6383575441192003,Stress
81.09196685863517,739.8875,49.00891000107706,,,,,,,24.31153291981796,24.450155962330353,0.06623832677410696,0.03285841823225552,735.0,53.373599999999996,0.07261714285714285,75.25,2.0158708281667677,699.0,790.6,2.5,43.75,645.0,834.0,13.333333333333334,54.6875,,,0.011017602697190472,0.006557679683011902,0.0004196269639712597,0.017994909344173634,1.6801068716015959,0.6122621951834247,0.36441860070471194,-5.027118445453106,17.288871082032486,67.25081911181935,0.25708045359694304,3652.7006927896637,3.8898328753061255,4.269584196957346,1046.3777882896818,0.525,0.52,0.7948717948717948,0.08,47.77708202880401,47.84087541472482,47.719014750982794,50.66666666666667,0.49397125907523615,0.5060287409247639,12.15946397266607,12.306971132717361,0.5304416409880061,0.46955835901199366,48.97972961714452,46.08317217642533,0.5281778231584425,0.4718221768415574,35.68519635276755,33.727735591821165,1.3648984932650574,1.2334281642156997,1.5407602750996043,1.57253812974851,-0.1640263371814754,-0.10979238946057901,-0.47423615288604004,7.088843262359601e-05,0.0673911652355256,0.6009111452806324,1.4469189829363254,5.878055907333273,0.9588310411657893,0.9779557413543689,1.0272768240969203,1.257686038307865,1.7541816069852767,1.6917805676828845,2.172940568149575,0.7112169106748283,Stress
82.88864332168588,724.0370370370371,45.505616258997215,,,,,,,32.74064751955893,32.944103023919666,0.06284984597641438,0.04521957558075047,720.0,40.0302,0.0555975,54.0,1.3898813770195786,687.0,759.0,11.11111111111111,49.382716049382715,628.0,835.0,10.125,109.375,,,0.028193074023351798,0.012448001970515092,0.0005083952916918884,0.04114947128555878,2.2648674132709172,0.6851381838591455,0.3025069723042508,-4.38619515324638,23.29499864832184,60.30958107647783,0.3862570131067855,4413.659991842723,2.5889497564243262,4.351768984017598,624.5539009520018,0.5185185185185185,0.5131578947368421,0.7692307692307693,0.08,49.11067193675889,49.12628981220213,49.098064990903076,51.31578947368421,0.5181211810252342,0.4818788189747657,16.769471961675407,16.172331427393775,0.4845496348607097,0.5154503651392902,41.98125787370154,43.29918656235963,0.48890878637419133,0.5110912136258087,31.965928756502954,32.68305264781346,1.2164269465200004,1.0908247767110195,1.375046476495438,1.6748285219061896,-0.3968280227830725,-1.2084342936133607,-0.2251785513025896,0.0004630981589150204,0.08523966692593428,0.6134887926784018,1.4403615823901659,5.774733490405397,1.0980251962480643,0.0,1.1274856263439343,1.4508145492122093,1.6982074749731335,1.728674181000423,2.6899969867944518,0.7044277780982916,Stress
83.50419105065575,718.6219512195122,40.87609710655187,,,,,,,31.307317805077908,31.49763855542033,0.056881225291246,0.04356576883290153,715.5,34.099799999999995,0.0476587002096436,49.0,1.305640341374819,687.0,751.6,9.75609756097561,47.5609756097561,628.0,831.0,7.454545454545454,109.375,,,0.012680751495693842,0.018801847144435273,0.00165244705575514,0.033135045695884255,0.6744417927813506,0.38269907976221484,0.5674308500130022,-3.9738001616091023,22.272193813900564,53.53203148640755,0.41605358876686294,3745.644833125547,2.403536532310393,4.280496704590318,514.6647733054831,0.5,0.49350649350649356,0.7105263157894737,0.08695652173913043,48.86831275720164,48.90022428336206,48.83831017137524,51.94805194805194,0.500100765820234,0.4998992341797663,15.752777532867022,15.749603169603988,0.47788290102850955,0.5221170989714906,37.006198194989196,38.680999085014676,0.4811621702982865,0.5188378297017132,28.43948579745089,29.531929247975878,1.2342436980309772,1.6375467067730698,1.457934494155056,1.7433818025221544,-0.9541754869071788,-1.2125742480766268,-0.3256860050547215,0.000404397513766219,0.14527681741207832,0.6033375571773862,1.7609878105613015,5.707744534921202,1.1511145488390742,0.0,1.1375192009278676,1.4589369313365321,1.7734718734633867,1.6999950833036093,2.5777703900535194,1.0079045860979887,Stress
83.57299488398237,718.1341463414634,39.013692498258735,,,,,,,30.44363340363326,30.62843833054342,0.05432646908243273,0.04239268325942784,715.5,37.065,0.05180293501048218,48.0,1.28150579075107,687.0,751.6,8.536585365853659,46.34146341463415,628.0,808.0,7.454545454545454,109.375,,,0.023807091658546047,0.030923206075865378,0.001247575061926921,0.05597787279633835,0.7698778580765193,0.42529468286803723,0.552418384820942,-3.4762483712506635,21.65757644068123,50.88795486770208,0.425593374640155,3462.3799646010402,2.349660637563998,4.246344835972192,478.2776979150913,0.5121951219512195,0.5189873417721519,0.7073170731707317,0.041666666666666664,48.845750262329496,48.81756075308617,48.87538743269416,50.63291139240506,0.47968616794543906,0.5203138320545612,15.002291491635535,15.624699997119945,0.5275471379181872,0.4724528620818127,36.96116342253069,34.97794089237192,0.5202055382910931,0.479794461708907,28.20634991936231,27.088628601963812,1.2811567876784786,1.2044827981675272,1.4651510524407247,1.5375774855162634,-0.20151346602328601,-0.2999452046850184,-0.43986926738536525,0.00010741320427155485,0.06821168302981187,0.5226323168091889,1.7730673362159024,5.857313589878402,1.1803557306581325,0.9847056488263765,1.1220454164675284,1.5835956587607434,1.8916891642085238,1.7060631126717056,3.2490187247379394,1.0079045860979887,Stress
83.85364658447075,715.8536585365854,40.63937212478532,,,,,,,30.859898466024372,31.048771868914578,0.05677050279782617,0.04310922784010219,714.5,41.5128,0.058100489853044085,55.75,1.316899087322915,679.4,750.0,9.75609756097561,43.90243902439025,628.0,808.0,9.11111111111111,93.75,,,0.03904011775897561,0.01488253856409622,0.0010225085836343426,0.05494516490670617,2.6232163008237714,0.710528721230768,0.27086165979055554,-4.207566661702309,21.95479713602361,53.39959570060108,0.41114163596142134,3683.1318838631673,2.4322518386190226,4.273187380108735,519.5250592971978,0.4878048780487805,0.5,0.675,0.0,49.02785076195481,49.01970485307406,49.03773987343019,51.24999999999999,0.4732625520164896,0.5267374479835103,15.10525570786539,15.935808733791957,0.5039645401891647,0.49603545981083536,37.908618591696424,37.60922037821234,0.4995243415396346,0.5004756584603655,28.85508719039601,28.882550592502582,1.3058234916691704,1.9532812294807602,1.570377643547722,2.043633760870285,-1.4254505264120283,-1.8666727688878026,-0.2577122484055364,0.0011704628440363997,0.24794287344259036,0.5697675821967074,1.8101086078962516,5.982492400933164,1.168546034675801,0.8381640721274087,0.6668420035655211,0.811529979377559,1.9805744913946586,1.6426407784322736,3.0991057874044206,0.8528423420829138,Stress
83.12192296870641,721.8148148148148,35.99552441315139,,,,,,,28.958159471900146,29.14085174641141,0.049868087595827774,0.04011854408852707,718.0,35.5824,0.04955766016713092,45.0,1.24301837787999,693.0,750.0,8.641975308641975,37.03703703703704,628.0,808.0,7.363636363636363,93.75,,,0.04492541327373401,0.017027462778313476,0.0014187113834581851,0.06337158743550568,2.638409131098024,0.7089204340897307,0.26869238198652684,-4.072927780826026,20.605693879439354,46.77641405016426,0.44051461185847346,3028.0569675396823,2.2700722588545497,4.188134151349735,424.74335961588827,0.43209876543209874,0.44999999999999996,0.6111111111111112,0.0,50.05827505827505,50.05775957137148,50.05760347465915,48.75,0.47671645350743813,0.5232835464925618,14.227135776573698,14.905822496722463,0.4718706068568611,0.5281293931431388,32.13204658470292,33.99359489184523,0.47265813652871924,0.5273418634712808,24.848338074472725,26.24640963993631,1.267874145183469,1.798218301586548,1.5408471236386019,1.7719132697833881,-0.6686009215483288,-0.6751805299086993,-0.37150272803868184,0.0008114909184880889,0.19370376055902355,0.6190763367049064,2.0794415416798357,5.901457718880589,1.1576636020649649,1.0063379226837872,0.8451965961005068,1.3534683067574325,1.9485769770949504,1.6257384075867634,2.6232237983921176,1.0957765437084537,Stress
83.25554103057247,720.6585365853658,35.0760090048529,,,,,,,27.824627159105113,27.974144808693936,0.04867216195210915,0.03861000147301959,717.0,32.6172,0.045491213389121335,41.0,1.2606102070760328,693.2,743.8,7.317073170731707,36.58536585365854,628.0,808.0,7.454545454545454,85.9375,,,0.04510314303337709,0.009905663570035512,0.0003913867884016095,0.05540019339181421,4.553268210098861,0.8141333138386013,0.17880196735015635,-4.61464860763434,19.780707492121934,44.90463660791487,0.4405047894015336,2790.505480148127,2.2701228773439497,4.152652989706695,407.7561714497766,0.43902439024390244,0.45679012345679015,0.5945945945945946,0.043478260869565216,47.16981132075472,47.31597442086292,47.01791336964529,49.382716049382715,0.4266077721611839,0.5733922278388163,12.930825573025103,14.991247446426865,0.446335735321728,0.553664264678272,30.000052583401562,33.41292016394302,0.44312516077749586,0.5568748392225041,23.099885335287475,25.89556654991381,1.352439073102017,0.529050137295715,1.396278202271112,1.568916742043624,0.08871949701200954,-0.8062996615508844,-0.17368208114457973,6.320987023370047e-05,0.016077401095764592,0.6060199156064581,1.6247053845648887,5.94889621188239,1.1205449946298605,1.0316346742387426,1.1328752063658285,1.1470334594321117,1.8693353030575042,1.6571874020591713,2.0501645986309094,1.0079045860979887,Stress
83.64096670512365,717.4268292682926,39.175461735224275,,,,,,,20.898343014237774,21.028317180810976,0.054605515345975464,0.029129581110804156,718.0,32.6172,0.045427855153203335,41.0,1.8745726256160373,691.4,742.8,2.4390243902439024,31.70731707317073,604.0,808.0,7.454545454545454,140.625,,,0.044153467181268544,0.012454671893673275,0.0005154106763100743,0.05712354975125189,3.5451329074110434,0.7729468384499494,0.21803042611861362,-4.385659473957155,14.869265675493024,53.53166248949203,0.2777658115589401,2500.633961294837,3.6001550888771154,4.105020235029347,770.8891485103876,0.4146341463414634,0.43209876543209874,0.6285714285714286,0.041666666666666664,49.708029197080286,49.71906621291616,49.69682167682707,49.382716049382715,0.5046076436001808,0.4953923563998191,10.562610946162884,10.465717844467239,0.4747481571474508,0.525251842852549,36.884370423664116,38.79667649862318,0.47688696211034,0.5231130378896602,27.129555207836233,28.41402257107237,1.493175583272681,0.6646204721622828,1.493175583272681,1.684231876789792,-0.44946896826209937,-1.0239003530185915,-0.2125332403687077,0.00024280717592206486,0.02200772568850952,0.5655123706519221,1.3609765531356006,5.8361509375185285,0.9908731526473277,1.0689099960768167,1.1112718401287505,1.2984723285487416,1.7320493694764547,1.6012424608302105,2.0387242107101313,0.9303734640904512,Stress
84.64657695357913,709.5301204819277,64.85111228513705,,,,,,,62.07253821135398,62.45444952589572,0.0914000835385097,0.08748400725989336,718.0,32.6172,0.045427855153203335,42.5,1.0447633390521611,686.6,741.6,6.024096385542169,37.34939759036144,354.0,808.0,7.545454545454546,382.8125,,,0.04943138139793357,0.037579860429466413,0.0013354104363669666,0.08834665226376695,1.3153689458403195,0.5595161800851457,0.4253682450498331,-3.2812869989615003,44.161964775033816,80.95693852792675,0.5454994417779248,11231.87693108773,1.8331824442216467,4.757422446161133,593.6353537893054,0.42168674698795183,0.43902439024390244,0.6388888888888888,0.04,50.182982616651415,50.595642186316766,49.944634141154324,50.0,0.440800010128313,0.5591999898716871,29.320388557882126,33.0242148344529,0.6623163183545653,0.3376836816454346,65.88503852709165,47.04452778058425,0.6115162289252134,0.3884837710747863,50.99276167703381,40.643488774527356,0.7905702840831356,1.9154166252587779,1.330823284055707,0.9557342368242109,-0.15646446526582736,0.38937899133520326,-0.6958263504060485,0.0057332097020543265,0.3079684964410565,0.6932975623522246,1.002845383576101,5.769441087895234,0.7434938306678172,0.9356750596911318,1.046565594482189,0.9974757502463497,1.343597269466793,1.7332626352441596,1.6718815060992882,0.998500151897711,Stress
84.53128519694044,713.2926829268292,82.09261373442848,,,,,,,101.08980239444604,101.71961432423741,0.11508966192893035,0.14172275254478672,720.0,31.875899999999998,0.04427208333333333,42.75,0.8120761124263383,689.4,751.4,9.75609756097561,45.1219512195122,353.0,1022.0,9.11111111111111,359.375,,,0.06077520324603227,0.10488168503037469,0.024597624351542998,0.19025451262794996,0.5794644053290259,0.31944158593956995,0.5512704197217907,-2.254922373385972,71.92662906834855,91.76084640029627,0.7838487970629302,20734.6634474965,1.2757562475658382,5.023667100513945,468.2578923084289,0.45121951219512196,0.4691358024691358,0.7105263157894737,0.08,49.895864326093424,50.9424393586157,48.943331395062934,48.148148148148145,0.35267489861081414,0.6473251013891858,42.714678390454964,57.86968118108133,0.7152454165378265,0.28475458346217347,77.60415109186833,48.96579076671014,0.5772575077774618,0.42274249222253824,62.63764050748371,53.60293212786608,0.8431727482534189,1.5029676206833047,1.2980526033788038,1.0066061506353372,-0.3110591376450422,-0.15666143320325132,-0.6939139930446167,0.004933693613593768,0.19803262241683117,0.5800157050841883,0.7453329337305156,5.826944992370195,0.6685292681001928,0.6915735813201953,0.9805496330775618,0.9034646459704824,1.2469821588470935,1.8075812777087124,2.058057156962898,0.9303734640904512,Stress
83.3021186883179,722.1585365853658,86.12787930103532,,,,,,,103.06835799484286,103.71050787863516,0.11926450348185312,0.14272261944335435,729.5,37.065,0.05080877313228238,49.75,0.835638414898827,699.0,770.8,13.414634146341465,51.21951219512195,353.0,1027.0,9.11111111111111,359.375,,,0.03767795237577992,0.0991218793862901,0.04701257510292324,0.18381240686499323,0.38011741311869535,0.2049804636063205,0.539255652416832,-2.3114050811237896,73.33440340128377,98.11214530095423,0.7474548963977299,22603.74545172369,1.3378733684391944,5.061150517880952,525.0465052743333,0.4634146341463415,0.48148148148148145,0.717948717948718,0.08695652173913043,49.91587212563095,50.948410670840204,48.99034070065649,46.913580246913575,0.3553127941706277,0.6446872058293723,43.71327029632992,58.88197941645643,0.7294510641540974,0.2705489358459026,83.79553017861365,51.03236402167357,0.5953467223032081,0.4046532776967919,66.83016114717572,55.097140023964045,0.9567218136509035,1.2622793020171663,1.316595779731734,1.0099116420394898,-0.048131054292666064,0.09786240677446978,-0.7429606008766462,0.007142523947818041,0.21871649909589086,0.5215148869588639,0.7045325027850705,5.875725480175071,0.7197395811567744,0.5561331661328768,0.8909044927157531,0.8229515189234224,1.2672249136592832,1.7405886049762125,2.1314810363129113,1.0079045860979887,Stress
81.69736829856134,736.725,93.94382579532989,,,,,,,104.58162580346608,105.24336027290258,0.1275154580003799,0.14195476711590632,739.0,56.3388,0.07623653585926927,78.75,0.8982823232435957,701.6,797.2,15.0,56.25,353.0,1027.0,13.333333333333334,359.375,,,0.048522275132293693,0.06156178173840634,0.02591868982677603,0.13600274669747606,0.7881882843884985,0.3567742292751369,0.4526510179632189,-2.7877140273112913,74.4182937238283,110.79476832453904,0.6716769649794556,25902.926582300173,1.488810919741139,5.120318944573571,659.8098437270535,0.45,0.46835443037974683,0.7027027027027027,0.09523809523809523,51.26443100604728,52.17925411077991,50.41851737671856,46.835443037974684,0.359383969409107,0.6406160305908931,44.61552276724852,59.566973726842605,0.700507001576367,0.299492998423633,92.73111759124507,60.63349337096586,0.5944457437024292,0.4055542562975708,72.76539370303782,60.102599267175286,0.982909113221361,1.556541147971314,1.6749291415704812,1.2095130486499468,0.05625942566910069,0.1418790871572999,-0.7990066106039824,0.005813785210639588,0.2652689973178299,0.6037612089301514,0.91056005716517,6.012492001110317,0.7200002410230485,1.0884245452044192,1.129647375894559,1.4691774984590649,1.4309458550334047,1.7121004782684042,2.1364516303319667,1.0273133154191965,Stress
80.3959432707994,748.3076923076923,97.23613080982365,,,,,,,105.9761061038528,106.66795984206993,0.12994137546543047,0.14162102994963882,771.5,60.7866,0.0787901490602722,85.75,0.9175288127168563,701.6,799.0,15.384615384615385,56.41025641025641,353.0,1027.0,11.142857142857142,429.6875,,,0.06098412212877689,0.09603855233112799,0.035251018378889866,0.19227369283879472,0.634996266067317,0.31717351047034253,0.49948878035877853,-2.343005581346108,75.42563773966198,115.92626981912403,0.650634561582514,27469.49815702212,1.5369610823743174,5.145820835285996,712.6966605472721,0.5,0.5131578947368421,0.7692307692307693,0.1,50.852116547553614,51.80113319840258,49.996969394933174,51.31578947368421,0.3600537476496968,0.6399462523503032,45.26006721394176,60.339718088066725,0.6837833463020063,0.3162166536979937,95.86081595723694,65.18898678602926,0.5874958037476581,0.4125041962523419,74.9592213146514,62.81116770581671,0.9504712022713803,1.7278135025871264,1.7773867252875624,1.2169915647843805,0.1658787865012119,0.33693070526966284,-0.8243377596390346,0.007116945768933128,0.3402020024955424,0.6700528642414358,0.9249487946172696,5.9570734948310085,0.7199676383010597,0.8767492087580143,1.0884407140882504,1.2364529073361683,1.461933847576994,1.723873204439799,2.0888598189488508,0.7252387175610286,Stress
78.61844102786192,765.7012987012987,90.57144096978813,,,,,,,106.54557957191743,107.25007585978588,0.11828560448232986,0.13914770649158978,780.0,38.547599999999996,0.04941999999999999,46.0,0.8500722539000608,738.4,809.0,14.285714285714285,54.54545454545454,353.0,1027.0,7.7,429.6875,,,0.04904564874452877,0.07029957987687636,0.03946199778846616,0.1588072264098713,0.69766631365974,0.30883763826933847,0.4426724240837608,-2.654989456330226,75.83725592322624,103.93090273763453,0.7296891870040952,24761.5132653938,1.3704465103912629,5.10074729242327,569.7269719144199,0.5454545454545454,0.5599999999999999,0.7857142857142857,0.15789473684210525,50.906049623640925,51.927788385687535,49.994161156846964,50.66666666666667,0.3580670623785134,0.6419329376214865,45.38149402564882,60.763311298842154,0.7711562577296691,0.22884374227033083,91.26744507157967,49.71806526772573,0.6276229639732694,0.37237703602673045,72.07366554398983,55.51606080210408,0.8560739991980706,2.046056590671145,1.496393169784412,1.279885280259443,-0.0039518148911295015,0.17950928144366674,-0.6058171560415884,0.004556487142475828,0.3693903091029538,0.7319315237989494,0.9105600571651702,5.76854591762217,0.7428739810119329,0.9327050490260718,1.1058157578066905,1.0223503800455709,1.330226829363363,1.7800646757488867,2.193212262868285,0.8138683819084287,Stress
77.60725020627109,774.6184210526316,65.80353933850127,,,,,,,88.28854210296298,88.8826374678612,0.08494961848322767,0.11397681710562393,781.0,41.5128,0.05315339308578745,54.0,0.7453236600255617,738.0,809.0,10.526315789473683,50.0,419.0,1027.0,8.444444444444445,367.1875,,,0.05012382045082413,0.021773608941770637,0.009609539023153939,0.0815069684157487,2.3020446718259118,0.6149636212103216,0.2671380050685772,-3.827056641555347,62.849515683270155,69.20187468168372,0.908205391434361,13663.742462610502,1.1010725210744066,4.842539777700662,304.78513047534653,0.5657894736842105,0.5810810810810811,0.813953488372093,0.16666666666666666,49.62936816096011,50.685151317531826,48.707547353845484,51.35135135135135,0.3220957382208804,0.6779042617791196,35.66946608530622,51.74737230565954,0.7287554608269754,0.2712445391730244,59.075685628119736,36.04112688342342,0.5449418699391789,0.4550581300608211,48.79675933524297,44.591217563369845,0.8525636239188571,1.7482929191230483,1.3878694872617159,0.6320555153785529,0.6130991060279767,1.9720871929907962,-0.9323154110023409,0.005664747109865929,0.3314039015964489,0.7137073521239992,1.3397743454849977,5.743131092698844,0.8648856383434123,1.0063261828387446,1.199089726386514,1.6549688049331572,1.4091757166035086,1.7727701467715897,1.8256931656100925,1.0687244430890344,Stress
77.27575079804376,776.5526315789474,38.13114028781624,,,,,,,26.75992027890467,26.93554535560035,0.04910309840852001,0.03445989259542436,776.0,34.8411,0.044898324742268035,49.25,1.4249347490723172,742.0,800.0,6.578947368421052,38.15789473684211,694.0,870.0,7.6,93.75,,,0.03887009213855269,0.008600974081049899,0.0006614559018044344,0.04813252212140703,4.519266279873259,0.8075640009162359,0.17869360885256,-4.755879816898338,19.046306775902824,49.62626447886368,0.38379489119143423,2969.424131743035,2.6055583931710204,4.179642343570025,517.2165197385126,0.5131578947368421,0.5270270270270271,0.7692307692307693,0.1111111111111111,51.17162761241293,51.27150811762762,51.077842367591984,50.0,0.5456644385275662,0.45433556147243387,14.07172745307105,12.840234484682187,0.5648067338330178,0.435193266166982,37.29593666730857,32.73803956003222,0.5623483786517013,0.4376516213482988,28.186879974603478,24.86615024341179,1.2044190803849966,1.6762297718102612,1.3965145017514424,1.4833649884040971,-0.4935070767926266,-0.0791316023874078,-0.44818700388619176,0.0004990601462685342,0.13396287552395506,0.5957063380721817,2.3608540011180215,5.708196592277087,1.167584471839674,1.0581640445049032,1.0454795010910278,1.4905952368507682,1.810643675169433,1.7646058600253007,2.033266030945787,0.9043052979984136,Stress
77.24266102568482,776.8421052631579,34.14207673104804,,,,,,,22.395535269334378,22.542987963140696,0.0439498277703193,0.028828941064861325,776.5,32.6172,0.04200540888602704,43.0,1.5245037156043284,746.0,799.0,0.0,35.526315789473685,696.0,870.0,6.333333333333333,117.1875,,,0.03131576688446106,0.015369470997173347,0.0010655392731966434,0.04775077715483105,2.037530562386985,0.6558169049881689,0.32186849959191466,-4.175372139904661,15.940299656943504,45.73104884899131,0.3485662379968593,2290.1161852646346,2.8688951797133324,4.066827626074308,524.7903424244244,0.5263157894736842,0.5405405405405405,0.775,0.10526315789473684,48.966500356379186,48.99979033179567,48.93413890756921,50.0,0.48618975463221414,0.5138102453677859,11.116398891921984,11.4277992017096,0.5163223305153195,0.48367766948468044,32.86030697931434,31.804544550332015,0.5130570260639273,0.48694297393607266,24.52931000965069,23.896899889406665,1.3818315638611978,0.23064834634373632,1.3818315638611978,1.4182610455003237,0.643401083958075,-0.09526058050890018,-0.34205617678769334,2.827294432660888e-05,0.0023426539765842155,0.5975269445471723,2.178532444324067,5.573135243507475,1.1727070051458095,1.229476904662782,0.8912067013609895,1.0060897837055995,1.7567362453648012,1.772065344104103,2.3661226070151606,0.8220957254531033,Stress
78.28858930434845,766.3376623376623,29.46702456252912,,,,,,,23.798219747659587,23.95529095862291,0.03845175046289897,0.03105448279165178,773.0,34.099799999999995,0.044113583441138415,49.0,1.2382028939549996,738.0,793.0,2.5974025974025974,36.36363636363637,696.0,824.0,6.416666666666667,117.1875,,,0.0599240595354507,0.032248991784211714,0.003176378566026124,0.09534942988568854,1.8581684641932898,0.6284679374306883,0.33821903101962986,-3.434268498734101,16.93894868213905,38.11027742767081,0.444471933175699,2028.0489599266216,2.2498608469045935,4.014048545223338,342.9712841967538,0.5844155844155844,0.5945945945945946,0.8181818181818182,0.15789473684210525,50.57783820530252,50.55750324973589,50.59840525348018,47.2972972972973,0.4935064935064934,0.5064935064935062,11.90014005519823,12.055704044144415,0.5100534022590416,0.4899465977409586,27.21760673430877,26.67574046339754,0.5073235319270576,0.49267646807294235,21.0048976393224,20.699458075883832,1.1405612488434957,2.6002146975996965,1.4149605968560575,2.1986171232299707,-1.6210037738250378,-1.9803535829231196,-0.19861853057852483,0.008951540638847127,0.6666077873665361,0.43110866791301117,2.70805020110221,5.510102612039182,1.338806453099302,1.2513274106471355,1.1641193866863775,1.4216026185691326,1.8903104369167565,1.7861202666955895,2.8597544716136225,0.8138683819084287,Stress
79.04856839923664,758.922077922078,27.252120262161657,,,,,,,23.92367248695647,24.078905378162986,0.03590898335278073,0.03152322640614077,756.0,28.1694,0.03726111111111111,37.0,1.139127793904548,736.4,782.8,2.5974025974025974,40.25974025974026,696.0,821.0,7.7,117.1875,,,0.060048607967584725,0.04044039130892546,0.0021670061598799964,0.10265600543639018,1.4848671346642386,0.5849497816744221,0.39394082340349745,-3.207926208592669,17.026357276448273,34.588209125745664,0.4922590011685438,1850.1191187867146,2.031450918370534,3.974169801049312,281.05699677315243,0.5324675324675324,0.5466666666666666,0.8048780487804879,0.09523809523809523,51.068090787716955,51.03934589411646,51.096700562833895,46.666666666666664,0.496137753459929,0.5038622465400707,11.994721061089054,12.08773483053518,0.5338384629264296,0.4661615370735706,25.271615589002238,23.61545375486176,0.5264829654144586,0.4735170345855416,19.780392915860322,18.759037680293567,1.3590110538403701,1.2216049883872833,1.4360073200736507,1.8333419220733114,-0.9238592240412515,-1.5337570128651885,-0.17474379543570237,0.0006558196891029151,0.09485308382241363,0.47370550672463096,3.5553480614894135,5.550949976035631,1.413716647545289,1.6844047327554694,1.5151186474201086,1.7876420243963533,1.9866002501602587,1.790708665186818,3.4971666082034587,0.9766420582901144,Stress
78.72529412475187,762.3506493506494,29.093662826774814,,,,,,,23.37846512453175,23.52722946536182,0.03816309837416161,0.0306662887274313,762.0,31.1346,0.040859055118110235,43.0,1.2444641969350643,738.0,786.8,2.5974025974025974,40.25974025974026,696.0,828.0,9.625,39.0625,,,0.05246203971733358,0.029150112775856545,0.0014861029472187162,0.08309825544040883,1.7997199571997897,0.6313254043576764,0.35079091157046716,-3.5352964973815744,16.636263497489292,37.419508937488835,0.4445879694808664,1955.7068053842322,2.2492736390678174,3.9982738569634857,336.6668601598249,0.4805194805194805,0.4933333333333333,0.7567567567567568,0.047619047619047616,51.44429160935351,51.50672342812677,51.38296298470514,44.0,0.47267562232172966,0.5273243776782706,11.440862438353735,12.084149397730345,0.5738135280556298,0.42618647194437,28.34545778279077,24.42856263079825,0.5571141978176976,0.44288580218230245,21.61432754273548,19.271498889208118,1.1469448154438755,2.740119055843184,1.5075857380207927,2.111572171946003,-1.2395266258458673,-1.197988697181847,-0.27957657254445367,0.008375763293361782,0.6830618297456843,0.4809821656088187,inf,5.753672579599747,1.3152828588617251,1.0182079304607277,0.0,0.0,2.132115739569662,1.7563945292944663,2.3803813958888855,0.8138683819084287,Stress
79.75637784140608,753.7051282051282,64.85550552371477,,,,,,,67.3269788266344,67.76836981993847,0.08604891103522347,0.08932800946567357,761.5,29.651999999999997,0.038938936309914636,35.5,0.9632914866225674,738.0,785.6,6.41025641025641,41.02564102564102,350.0,828.0,7.090909090909091,460.9375,,,0.04448001582048934,0.034945634714106145,0.0023437236583266447,0.08176937419292214,1.2728346811950892,0.5439691358716486,0.42736825442319454,-3.353961718987027,47.919473849636255,78.87311790870055,0.6075514081376289,11873.832623856846,1.645951250554043,4.78156103268492,519.2852282276885,0.48717948717948717,0.4933333333333333,0.7837837837837838,0.045454545454545456,50.20519835841313,49.361874535258174,50.74749694152394,48.0,0.6267423037804231,0.3732576962195769,37.93649471918758,29.276360141894255,0.2590195668672511,0.7409804331327489,40.14165698606611,67.89415367358806,0.35815899213232,0.6418410078676801,39.05464285565762,52.28155203420555,0.7246760505176821,2.144754417162242,1.3462126343384966,1.3151738129044908,-0.49426531910312477,-0.5912200962388143,-0.5144719699307456,0.00373570813070182,0.3573584658416229,0.8176592003257728,1.122479770074753,5.7788666418837,0.7517871800467665,1.081411777791543,1.2098372554202854,1.174752234429292,1.3006325555592426,1.8556020199162346,1.6681133035191618,1.0475670364770413,Stress
79.95562222523941,751.7215189873418,64.23732773540766,,,,,,,67.19394050824553,67.62883758915035,0.08545362359979128,0.08938674603696825,758.0,28.1694,0.03716279683377308,37.5,0.9559988184875828,736.0,784.2,6.329113924050633,41.77215189873418,350.0,828.0,7.181818181818182,445.3125,,,0.0349629852012731,0.11084570725795499,0.03871102197469287,0.18451971443392096,0.31542029065599136,0.18948102813043222,0.6007255517277009,-2.199616069353437,47.82080966305189,77.81843584722681,0.6145177443161891,11690.936318509324,1.6272923105137675,4.774819404842861,506.5333690816044,0.5316455696202531,0.5333333333333333,0.825,0.04,50.08936550491511,49.27253637470812,50.61221269436994,49.333333333333336,0.6258504367184217,0.3741495632815785,37.83139285982325,29.25092961115737,0.26091002997059626,0.7390899700294037,39.74915352116384,66.90077542196282,0.36094635994423047,0.6390536400557696,38.802122953282705,51.630081518320246,0.6994795005414748,3.256333350257344,1.4280134879534212,1.680431197302987,-1.1993374248075455,-0.9416342885740483,-0.4224840695963705,0.005575941701236043,0.8059299060157286,0.7892733073637737,1.0890428376519592,5.914478374731996,0.7692062433504245,0.8815696502499601,1.151945463033495,1.1251630882772616,1.3134191890158116,1.7746189715742746,1.6967843366436623,1.1171257022086005,Stress
81.7800053591335,735.9125,85.64294346776495,,,,,,,88.3474154844657,88.91190860100984,0.11637653045404847,0.12005152172909918,748.5,25.2042,0.033672945891783566,32.5,0.9693882158083472,726.6,772.2,8.75,42.5,350.0,828.0,6.666666666666667,421.875,,,0.026759879696998005,0.09414326581044746,0.032078049986808126,0.1529811954942536,0.2842463501412583,0.174922673407943,0.6153910976201238,-2.362937552613967,62.87021350001257,104.41884580213376,0.602096422509277,20624.03781331044,1.6608635471249495,5.02134380623261,693.7018185025001,0.475,0.4805194805194805,0.7567567567567568,0.0,50.10281014393421,49.608696626839546,50.465411671111504,50.649350649350644,0.5609844700753791,0.4390155299246208,47.08911355488246,41.6567167607104,0.5269098125583783,0.4730901874416216,75.79612993876928,71.8209025629377,0.5359759210147684,0.4640240789852317,63.09690138619887,58.70913087517581,0.8698020192323249,1.2640311368489439,1.3935285844341903,1.014650548788671,0.8717424219603078,0.8412263623763483,-0.7997378977467361,0.0041925078681793035,0.22462222774725155,0.7176856207525208,0.8611389117990754,5.818619813556231,0.6989141596812092,1.2026283296656577,1.1094581980847464,0.9414000145658765,1.217685510877652,1.8139662385121247,1.853864015840246,1.0273133154191965,Stress
81.05969093108696,742.5443037974684,88.5433107795499,,,,,,,88.29938873674071,88.86670659921826,0.11924313515938088,0.11891464022438274,752.0,32.6172,0.04337393617021276,49.5,1.0027624431640907,730.6,794.4,6.329113924050633,36.708860759493675,350.0,828.0,7.181818181818182,421.875,,,0.017450032410001957,0.10588146340436091,0.027838019082186284,0.15116951489654915,0.16480724622553003,0.11543354109420577,0.7004154473659553,-2.245435080370423,62.83825085802254,108.88874899184788,0.5770867186905327,21495.966106485386,1.7328418201498377,5.039327078618668,754.7479119874899,0.45569620253164556,0.46052631578947373,0.7714285714285715,0.0,51.22307411464041,50.48733114431102,51.8185156911631,48.68421052631579,0.5624855093077519,0.43751449069224824,47.13031119954793,41.56625129541088,0.5377425347663946,0.4622574652336054,79.84913269457785,74.03293635223012,0.5439244817377915,0.4560755182622084,65.56351968069795,60.03594303284743,0.9713563351482039,1.5666319857906865,1.5814964301438261,1.1801859219776332,0.5465659298811545,0.6923276776657787,-0.7561613140840153,0.006061713538281023,0.31222321839118256,0.698447481871205,0.8138499263196635,5.8447343873354525,0.6291747202265102,1.0197006572089427,0.9797241473818525,1.012093600727983,1.2410552651359104,1.724221255495337,1.7871384230625458,1.0373310091937005,Stress
