PPG_Rate_Mean,HRV_MeanNN,HRV_SDNN,HRV_SDANN1,HRV_SDNNI1,HRV_SDANN2,HRV_SDNNI2,HRV_SDANN5,HRV_SDNNI5,HRV_RMSSD,HRV_SDSD,HRV_CVNN,HRV_CVSD,HRV_MedianNN,HRV_MadNN,HRV_MCVNN,HRV_IQRNN,HRV_SDRMSSD,HRV_Prc20NN,HRV_Prc80NN,HRV_pNN50,HRV_pNN20,HRV_MinNN,HRV_MaxNN,HRV_HTI,HRV_TINN,HRV_ULF,HRV_VLF,HRV_LF,HRV_HF,HRV_VHF,HRV_TP,HRV_LFHF,HRV_LFn,HRV_HFn,HRV_LnHF,HRV_SD1,HRV_SD2,HRV_SD1SD2,HRV_S,HRV_CSI,HRV_CVI,HRV_CSI_Modified,HRV_PIP,HRV_IALS,HRV_PSS,HRV_PAS,HRV_GI,HRV_SI,HRV_AI,HRV_PI,HRV_C1d,HRV_C1a,HRV_SD1d,HRV_SD1a,HRV_C2d,HRV_C2a,HRV_SD2d,HRV_SD2a,HRV_Cd,HRV_Ca,HRV_SDNNd,HRV_SDNNa,HRV_DFA_alpha1,HRV_MFDFA_alpha1_Width,HRV_MFDFA_alpha1_Peak,HRV_MFDFA_alpha1_Mean,HRV_MFDFA_alpha1_Max,HRV_MFDFA_alpha1_Delta,HRV_MFDFA_alpha1_Asymmetry,HRV_MFDFA_alpha1_Fluctuation,HRV_MFDFA_alpha1_Increment,HRV_ApEn,HRV_SampEn,HRV_ShanEn,HRV_FuzzyEn,HRV_MSEn,HRV_CMSEn,HRV_RCMSEn,HRV_CD,HRV_HFD,HRV_KFD,HRV_LZC,Labels
105.4953000885403,571.1826923076923,78.21414025846238,,,,,,,122.87877837428756,123.47964654388781,0.1369336664289697,0.2151304302968858,562.5,24.462899999999998,0.043489599999999996,34.75,0.6365146308683414,543.2,591.0,32.69230769230769,42.30769230769231,367.0,1148.0,7.428571428571429,242.1875,,,0.04552690819244759,0.12422909006539286,0.037492064566065034,0.20724806282390545,0.36647542188776167,0.2196735041674715,0.599422201455981,-2.0856279173797474,87.3132954097011,68.61965223154144,1.2724240442822736,18822.563251284384,0.785901527477078,4.981648875178803,215.71315801485719,0.6538461538461539,0.6633663366336634,0.8955223880597015,0.28,50.04053834927842,50.345281890000436,49.71798389922837,51.48514851485149,0.4708590505376419,0.529140949462358,59.91366337342033,63.513507904023925,0.5389245537400068,0.4610754462599934,50.37470293585909,46.594484399997796,0.4968475425955914,0.5031524574044086,55.35005760927255,55.70014211281757,0.4735002644542798,3.484847568392559,1.5453995405323628,1.6085013471756842,-0.24022517543608934,-0.016405602541002984,-0.4818925202882179,0.015703785638576672,1.3749474782491928,0.5910243359228633,0.6603573577369541,6.125685511306309,0.6256074200610132,0.8330940476332321,1.0205008254606478,1.0650882965466144,0.9221409057115889,1.9119090481665135,1.9924667412705486,1.0308368797140142,Relax
105.1872172606744,572.4134615384615,72.46366489247555,,,,,,,110.6926120792713,111.23282983407141,0.12659322283881436,0.19337877166928516,562.5,25.2042,0.044807466666666664,38.5,0.654638674897124,544.0,591.0,28.846153846153843,39.42307692307692,449.0,1148.0,6.933333333333334,156.25,,,0.051728136062966085,0.16970318175062885,0.04675258269736614,0.2681839005109611,0.3048153577873292,0.19288307748679298,0.6327866118260623,-1.7737043576506102,78.6534882662412,65.5215018119656,1.2004225497144727,16190.181008007818,0.8330399993217852,4.916221814202474,218.3281273000087,0.6153846153846154,0.6237623762376238,0.8571428571428571,0.2,49.5205216724204,49.64003695494299,49.36532869399128,51.48514851485149,0.4939463283372054,0.5060536716627947,55.27923767244858,55.95262351696631,0.4882345710484437,0.5117654289515562,45.78235274344726,46.872629294397164,0.49160644346011195,0.508393556539888,50.75341338458179,51.61268959956142,0.5151656060699165,2.879791689022991,1.4174477912530279,1.2911960420416897,0.026872064458071776,0.3796373639532947,-0.5438405839188218,0.008152592333049625,0.847933247742688,0.5924542477415105,0.7668123155966802,6.021312886572913,0.6391508791214083,0.8921696890049722,1.1226768541073315,1.2058726258139765,0.9345033265577815,1.8727145736907636,2.0700539133605376,1.09526418469614,Relax
105.98270682244583,567.6634615384615,70.14736368931916,,,,,,,107.13366118649779,107.6556775449944,0.12357209586681561,0.18872742116631552,557.0,25.2042,0.04524991023339318,34.0,0.6547649255373337,538.6,584.2,22.115384615384613,32.69230769230769,449.0,1148.0,6.5,140.625,,,0.033245603177056895,0.11091047826087126,0.03047944504529191,0.17463552648322006,0.29975168891491294,0.190371362840947,0.6350968814557223,-2.199031905221946,76.12405962529786,64.20159687211053,1.1857035234954802,15353.862385254291,0.8433811489840038,4.893187753723012,216.58566614643362,0.5961538461538461,0.6039603960396039,0.8688524590163934,0.2,49.294551769047125,49.35532104596715,49.20233248324077,50.495049504950494,0.48810306252352614,0.5118969374764738,53.184519714432895,54.46540546215425,0.49703564117357957,0.5029643588264202,45.26261031730584,45.531759774828714,0.49181577880230537,0.5081842211976946,49.382674239004025,50.19771678248709,0.5067341750379076,3.3355465846051846,1.4127722843635968,1.5796398406370704,-1.1419334672281725,-0.9176639316692392,-0.44997294984767094,0.007207751538277706,0.9505094051414584,0.6465030624714401,0.7548105476655832,5.951648343324485,0.5703881571066853,0.7040041974307368,0.9913832699008488,1.055318114471935,0.8632730246067504,1.8703946014460138,1.8537561836250696,0.9664095747318882,Relax
106.0789437743431,566.75,67.57286610030471,,,,,,,101.26611102791716,101.7530296381796,0.11922870066220505,0.1786786255455089,554.0,20.7564,0.03746642599277978,28.25,0.6672801533938253,541.6,579.0,13.461538461538462,23.076923076923077,449.0,1148.0,4.16,125.0,,,0.042703988738607035,0.12591941983055718,0.030365822205961235,0.19898923077512545,0.339137432463328,0.21460452192443585,0.6327951484613592,-2.0721131017684074,71.95025726343255,62.59134425305571,1.1495240775232263,14148.047286445728,0.8699252321487759,4.857666612631797,217.79915871937376,0.5673076923076923,0.5656565656565656,0.8214285714285714,0.11538461538461539,48.15840487399613,48.270989707567615,48.09697098231186,50.505050505050505,0.47142855790359633,0.5285714420964035,49.40553473797341,52.31419032923974,0.5066131776992259,0.49338682230077396,44.550493574604474,43.965098631342286,0.48658375658524733,0.5134162434147528,47.04069164290621,48.32030839857904,0.3678819408980369,3.0689221235990494,1.3166830693150413,1.3334070812311662,-0.8102297555090647,-0.6989094082535703,-0.49455052580594255,0.00824221913724812,0.8470765400700127,0.6099777420969019,0.576915735594981,5.7134666131978795,0.48447697499695125,0.5653376582937583,0.8742195602824497,0.8568723926629375,0.6699423620810147,1.8616071831055852,1.7855261820607913,1.0308368797140142,Relax
108.45748395419015,553.5,25.01285383843389,,,,,,,34.16152109917712,34.310935473115464,0.04519034117151561,0.06171909864349977,551.5,17.049899999999997,0.030915503173164095,22.0,0.7321937968106578,539.0,570.0,8.49056603773585,17.92452830188679,449.0,653.0,3.7857142857142856,117.1875,,,0.050571616987043974,0.019423259556950668,0.013234891139424705,0.08322976768341935,2.603662729150256,0.6076145397810431,0.23336914300699269,-3.941283984840353,24.261495141894002,24.579302767615772,0.9870701122514959,1873.427941045266,1.0130992597060924,3.979607103143803,99.6050937518538,0.5471698113207547,0.5490196078431373,0.8035714285714286,0.11538461538461539,52.77777777777778,52.93736819212651,52.63199145096748,47.05882352941176,0.5406737611803877,0.45932623881961226,17.847107070033246,16.449807106654895,0.5000669458255913,0.4999330541744087,17.381355156154086,17.37902809358913,0.5201146718714444,0.4798853281285556,17.615770460493557,16.92079742984819,0.6983590632115039,2.6893820858265447,1.29032366530729,1.3100195471994869,-0.6357109741185489,-0.11063524128318525,-0.49267642853873495,0.002238548938505401,0.4927544589812728,0.6777177789686291,1.0864909281357649,5.544682926237144,0.9293781305938148,1.3212870973968287,1.2668003824106293,1.5620307090834746,1.4589860087284683,1.8008634444384017,2.0032505059943633,1.1424770583220525,Relax
108.73736622039014,552.2897196261682,25.08213276184689,,,,,,,30.66172711107387,30.790059480345835,0.04541481014498041,0.055517468497925444,551.0,16.3086,0.02959818511796733,22.5,0.818027395227458,539.0,566.6,7.476635514018691,17.75700934579439,426.0,651.0,3.689655172413793,132.8125,,,0.049968188530623604,0.017048301549050023,0.009236061959641334,0.07625255203931496,2.9309775162563314,0.6552985728905253,0.2235767996362943,-4.071704696106098,21.771859851689687,26.48594619627454,0.8220155583776,1811.5940900802832,1.2165219864861017,3.9650310051866056,128.88294352262366,0.5420560747663551,0.5436893203883495,0.7857142857142857,0.16,53.02609661299278,52.79404523343146,53.27278392428554,48.54368932038835,0.5145451808740154,0.4854548191259846,15.626138053792769,15.177991585563241,0.5284896455208558,0.4715103544791439,19.254565993342766,18.187001795786955,0.5228629325289974,0.47713706747100265,17.53445896040397,16.750200937472158,0.7831712378363246,2.818748197710099,1.31448871456165,1.3314462417069897,-0.9711596907761724,-0.11669233590216566,-0.4939840219998666,0.0017998236207433672,0.47095447329482826,0.6695315761140126,1.0775588794702775,5.620780977071848,0.9719515059917205,1.1488073293442327,1.2217054768050986,1.4115372166991664,1.500735438845674,1.7915018323584169,2.427696159817588,1.0710741941011168,Relax
109.16308861691678,550.0,22.367850918605953,,,,,,,28.111972873989554,28.230243192855475,0.040668819852010825,0.05111267795270828,549.0,14.825999999999999,0.027005464480874316,20.0,0.795669909716713,535.0,560.8,4.672897196261682,17.75700934579439,486.0,647.0,3.566666666666667,70.3125,,,0.05527094950784382,0.06662575214297077,0.06293900507820849,0.18483570672902308,0.8295733666051391,0.29902744705531037,0.3604593145016451,-2.708664107359539,19.96179639621348,22.8305410114415,0.8743461833081243,1431.7450731726742,1.143711746091759,3.8628358072840165,104.44623169766109,0.5700934579439252,0.5769230769230769,0.8333333333333334,0.16666666666666666,52.937649880095925,52.68544838429457,53.207136497956675,47.11538461538461,0.5890533603915484,0.4109466396084517,15.328933116045308,12.803459353962563,0.49164405663776084,0.5083559433622393,16.008166758671518,16.277966700472035,0.533873613200712,0.4661263867992879,15.672230113318689,14.644124612455466,0.8494453742822868,2.3861228189147425,1.242186013493738,1.2208966106107386,-0.6462325745700284,0.19960100274034365,-0.5089221739611384,0.0012950924481175653,0.31357339094653297,0.730977439881674,1.504077396776274,5.508847216196187,1.036701631191297,1.1905006283405133,1.285171889002852,1.537669831108463,1.6059117985404145,1.8019578639948108,2.5496844331112865,1.0710741941011168,Relax
109.37403371319076,549.0934579439253,26.536743025146258,,,,,,,35.26396418174396,35.40871614159495,0.048328281171866105,0.06422215320828899,548.0,11.8608,0.021643795620437955,17.5,0.7525172974989648,535.0,558.8,8.411214953271028,20.5607476635514,464.0,678.0,3.566666666666667,93.75,,,0.0408523726155137,0.05495594111969787,0.05404331712314814,0.1498516308583597,0.7433658997220043,0.2726188055579289,0.36673568919408306,-2.9012234853290835,25.03774329683135,25.197690962254665,0.9936522887885676,1982.0098129831406,1.0063882620540947,4.004075910319866,101.43464166111858,0.5887850467289719,0.5922330097087378,0.8360655737704918,0.2,53.38042381432897,52.99950521181627,53.79723662485891,51.45631067961165,0.6169812465861503,0.38301875341384967,19.679334096360844,15.505452190086158,0.461443880693692,0.538556119306308,17.1167059825351,18.491673967943985,0.5387673441685056,0.46123265583149425,18.442584067434034,17.064012625343796,0.750761642101003,1.9965959140948901,1.1337571571037737,1.3508607277691913,-0.6993469320064349,-0.9042000441132654,-0.3912631398608083,0.0012971882447315715,0.26439678431323416,0.785585616617047,1.296887773404306,5.479843449394689,0.9265256278028315,1.1640936848925663,1.2520616015252224,1.3143377430119292,1.454258548581481,1.857481965279896,2.367928513790175,1.0710741941011168,Relax
109.10111942819901,550.392523364486,31.781909239271904,,,,,,,45.94746795331332,46.16247333380978,0.05774407879851412,0.08348127200646141,549.0,14.825999999999999,0.027005464480874316,19.5,0.6917009936557359,535.0,562.0,13.084112149532709,25.233644859813083,442.0,705.0,3.962962962962963,117.1875,,,0.05535246149922987,0.07233165318719245,0.038310134477438564,0.16599424916386088,0.7652591785228402,0.3334601155042956,0.4357479463989768,-2.6264934422063897,32.64179793068006,30.678189366148473,1.0640066641839794,3145.963420032633,0.939843737507915,4.204723778480993,115.3308166154262,0.5887850467289719,0.5882352941176471,0.85,0.2608695652173913,48.865414710485126,48.65520989151339,49.08362665282345,56.86274509803921,0.5856406177385336,0.41435938226146646,24.981612285458127,21.013261119044394,0.3282040680372523,0.6717959319627478,17.57525778509902,25.144812915839744,0.4649070996251973,0.5350929003748026,21.59827121083579,23.1713050930426,0.6297865571275484,2.3275786814817527,1.22885975884652,1.2717543312157806,-0.371704763398812,-0.32126981861135007,-0.4815711611768355,0.002527808476078403,0.4244595726883348,0.7338361316986233,1.1667500938353277,5.652649290475746,0.8421345018060467,1.0335815347372372,1.1632888989869,1.2208116654175296,1.3733744128353769,1.877418331577622,2.506328706550684,1.0080698297422277,Relax
108.57328916677574,552.9719626168225,30.543028091198185,,,,,,,41.673144150594474,41.86980311987858,0.05523431594372305,0.07536212858493795,549.0,19.273799999999998,0.035107103825136605,26.0,0.7329187349249356,535.2,573.8,13.084112149532709,27.102803738317753,442.0,649.0,5.095238095238095,117.1875,,,0.04801913107674444,0.04779956387118248,0.03991668780263897,0.13573538275056587,1.0045934980945366,0.35377018212699035,0.3521525699678568,-3.0407387635601903,29.606421713011812,30.854573680106682,0.9595472625862399,2869.824532000198,1.0421581499849513,4.1648254536944975,128.6213817001374,0.5887850467289719,0.5961538461538461,0.8225806451612904,0.28,49.30027988804477,49.27321585283453,49.324705605906594,56.730769230769226,0.5701224977591874,0.4298775022408127,22.35546167420093,19.41207282668627,0.3727115043778978,0.6272884956221023,18.83674892970898,24.43729949769899,0.46734649343894785,0.5326535065610521,20.67111241452137,22.068191794626163,0.7263394253990244,2.301143907866118,1.3144536757928125,1.3550067525325185,-0.4905781830495286,-0.4408561515437568,-0.48237699232930137,0.0023856730626864203,0.39788343737473314,0.6950758289593915,1.199964782928397,5.76115060332095,0.9055782354769907,1.2485793457655927,1.196437645145738,1.4782582078998625,1.5295295764422552,1.7916268323801825,2.3013657194835395,1.0080698297422277,Relax
107.66262827577177,558.8018867924528,48.30546056312509,,,,,,,60.732199038072054,60.99970425677422,0.08644469838926375,0.10868288113105258,550.0,17.7912,0.03234763636363636,26.0,0.7953846777858835,538.0,575.0,20.754716981132077,32.075471698113205,442.0,797.0,5.0476190476190474,117.1875,,,0.04966096912636872,0.04788527847738798,0.033234023600744934,0.13078027120450164,1.0370821827802306,0.37972829287617593,0.3661506283505834,-3.038947160480138,43.13330453033896,50.4280259960749,0.8553439020931787,6833.364267224298,1.169120394209653,4.541604682305845,235.8257345269829,0.6226415094339622,0.6237623762376238,0.8412698412698413,0.3333333333333333,52.48881431767338,52.111906454661586,52.86039811840555,57.42574257425742,0.5808093327342865,0.41919066726571347,32.885070847048276,27.937516133191007,0.6023058084453531,0.3976941915546468,39.136365718651625,31.801425820185404,0.5932193767866347,0.4067806232133654,36.1461132508008,29.93188510509372,0.6149791864025638,2.289380054703412,0.5540137203408064,1.550985920356292,-0.6660730738058067,-1.2487064870098505,-0.0645230690434042,0.004866452258998874,0.5065981383571725,0.7138967989535678,0.9520088144762342,5.7587784172688545,0.7008139955652098,1.3443268366579824,1.1533132979349108,1.1687165163955624,1.2004776651491493,1.9079756769732032,2.3937282243554128,0.9520642152683771,Relax
107.06088255687459,561.4761904761905,48.34493355805343,,,,,,,56.498893794480615,56.75964993147456,0.08610326560250377,0.10062562714647552,553.0,20.7564,0.037534177215189875,33.0,0.8556792940745372,539.0,582.0,22.857142857142858,31.428571428571427,442.0,797.0,5.25,148.4375,,,0.0542373148529643,0.06134853624556359,0.02056174746672041,0.1361475985652483,0.8840849052349877,0.3983714397060866,0.45060314608606555,-2.791183967187867,40.13513336432022,54.7215296609948,0.7334431916096147,6899.741372077657,1.3634321123158832,4.54580292203461,298.4363630993856,0.5523809523809524,0.5544554455445544,0.8035714285714286,0.3333333333333333,51.78826895565094,51.54478403149218,52.013595012020545,60.396039603960396,0.6224271870980569,0.3775728129019433,31.6714014515132,24.66739918443515,0.48674679089717243,0.5132532091028275,38.17770144696034,39.20342996047535,0.5342189292845189,0.4657810707154812,35.07573632638487,32.752019046084534,0.8102844189263337,2.4343505629425204,0.8018326981803758,1.8784206632057816,-1.376649026983248,-2.078570952599623,-0.057751467100087536,0.004378566202836708,0.514049629290618,0.6910615840917456,0.9327156115415554,5.802354032315129,0.7141131385623909,1.0741353773139366,1.0145508030563672,1.15427307516734,1.208538815525912,1.7847555118913092,2.296206398309025,0.8952327356888163,Relax
106.30630935927755,564.8653846153846,49.348189821771435,,,,,,,58.72372372521467,59.0093917868654,0.08736274370108993,0.10396056356896342,555.0,21.4977,0.03873459459459459,31.0,0.8403450375981932,541.0,583.2,24.03846153846154,34.61538461538461,442.0,797.0,6.117647058823529,156.25,,,0.029613086661748216,0.03866073121446266,0.0157206573250542,0.08399447520126507,0.7659732687795155,0.35255993433842187,0.4602770732458886,-3.2529308914009265,41.72594108618629,56.25718813136455,0.7416997271309266,7374.52469914317,1.3482545070742322,4.5747041444843575,303.39602981374105,0.5673076923076923,0.5656565656565656,0.8214285714285714,0.391304347826087,50.59147180192573,50.45464632339808,50.70949058696912,59.59595959595959,0.6030608711320324,0.3969391288679676,32.4039304079359,26.28930297631324,0.47847623030058073,0.5215237696994192,38.91420883215705,40.627030009773215,0.5226912688141979,0.47730873118580197,35.80733412944255,34.21756141512283,0.6930901071747122,2.983740901346134,1.3323830271382484,1.9662926652965411,-1.8540898073394505,-2.4167540222369746,-0.2875453468924529,0.0053905939072598314,0.762426313344021,0.663201338502565,0.9074467070777021,5.791752280987073,0.717755200599464,0.8077006993946034,1.2200161688995086,1.392369129284906,1.236166327432474,1.7988478418428642,2.4124618943423166,0.9019822697497624,Relax
105.85421527026509,568.2884615384615,50.338595873378914,,,,,,,60.86424492819747,61.140683128728234,0.0885793030833374,0.1071009690455913,557.5,24.462899999999998,0.043879641255605374,39.5,0.8270635071997388,541.0,589.0,21.153846153846153,33.65384615384615,442.0,797.0,6.5,132.8125,,,0.04637010783567389,0.03786155252368399,0.007461862742022811,0.09169352310138071,1.2247281145343272,0.5057075600029557,0.4129141431486111,-3.273819127077011,43.23299164670168,54.84226555308982,0.7883152019832252,7448.701128855059,1.2685281185548913,4.579050658985244,278.275823757395,0.6057692307692307,0.6060606060606061,0.8333333333333334,0.36363636363636365,52.29741019214704,51.875672774327974,52.71875456706822,56.56565656565656,0.6633312279359156,0.3366687720640844,35.22337681866695,25.09384347588382,0.4544788223161265,0.5455211776838732,36.971937720200934,40.506171285486914,0.5345587659509868,0.46544123404901333,36.108243195260975,33.69310680689272,0.786404479791983,2.3080448185225575,0.7765708941844287,1.8020365781179384,-1.1212007879989958,-1.844420166128349,-0.055699405963035735,0.004082650846396758,0.48093433188062656,0.6695600275254834,0.863827162338414,5.767807809874832,0.7002742501885569,0.9957760208881153,1.0647302268051841,1.3146731129911602,1.2956596391992599,1.7953081461577216,2.412898797122554,0.9019822697497624,Relax
105.7885030582144,567.2571428571429,47.04887568578768,,,,,,,52.31864280173354,52.56026005706799,0.08294100176299832,0.09223091055004905,557.0,23.7216,0.04258815080789946,37.0,0.8992755386274804,541.0,585.4,17.142857142857142,32.38095238095238,454.0,797.0,6.176470588235294,109.375,,,0.057879620425930714,0.05177891167819004,0.014037636049202117,0.12369616815332288,1.1178222668266389,0.4679176508862282,0.4185975398527258,-2.960772323068313,37.16571630728121,54.709067842380804,0.67933375166174,6387.80566712184,1.4720304968711888,4.5123218053148335,322.1336652775176,0.5619047619047619,0.5643564356435644,0.8070175438596491,0.2857142857142857,48.1493401995494,47.81636740074017,48.47707329539152,59.4059405940594,0.6169886150073947,0.38301138499260556,29.199680806873573,23.006225413287382,0.44321544678923636,0.5567845532107636,36.42224899813289,40.82281080597259,0.4981043717756673,0.5018956282243328,33.009101633529,33.134485735161356,0.8932138460413346,2.3600693098958745,1.4553006668728332,1.775128313984014,-0.8532239806468969,-1.2678948749776817,-0.36448379046745405,0.003050339589393944,0.4640761473897032,0.670676648029183,0.9611932784948672,5.815163346295571,0.7450096324307841,0.9275048425793843,1.2354054418612928,1.4901159469111385,1.3214617634202133,1.732986532702946,2.3701141031550903,0.8312875402824722,Relax
105.47442795185927,569.3173076923077,45.848900088039706,,,,,,,51.18432329782539,51.434458505918656,0.08053312180844346,0.08990473784346703,561.5,23.7216,0.04224683882457703,33.25,0.8957605988313934,543.0,585.8,16.346153846153847,31.73076923076923,454.0,797.0,6.5,109.375,,,0.04862620567085386,0.023666351962324996,0.0018796229720635027,0.07417218060524235,2.054655730138004,0.6555854941039316,0.3190731588205768,-3.7437009880638916,36.36965439619318,54.04011384550887,0.6730121720351587,6174.549862888226,1.4858572274793258,4.4975754121057285,321.18357492461973,0.5673076923076923,0.5656565656565656,0.8035714285714286,0.22727272727272727,49.77913693510024,49.605444008828464,49.9495616336043,58.58585858585859,0.6433926394236649,0.35660736057633513,29.172828480773465,21.71879099657578,0.45394455150412927,0.5460554484958706,36.409746833661224,39.93324730026669,0.5130038918944194,0.4869961081055808,32.99032878026476,32.143196187507534,1.037538110858675,1.4261279739320962,1.3756041087012831,1.5560071577127617,-0.4344662328135307,-1.0593312643577408,-0.37350150034987806,0.0009159323386752741,0.14251454249257067,0.7221617835994243,1.1295745142720766,5.802515891359802,0.7308087402344904,1.0046201030865385,1.0696204054145477,1.4036050625702627,1.359377284088109,1.7370664501490836,2.222227012459207,0.7731276597855106,Relax
106.00250640510694,566.152380952381,38.36283782526165,,,,,,,36.05177900230125,36.21770019367457,0.06776062260963686,0.0636785787982645,558.0,23.7216,0.04251182795698925,35.0,1.0641038774484022,541.0,584.0,7.6190476190476195,25.71428571428571,452.0,709.0,7.0,140.625,,,0.05708849027721245,0.030960860061028227,0.0065280529942893005,0.09457740333252998,1.8438922615419266,0.6036165962020742,0.3273600138097597,-3.475031450897487,25.60978140592862,46.20942803942873,0.5542111749160101,3717.8026896075135,1.8043663593603079,4.277256447229698,333.5149497585046,0.6095238095238096,0.6138613861386139,0.8548387096774194,0.2857142857142857,48.023143683703005,48.14919747421885,47.88966807177908,56.43564356435643,0.6376912378303199,0.36230876216968005,20.455730082397046,15.418750405842554,0.3645658795125564,0.6354341204874436,27.90092507687928,36.83543972298296,0.42876751473243035,0.5712324852675694,24.46322253250289,28.23639038247613,1.1155315172316373,1.7009153618265724,1.4083180967456612,1.296299758152755,-0.43388960018957334,-0.0009492675134596951,-0.565857679404231,0.0010602269592761772,0.15096423526846856,0.7565505128558883,1.3116034685183013,5.808592337382307,0.7664383625696956,1.069957341756346,1.4029587680332412,1.4908844521660993,1.5665811127552929,1.63712557446372,1.8606632839462494,0.7033971494697843,Relax
106.02546843195906,566.6857142857143,40.43972587161575,,,,,,,43.374819884352256,43.58462770539715,0.07136182340962746,0.07654122698156342,558.0,25.2042,0.045168817204301076,40.0,0.9323318455140062,542.0,587.4,12.380952380952381,29.523809523809526,452.0,709.0,6.176470588235294,140.625,,,0.05154538211627856,0.022786951212220245,0.0059274728356055245,0.08025980616410432,2.2620569832367776,0.642231579912934,0.2839148547858263,-3.781567222110128,30.8189858059774,47.051768142783004,0.6550016507871563,4555.585099550741,1.5267137094971253,4.365514273748843,287.33831791866766,0.580952380952381,0.5841584158415841,0.8135593220338984,0.18181818181818182,50.3001200480192,50.08631079610575,50.52502426946825,56.43564356435643,0.7063726918221637,0.2936273081778364,25.902262149588775,16.700095924380047,0.3694424711532866,0.6305575288467132,28.59890193377339,37.362704580164205,0.47059753581200414,0.5294024641879959,27.28391812298599,28.938425124979748,1.174385129703168,1.1139629855840218,1.4709648458627014,1.327475082217598,0.3888170789332026,0.2218330011560865,-0.6288101718836514,0.000772965829815205,0.09051950899674939,0.7402298092114732,1.1239300966524,5.874826798738337,0.7876062338575122,0.8315110669952961,1.2955158860862113,1.646226293913325,1.533192117949714,1.6390099419809903,2.240400233452824,0.8312875402824722,Relax
106.59544605945386,563.8952380952381,39.731290664606625,,,,,,,45.616187241609076,45.82902337895233,0.07045863837902507,0.08089479066305719,556.0,19.273799999999998,0.03466510791366906,29.0,0.8709910465372146,542.0,580.2,11.428571428571429,27.61904761904762,452.0,709.0,5.833333333333333,140.625,,,0.0452658407436339,0.016509426323613335,0.0039644412429784654,0.0657397083102257,2.7418179079239375,0.6885616305144584,0.2511332457653348,-4.103823768860744,32.40601320641401,44.9936800598966,0.7202347788239236,4580.64877502515,1.388436145270445,4.367897103131411,249.88340681557804,0.6476190476190476,0.6534653465346535,0.8787878787878788,0.23809523809523808,51.74578265986661,51.39139300052161,52.113690959737326,55.44554455445545,0.7052405883358671,0.2947594116641327,27.218907620234045,17.59688851578293,0.37581758863439296,0.624182411365607,27.582909001353,35.5473539993544,0.4883609415848012,0.511639058415199,27.4015127412316,28.046968301336157,1.06592721284296,1.0216932505258418,1.2503654771323638,1.2122358601186654,-0.05873697028606273,-0.28437655327945865,-0.5373200243752947,0.0005729151836562016,0.054776788937781255,0.7418060361948182,1.2546659186414542,5.786778108282751,0.7821220071642017,0.9692934393991074,1.2470940082548991,1.4917412716400027,1.4875843267061657,1.6845144573190658,2.79656755739419,0.8312875402824722,Relax
107.04128815220366,560.8396226415094,35.21069555917642,,,,,,,37.90062193232642,38.06450087819656,0.06278211120914903,0.06757836001995998,555.5,18.5325,0.03336183618361836,25.5,0.9290268540196251,543.0,575.0,9.433962264150944,26.41509433962264,452.0,690.0,5.3,140.625,,,0.040171774524474416,0.010572676401743619,0.003224938921105075,0.053969389847323114,3.799584229954242,0.7443436851540937,0.19590135133365835,-4.5494823037964425,26.91566669345408,40.453328600645385,0.6653511002559298,3420.655017378442,1.502965877136667,4.241079386542723,243.1998900134672,0.6037735849056604,0.6116504854368933,0.8412698412698413,0.16,47.331583552055974,47.52409531770628,47.12419920264727,55.33980582524271,0.5521786405707163,0.4478213594292837,20.010093606823684,18.020287712208404,0.4111594309625878,0.5888405690374121,25.939367994725927,31.04224513314046,0.4544595803341888,0.5455404196658113,23.16521808789697,25.38062008833464,0.9609864544942942,1.6412561206985705,1.2894680535334633,1.423526397015213,-0.5240839217120943,-0.791696271530109,-0.4183196688249423,0.0005966894361024276,0.16307518667667398,0.8224892105443256,1.2624560977010275,5.693498374452402,0.8693956594908474,0.9503291209797605,1.2078174349042143,1.3238475897314212,1.5420479512860552,1.7157110016123345,1.9741243793318026,0.8885932675838187,Relax
107.30337956727226,559.6415094339623,37.9024282873916,,,,,,,47.92990914320817,48.15855794453052,0.06772626341767826,0.08564394944843509,556.0,19.273799999999998,0.03466510791366906,25.5,0.7907886529503781,542.0,573.0,15.09433962264151,32.075471698113205,452.0,690.0,5.578947368421052,140.625,,,0.04521489334250119,0.018673003271579204,0.005566111855502406,0.0694540084695828,2.4214044567388595,0.6510048064728033,0.26885421998007497,-3.980676473541482,34.05324289474281,41.614889074392494,0.8182946933696693,4452.01983098265,1.2220536294596795,4.355527200140894,203.42250493169325,0.6320754716981132,0.6407766990291263,0.8787878787878788,0.2,49.38733832539142,49.306325471320925,49.47431576632469,54.36893203883495,0.5624258956776967,0.4375741043223029,25.538903205170673,22.5265868560822,0.44204751874196685,0.557952481258033,27.6683473968247,31.084747787341247,0.4903275133846934,0.5096724866153064,26.62492276603308,27.145060880270943,0.7810006043613033,1.4225460245202814,1.1380066479645006,1.1905432140176657,-0.14348919611931343,-0.50172646463262,-0.4630686352865934,0.0008702417543821677,0.1415829485895641,0.7158416435375248,1.1794999478072103,5.76897007256561,0.8594732650131109,1.1349123521015176,1.2444634044090568,1.323324608189143,1.5143597725281157,1.7781634239790394,3.109294682226454,1.0155351629529357,Relax
106.8438822985485,562.0571428571428,39.26312337477569,,,,,,,47.907262176321126,48.13832814964152,0.06985610604499538,0.08523557219251929,556.0,22.238999999999997,0.03999820143884891,32.0,0.8195651680170959,541.0,582.4,15.238095238095239,29.523809523809526,452.0,690.0,6.176470588235294,140.625,,,0.03913354862237648,0.02751967499486579,0.020717247842947373,0.08737047146018964,1.4220207407855445,0.44790359910336164,0.31497683982860425,-3.5928540757663163,34.03893826959479,43.824829849661185,0.7767044021930857,4686.47297076655,1.2874910933637325,4.37781622653782,225.69631239847925,0.580952380952381,0.5922330097087378,0.8524590163934426,0.16,49.46717084908903,49.378078276460286,49.559483321961544,49.51456310679612,0.5364299449916421,0.4635700550083581,24.931070021705537,23.17619300769859,0.4665908118604214,0.5334091881395788,29.935624998177268,32.00740644476304,0.49287014058088857,0.5071298594191116,27.547231226192952,27.942888090266866,0.8780263694909525,1.2040714831512247,1.318971206511999,1.046777291287019,-0.008078563082731804,-0.11458720105205566,-0.726061258848694,0.0017400021724965353,0.11093977975782644,0.7308931784965482,1.339377441332139,5.824873346377989,0.8616078501165091,1.020412283896483,1.2770519513133212,1.3069002084469183,1.559624909967719,1.7537367696203432,2.754506944269368,0.7033971494697843,Relax
106.95528912969132,561.0094339622641,30.670753956301404,,,,,,,42.86768124401057,43.05946565411121,0.05467065631977314,0.07641169408016414,559.0,17.7912,0.031826833631484794,24.75,0.7154749934272848,546.0,576.0,12.264150943396226,20.754716981132077,464.0,677.0,5.0476190476190474,125.0,,,0.029935339597081025,0.05696996086868508,0.02865421979615448,0.1155595202619206,0.5254583141821273,0.259046935546559,0.49299236220053727,-2.865231152365879,30.447640158291268,29.802552315902822,1.021645389144883,2850.735802121209,0.9788132072293695,4.161927079990439,116.68452726379967,0.5754716981132075,0.5865384615384616,0.819672131147541,0.16,47.66584766584766,47.489172906991136,47.837918102550034,49.03846153846153,0.4952734358804262,0.5047265641195737,21.434605377573615,21.63819628484635,0.4721384302524656,0.5278615697475344,20.478028114150078,21.65277093349032,0.4839573164894645,0.5160426835105354,20.961774055840653,21.645484835869834,0.5623460772392651,1.3719462052734304,1.2975044005081866,0.6461067236883272,0.9096853633094995,1.1415692841900247,-0.97479826418561,0.003781150480362859,0.246005217290013,0.8426395726511822,1.4489453260815577,5.655762525395799,0.9128378239820086,1.0698752997688918,1.1700630976585409,1.3612251849998813,1.569116677611389,1.8025651063074217,2.8219874809284273,1.0155351629529357,Relax
106.90134130578404,562.1981132075472,33.049867029866,,,,,,,47.09807396729267,47.323961436119504,0.0587868693498531,0.08377487021182056,558.0,17.7912,0.03188387096774194,24.5,0.7017243858595477,547.0,576.0,14.150943396226415,22.641509433962266,464.0,677.0,4.24,117.1875,,,0.04337381551549174,0.020757866592685942,0.014768274219150144,0.07889995632732782,2.089512201161104,0.5497318063846477,0.2630909769654237,-3.8748299912500404,33.46309404409076,30.54015701459622,1.0957079895855666,3210.6076206211565,0.9126519195851018,4.213557342151867,111.4901316952066,0.6415094339622641,0.6470588235294118,0.8787878787878788,0.20833333333333334,49.962462462462454,49.875838905589276,50.04625436826811,48.03921568627451,0.5574460959839255,0.44255390401607464,24.984322007087687,22.261233119483745,0.44079350961320746,0.5592064903867924,20.276307138392255,22.837963116394018,0.504436076768958,0.4955639232310419,22.75241720481873,22.551441853080853,0.5659832106576352,1.8782298174959038,1.243406871808284,0.9124431619971173,0.5576395351302086,0.7777808616479287,-0.6762104438595351,0.004958632337281869,0.3937250129006591,0.7512420301190508,1.1130010261202092,5.643621426548601,0.8451806647120098,0.8517316702622844,1.1277669195969895,1.395226478045436,1.4573564920637612,1.8068053276591631,2.3237057468206843,1.1424770583220525,Relax
107.50873647978563,558.3490566037735,33.81773061373918,,,,,,,43.51617105004923,43.7098009981366,0.06056736411348067,0.07793721603962522,556.0,19.273799999999998,0.03466510791366906,26.5,0.7771301977567009,543.0,576.0,15.09433962264151,25.471698113207548,468.0,677.0,4.24,109.375,,,0.04504945838251248,0.02103950375317713,0.02045683397772444,0.08654579611341405,2.141184455251691,0.5205274017408928,0.2431025503030313,-3.8613534772663907,30.90749669009691,35.18744546967453,0.878367164127723,3416.657482510553,1.1384760733776593,4.240571553228921,160.24025900202224,0.5849056603773585,0.5922330097087378,0.8360655737704918,0.14814814814814814,47.722095671981776,47.93279816272316,47.5001136004491,45.63106796116505,0.4295190963316133,0.5704809036683867,20.26305372232542,23.352544746854594,0.5483579946800808,0.45164200531991927,26.056724967128137,23.64748195197027,0.49658161392243627,0.5034183860775636,23.34035413362879,23.500476046482607,0.528691884888884,2.1285173710937486,1.2146506596226598,1.0140068625258116,0.2753064973710746,0.45472214227475827,-0.59426458051115,0.004362519722204258,0.4455169167826013,0.6698263611083966,0.9873866535578852,5.765287435531994,0.8548969264115561,0.9060074887055901,1.2510697937587671,1.4723780977226448,1.4418786496776537,1.8164831172642897,2.247197590289537,1.0790061106374942,Relax
107.66805734129612,557.3396226415094,32.59093849887107,,,,,,,41.09895144068531,41.29307164123015,0.05847590441247729,0.07374130560805449,554.0,22.9803,0.04148068592057762,29.0,0.7929871044497778,537.0,577.0,14.150943396226415,23.58490566037736,473.0,677.0,4.818181818181818,101.5625,,,0.030830147507404825,0.017336518620367194,0.011377944012533659,0.05954461014030568,1.7783355575891182,0.5177655447698688,0.2911517697322553,-4.054940099392179,29.198610973535757,35.06075966278922,0.8328002945276997,3216.12845301111,1.2007680671716419,4.2143034962197445,168.3993624554275,0.5660377358490566,0.5686274509803921,0.8275862068965517,0.14814814814814814,48.937040065412916,49.087031891699006,48.78604067887744,45.09803921568628,0.4031563278792048,0.5968436721207953,18.54088517511834,22.55921694631197,0.578794845643395,0.421205154356605,26.673723760406375,22.754545235741368,0.5068600368497705,0.4931399631502293,22.97011060403705,22.657091584271903,0.504996788517998,2.9292395117499486,1.2823671078178118,1.3102420553880163,-0.675450704436086,-0.21519206615256292,-0.49048389609030235,0.004964387806211382,0.6951596199082705,0.6658117150394443,1.030404038641576,5.805763794545705,0.8468732523644564,1.0566057014234589,1.1147500000687467,1.5375673560996346,1.4711069849704708,1.8240176427876176,2.407442439866999,1.0155351629529357,Relax
108.31425167489392,554.5794392523364,33.41563225389995,,,,,,,42.28776084141997,42.47562484766364,0.06025400490676264,0.07625194489437034,551.0,22.238999999999997,0.0403611615245009,30.0,0.7901963024055425,534.0,574.8,15.887850467289718,27.102803738317753,473.0,650.0,4.6521739130434785,93.75,,,0.018558564363783763,0.017624469141255768,0.012577788812147755,0.048760822317187286,1.0529999068364246,0.38060400710761216,0.36144733217600944,-4.038467050382473,30.034802364918775,35.633083878141484,0.8428909063170679,3362.234974111377,1.1863931530230947,4.233598171353762,169.0993869364987,0.6074766355140186,0.6078431372549019,0.8548387096774194,0.25,52.12074894917844,52.0453889618634,52.199398512675245,46.07843137254902,0.4714832106776398,0.5285167893223602,20.629613481133195,21.841746834031035,0.5730159146866287,0.4269840853133714,26.973465797758678,23.284089192489567,0.5308277920321441,0.46917220796785586,24.011963783953714,22.57444035060132,0.5738868998653809,2.1747421989437328,1.3034116126154092,1.0147759236588687,0.398566375153635,0.7911148506314143,-0.6327217952991072,0.005666620428565133,0.4933262339156907,0.6375925560795435,1.047968555849355,5.858015350765815,0.8824512667891675,1.0763974207351639,1.1849195630857958,1.5530165141518104,1.5154958271171965,1.8390384925350172,3.014026828769398,1.0080698297422277,Relax
109.54825791782841,548.0370370370371,28.381554469927412,,,,,,,39.68756485019354,39.8740478654451,0.051787657679802666,0.0724176691866747,548.5,18.5325,0.033787602552415676,24.25,0.7151246133910634,529.4,562.6,12.037037037037036,24.074074074074073,473.0,650.0,4.695652173913044,93.75,,,0.020895061388596727,0.08189212050699492,0.03389482974388487,0.13668201163947652,0.2551535026719933,0.15287352840336607,0.5991433658658768,-2.5023525014572683,28.195209639013207,28.80727831775994,0.9787529848535053,2551.6871657252423,1.0217082506774422,4.113797539208713,117.73053574726687,0.6481481481481481,0.6470588235294118,0.8636363636363636,0.20833333333333334,49.66159052453468,49.68907348041439,49.635975850216205,50.0,0.45636540561067085,0.5436345943893294,19.047359050336947,20.788921214988978,0.5456612776692197,0.45433872233078026,21.27961647293145,19.41744594023186,0.5019717357590834,0.4980282642409166,20.19435520173284,20.11487574066573,0.5766975461930072,2.832481832001756,1.184259270229484,1.4063027238158865,-1.012487730656014,-0.7182834222872847,-0.42160816317417266,0.0028727161049635474,0.5777955711561789,0.7129755761081027,1.1430640512389434,5.811244881809441,0.9093948178461234,1.2801462942069601,1.157101903766446,1.5503236825016615,1.5490851676596076,1.850515343470342,3.158534449622395,1.000724074394588,Relax
110.56836511188754,542.954128440367,27.03337625736451,,,,,,,39.42327287839563,39.6067496459216,0.04978942942199877,0.07260884633410705,542.0,16.3086,0.030089667896678964,21.0,0.6857212576122539,527.0,554.4,11.926605504587156,23.853211009174313,473.0,650.0,4.739130434782608,101.5625,,,0.02525980800138059,0.08504498553106163,0.03443578535758236,0.14474057889002456,0.29701701803635155,0.17451780416446488,0.5875683666822952,-2.464574920948831,28.006201255389055,26.252279895717386,1.0668102491150793,2309.7825926391383,0.9373738214734076,4.070541213983557,98.43279971295247,0.6513761467889908,0.6504854368932039,0.8656716417910447,0.2608695652173913,49.63377854373115,49.65798255335022,49.611199578703996,50.48543689320388,0.45635168867997594,0.543648311320024,18.919406048648696,20.649839898906414,0.5373144684321216,0.46268553156787856,19.24337723210484,17.85706113631234,0.49421834342094273,0.5057816565790573,19.08207919136088,19.304021864322262,0.5306750389781316,2.692213046678329,1.131710366088013,1.2222915995612718,-0.8219154757581855,-0.34101313527105803,-0.4663543590708697,0.002260395441554689,0.4926918553152989,0.729376538633832,1.111034808666667,5.603873632844958,0.8819089139919718,1.1756545349319123,1.0539159052577252,1.471102101182176,1.5089375265788605,1.8591403179824237,2.9877550145255842,0.9314015125839806,Relax
110.83810092841499,541.2636363636364,34.047909384344536,,,,,,,48.214638608484755,48.40398541031272,0.06290448331812591,0.08907791946343276,537.5,14.825999999999999,0.027583255813953485,19.75,0.7061736926169312,525.8,554.2,17.272727272727273,30.909090909090907,449.0,682.0,3.9285714285714284,109.375,,,0.030537808771681312,0.10036056669312453,0.025330942872762215,0.15622931833756806,0.30428095195055715,0.19546784877917478,0.6423926556235321,-2.2989859108963846,34.22678632008683,31.433425324944324,1.0888659433792538,3379.929994647027,0.9183866995569153,4.235877815194075,115.47215895977752,0.6545454545454545,0.6603773584905661,0.9,0.24,46.845681009382076,46.867348685486185,46.81099739081188,50.943396226415096,0.42035305678665436,0.5796469432133455,22.20610526659529,26.076365771553593,0.49372517813454436,0.5062748218654556,22.086878727165704,22.365822492149185,0.4538982228411628,0.546101777158837,22.14657222935003,24.292044660775037,0.43076825149941117,2.258155698201333,1.0705806846399089,0.9998891769664564,-0.2681374220072179,-0.014806229130720272,-0.5313049749978532,0.0036873469814595436,0.4228476484217734,0.694759328221461,1.1151415906193205,5.646723350338526,0.8872863625093538,0.8992569689461677,1.0336304424421483,1.197080091143993,1.5151334635429274,1.9708551600730815,2.3894417792739677,1.048028319362902,Relax
111.59950610960118,537.8909090909091,32.09714196157894,,,,,,,44.28380116782614,44.48823085194231,0.05967221497724587,0.08232859194937932,535.0,14.825999999999999,0.027712149532710277,21.0,0.7248054845142501,521.8,548.2,13.636363636363635,27.27272727272727,431.0,681.0,4.074074074074074,109.375,,,0.04553528415874562,0.09726703581926578,0.055426457366764145,0.19822877734477556,0.46814713510295336,0.22971076535243398,0.4906807029843657,-2.3302951363055784,31.457929718400983,33.00479145396118,0.9531322069488627,3261.797559531985,1.0491723946682792,4.220427113414541,138.51086434111843,0.7090909090909091,0.7142857142857143,0.92,0.3181818181818182,49.79667282809611,49.80850655754938,49.78547282704924,52.38095238095239,0.4856915627704615,0.5143084372295385,21.923583614877348,22.56020751152265,0.5035208120126552,0.49647918798734453,23.41993610643973,23.255598287073813,0.4950337526972039,0.5049662473027962,22.684101544344202,22.91054140186034,0.4437938597335245,2.3356158158945295,1.1267243462523637,1.0707026341795922,-0.3449797900430376,-0.2083056412428751,-0.5239858420599518,0.00402325754747706,0.4620418082055798,0.759186154904643,1.095549499137564,5.578833068298884,0.8859817522088489,1.3198427981073446,1.1405460605235969,1.346791703206382,1.4594508422277224,1.9091833580376898,2.7577580346604886,1.1713257686997138,Relax
109.94350480894141,546.4537037037037,51.84761717490135,,,,,,,54.78061598640953,55.0330225803155,0.09488016427282556,0.10024749693363318,536.0,21.4977,0.04010764925373134,30.0,0.9464591852666311,518.8,561.2,15.74074074074074,29.629629629629626,449.0,799.0,5.4,117.1875,,,0.03172411474720242,0.013847604468620779,0.013107001712942191,0.058678720928765395,2.29094604912283,0.5406408702349658,0.23599022353318588,-4.2796430238629934,38.91422345573348,62.18778267375049,0.6257535127098075,7602.620516114371,1.5980733302950691,4.587933423232891,397.5225478444258,0.6574074074074074,0.6634615384615384,0.8840579710144928,0.2857142857142857,51.27408328154133,51.2244166052979,51.30170147634894,53.84615384615385,0.5593432534615599,0.4406567465384399,29.106505789003304,25.83456073367393,0.4166949036530396,0.5833050963469604,40.14340127077773,47.49555398446199,0.4568397835172553,0.5431602164827447,35.061954771746265,38.23121876551171,0.9744997797717191,0.92021285100473,1.2069620942815553,1.161514184521693,0.1828078914814455,-0.1548580909042343,-0.5493884754057067,0.000581301677055672,0.05318595439453428,0.5487032296615504,0.6644713805832793,5.845268697001176,0.6576039318625295,0.8493658812829225,0.9221356972634182,0.9240775267084305,1.2338880435866946,1.7713579441789984,2.1400026565302186,0.9381788197449261,Relax
109.92565951610653,546.4954128440367,51.01245742067814,,,,,,,50.080120991452475,50.313179793377536,0.09334471291387855,0.09163868499980393,535.0,16.3086,0.030483364485981306,23.0,1.0186168965004057,524.0,556.4,14.678899082568808,27.522935779816514,449.0,799.0,4.541666666666667,109.375,,,0.02996069385882859,0.00930646604485535,0.00904836653031326,0.048315526433997204,3.2193416614237775,0.6201048828425216,0.1926185375951292,-4.67704584677331,35.57679061495523,61.94694102974087,0.5743106927245161,6923.672326594228,1.7412177984289723,4.547306615999436,431.4524651168591,0.6422018348623854,0.6509433962264152,0.8840579710144928,0.3181818181818182,50.37878787878789,50.29170688119715,50.4600829459494,52.83018867924528,0.5546395634741901,0.44536043652580987,26.495723513163046,23.742485284330186,0.42241841427773696,0.5775815857222631,40.26162380015193,47.07892471071566,0.4552130721029009,0.544786927897099,34.080945669911664,37.283580564330656,1.0576280137621803,1.4478707268558235,1.367461642041914,1.49580626259847,-0.36750177307352416,-0.7203790667205938,-0.41135629847613014,0.0005634433401329816,0.12995135209429923,0.5018889554375994,0.5632551633337011,5.772355540887163,0.5950884342085685,0.5687605618970231,0.8715177079854757,0.8425165036728989,1.102651697127951,1.7080598827042144,2.499705918730967,0.8693080784117153,Relax
109.1537645745578,550.3457943925233,55.894965987216096,,,,,,,63.047451432040226,63.34583127264684,0.10156335626933148,0.11455970423401268,538.0,20.7564,0.038580669144981414,36.5,0.886553932278549,524.2,573.6000000000001,18.69158878504673,31.775700934579437,437.0,799.0,5.35,117.1875,,,0.03429508453203109,0.010132484554280011,0.01225341463546082,0.05668098372177192,3.3846668453636752,0.6050545047060977,0.17876338568887593,-4.592008723837015,44.79226685278744,65.51468358009659,0.6836981330761608,9219.164459130941,1.4626338022903518,4.671661672313469,383.29596300242383,0.616822429906542,0.625,0.8461538461538461,0.30434782608695654,50.54914881933003,50.42264357993827,50.65734512792146,54.807692307692314,0.5895150801712601,0.41048491982874014,34.39206719164007,28.698514977342672,0.4106927229306648,0.5893072770693351,41.985289455655895,50.29323248633924,0.4676566503354675,0.5323433496645326,38.376938494293,40.94517062993956,0.8853608667547914,2.1668626407926066,1.4125094672325984,1.8243888780362787,-0.4754971355592197,-1.1866905173295874,-0.3099190031477857,0.005338173375863504,0.5085934280049866,0.5388806623431015,0.6230015711931858,5.950539972540488,0.6278302495289706,0.8030360382191409,1.0053950551724464,0.9505442540634544,1.162922276095885,1.7413357457877587,2.30865733520558,0.7560523723066708,Relax
108.7949028435064,552.4953271028037,57.512652230941995,,,,,,,66.26262784599328,66.57731928327387,0.10409617857318189,0.11993337245667543,542.0,28.1694,0.0519730627306273,38.5,0.8679500662818888,524.0,581.4000000000001,23.364485981308412,39.25233644859813,437.0,799.0,6.294117647058823,132.8125,,,0.026302589746133916,0.009806878336606808,0.008410625719321248,0.04452009380206197,2.6820552721606052,0.5908026578532434,0.2202798219655278,-4.6246712684196,47.077273938424845,66.73937858631925,0.7053897554280661,9870.595116779605,1.417655972892815,4.701313447853506,378.4539147202013,0.6355140186915887,0.6442307692307692,0.8805970149253731,0.34782608695652173,49.85486211901306,49.730276236587436,49.97612674707752,56.730769230769226,0.5743503689156844,0.42564963108431564,35.67799108160446,30.714119600879705,0.4170862459438369,0.5829137540561632,43.101768788118136,50.954707156686275,0.4693379313292729,0.5306620686707271,39.56438752390489,42.06981889835514,0.8495710621755539,1.509979149667724,0.8955168164587342,1.4893754481044668,-0.1171007593818203,-0.8867303815719223,-0.10671070737869902,0.003562476748048163,0.24696393754088355,0.5798078560142885,0.8279361713380576,6.159554252695634,0.7126903021722311,0.8579765509348333,1.074439639877071,1.2189263316344634,1.3923945041845387,1.742401118497196,2.4581677127778456,0.81905673666556,Relax
108.37747850466349,554.6728971962617,55.097816225761825,,,,,,,61.75591026638818,62.04233548660564,0.09933388940449056,0.11133752988211516,547.0,26.686799999999998,0.04878756855575868,37.0,0.8921869338188648,525.0,581.4000000000001,20.5607476635514,35.51401869158878,437.0,799.0,5.944444444444445,132.8125,,,0.0300115050514832,0.00941903963061,0.009173482774731153,0.04860402745682435,3.186259558134971,0.6174695106931797,0.19379134041879692,-4.665022145632525,43.870556143229614,64.43128352358003,0.6808890610905528,8880.139649729497,1.4686680358740674,4.655389905541071,378.51266648568577,0.5887850467289719,0.5922330097087378,0.819672131147541,0.2916666666666667,51.330076004343084,51.17573515503373,51.457083074863206,55.33980582524271,0.609409244499854,0.3905907555001458,34.25124259129323,27.420968688387426,0.4049501336420276,0.5950498663579722,41.001293337726004,49.701954097698234,0.4697240785674825,0.5302759214325173,37.7773323198838,40.13847135192885,0.9890700025340381,1.1581665491844673,1.3246762859217152,1.3557159290437455,0.09841452929765637,-0.4265406699447878,-0.47319932686375105,0.0011724684713624426,0.11042229627335436,0.5115749663733666,0.6453565167235968,6.051986262000987,0.6712243485311367,0.8266952265228228,0.6744258743206731,0.6266061116956079,1.3044134336634663,1.7376893426875655,2.258528757209516,0.7560523723066708,Relax
107.44384771462914,559.4666666666667,47.79182957743901,,,,,,,59.68354044458154,59.971718969663115,0.08542390892058926,0.10667935017501466,552.0,19.273799999999998,0.03491630434782608,24.0,0.8007539301696681,535.8,582.2,20.0,31.428571428571427,437.0,799.0,4.2,125.0,,,0.02768074957343853,0.03459659303321478,0.021197242081932396,0.0834745846885857,0.8001004476615189,0.3316069157661061,0.41445660571157666,-3.364000069014804,42.4064091628627,51.15230036213,0.8290225241611575,6814.69685024378,1.2062398437386792,4.540416651101725,246.8077711827587,0.5904761904761905,0.5980392156862745,0.8360655737704918,0.28,49.51370468611848,49.413389159953475,49.60840292261329,57.84313725490197,0.6164211617417218,0.38357883825827815,33.29479973389821,26.264247173898784,0.2893720096057766,0.7106279903942235,27.51651500814112,43.12075178083412,0.42259102841889373,0.577408971581106,30.542611934096627,35.70161000400373,0.7771971291148682,1.391280887426379,0.7042209629137917,1.2744850681860052,0.30878227396939195,-0.2945127167465029,-0.0901157628010688,0.0027105011118488463,0.21064066403868648,0.5092511738331411,0.6852420010528325,5.858299774990626,0.6619138979009996,0.6538042915902211,0.9058379879981893,0.858071992470545,1.1482973944685784,1.8266409962167807,2.337162864891646,0.7673423448761283,Relax
108.0388686959192,557.9528301886793,89.43669025261568,,,,,,,127.98697850432545,128.60080565889632,0.16029435718136145,0.2293867359021101,542.5,43.7367,0.08062064516129032,63.25,0.6987952313413905,511.0,599.0,49.056603773584904,67.9245283018868,418.0,1178.0,8.833333333333334,125.0,,,0.05532372152665473,0.10624462563947651,0.03883715080228761,0.20040549796841886,0.5207201888440606,0.27605890101564473,0.5301482579895048,-2.242011054673626,90.9345017474589,88.34650551453655,1.0292937023128381,25238.755718240125,0.9715399965558763,5.109038050152642,343.32865465326614,0.6320754716981132,0.6442307692307692,0.8805970149253731,0.25925925925925924,50.0472925041381,50.03194626025329,50.08987763588715,48.07692307692308,0.5078268807014076,0.4921731192985924,64.80173163640708,63.795157460301134,0.5156281221406965,0.4843718778593033,63.439196504593575,61.486367460450914,0.5116149100131969,0.48838508998680336,64.12408313662411,62.65139862312019,0.4926422786332243,2.8217431101804236,1.0769551030769535,1.378849799776149,-0.6257566733091622,-0.47075611786385974,-0.3930112753319021,0.007241653186236373,0.7203741662639958,0.8681326319168345,1.4343035803062512,6.310329298841593,1.1771753941185104,1.2943685223965915,1.1524829080141519,1.2907340113291732,1.3978526491016725,1.9933705340399226,2.397943429012263,1.1424770583220525,Stress
107.9455243952427,558.3962264150944,89.68502335505,,,,,,,128.05724166503487,128.67018988704322,0.16061180056825985,0.22933042095782558,548.5,45.2193,0.08244175022789425,60.5,0.7003510476169961,512.0,597.0,46.22641509433962,62.264150943396224,400.0,1178.0,9.636363636363637,156.25,,,0.05055620823335999,0.11245021332263691,0.04428571710205862,0.2072921386580555,0.44958748178010544,0.24388869042813235,0.5424721557247874,-2.185244703534264,90.983563805689,87.3157279950832,1.0420065879862142,24957.742294858654,0.9596868307067077,5.1041754059869096,335.1830170818013,0.6320754716981132,0.6442307692307692,0.8805970149253731,0.391304347826087,50.35979997560679,50.415073531963884,50.34546782639842,51.92307692307693,0.5259205312397821,0.4740794687602178,65.98226014502802,62.64590661315881,0.5069820606993274,0.4930179393006724,62.17113206515015,61.30894464145516,0.5168408098223136,0.4831591901776861,64.10502443688986,61.981030599827996,0.4664186853561418,2.2926477235507843,1.02170311361162,1.0287978040193897,0.05277246530526902,0.3079276743880375,-0.4969054598598419,0.0038815463406130474,0.46225186589691536,0.8048157365024085,1.1082741995798464,6.2231112564091715,1.082918529927099,0.8629722163534865,1.0632650558699581,1.1792661696691515,1.3054240836681463,1.964182331844367,2.024412143672546,1.2694189536911695,Stress
107.46130795383046,561.0188679245283,83.56690859448811,,,,,,,120.80653561632768,121.38359261768683,0.1489556116065067,0.21533417594892604,551.0,30.3933,0.05516025408348457,40.25,0.6917416195088172,523.0,590.0,45.28301886792453,56.60377358490566,418.0,1178.0,7.571428571428571,156.25,,,0.062407939905227625,0.14645465761151324,0.04672572351749642,0.2555883210342373,0.4261246512949517,0.24417367606115217,0.5730099756471069,-1.9210394027896454,85.8311614647517,81.42727378311837,1.0540836930555122,21956.58315079149,0.9486912724180963,5.0485348667683825,308.997375899373,0.6037735849056604,0.6153846153846154,0.828125,0.3333333333333333,50.522003435971975,50.490452189895805,50.57855922465784,51.92307692307693,0.5413226241571188,0.458677375842881,63.15118459209308,58.130903339591434,0.455001590388807,0.5449984096111931,54.92579504733699,60.112876775020894,0.5004341863831199,0.4995658136168802,59.181564177396844,59.130194812996216,0.5628087112819188,1.6522011371351415,1.038582510566517,0.8381124421582372,0.5500527908832158,0.7750754233106323,-0.6213351473391961,0.002868443921721411,0.2608929464866615,0.7809408263769959,0.8103660413071472,6.109903709239361,0.9666414481679415,0.6663137744611944,1.1324557882776867,0.9961810557596514,1.0978346782554231,1.99262673858166,2.0244486424665022,1.205948006006611,Stress
107.10904837893915,562.9047619047619,99.83578091137039,,,,,,,145.95415507828267,146.66091316481044,0.1773582098924607,0.25928747624092174,548.0,34.099799999999995,0.06222591240875911,46.0,0.68402150564212,518.8,599.0,51.42857142857142,61.904761904761905,418.0,1178.0,9.545454545454545,164.0625,,,0.025110532550733613,0.0826177237329259,0.04129838209987594,0.14902663838353547,0.30393638817630886,0.16849694003101015,0.5543822542671911,-2.4935310484348627,103.70492623384887,96.79956174022342,1.0713367330335344,31537.16502522492,0.9334133416376554,5.205792760614842,361.41600957200995,0.6285714285714286,0.6407766990291263,0.8484848484848485,0.36363636363636365,49.93340732519423,49.795807501537155,50.09502343533321,50.48543689320388,0.5295381751608687,0.47046182483913124,75.46544891924069,71.13145904604669,0.46403145924875977,0.5359685407512401,65.93972072339984,70.86683557221501,0.49903820264548493,0.5009617973545151,70.86282787774734,70.99927059498138,0.2378131243859946,1.9822262548392067,1.5907012121503694,0.7270494083996119,0.7895765013208997,0.7819609680541874,-0.9356978935388054,0.008036430922093498,0.5150707923250839,0.7812601440431441,0.9075570519054005,6.137775755637735,1.0152471626172774,0.6262185112578694,1.0788152576840702,1.0586462374600323,1.199720751922074,2.052011642235604,2.3599307102665805,1.0870683219078485,Stress
107.9650581320393,558.7264150943396,81.49560701206018,,,,,,,119.9666223421768,120.52509276224593,0.14585959211951674,0.21471442749296316,548.0,37.065,0.0676368613138686,51.25,0.6793190090791501,519.0,599.0,50.0,65.09433962264151,404.0,1106.0,8.153846153846153,171.875,,,0.048342123247709576,0.12113113646828456,0.05701472290205556,0.2264879826180497,0.39908915789266836,0.21344233229907805,0.5348236805683445,-2.1108815477776375,85.22411039532177,77.00198429963079,1.1067781067004323,20616.468088023674,0.9035234740785006,5.021184376085641,278.2924014613623,0.6037735849056604,0.6153846153846154,0.828125,0.34782608695652173,51.30909542126816,51.30653310770488,51.29796150316902,49.03846153846153,0.5290806592820477,0.47091934071795216,61.998953154933936,58.49202772765112,0.48202358798181594,0.5179764120181841,53.46087497266751,55.4187732924268,0.5079342799626784,0.4920657200373218,57.887543328210434,56.97612544272253,0.5934030333206707,1.489374579084998,0.984935460966234,0.8370678246247849,0.24963995622216384,0.5351461372943804,-0.5992816974439648,0.0020086488719505934,0.17343876979236034,0.7933303405666612,1.1430640512389434,6.159385902615178,1.145912499475366,0.8038589957300587,1.061877964334077,1.111323600379844,1.3612646394420544,1.9905056960499947,2.1911260897248135,1.205948006006611,Stress
108.16602512925621,556.8584905660377,79.45270395221901,,,,,,,116.69324867238159,117.25289268282826,0.14268024156632075,0.20955637859407472,548.0,41.5128,0.07575328467153285,54.75,0.6808680438341718,516.0,595.0,47.16981132075472,65.09433962264151,418.0,1106.0,7.571428571428571,132.8125,,,0.022498297260350034,0.12660462478448112,0.060858173952963286,0.20996109599779444,0.17770517703163574,0.10715460001497787,0.602990874013208,-2.0666862392561853,82.91031552976638,76.59464506096135,1.0824557704233555,19950.640760896837,0.9238252751970583,5.0069269585786875,283.04027620825445,0.6415094339622641,0.6571428571428571,0.855072463768116,0.36363636363636365,50.06591088847879,49.97326553505155,50.163084543269946,51.42857142857142,0.5325335112580762,0.46746648874192387,60.50373478618425,56.6870626944374,0.4503274221834228,0.5496725778165772,51.39993914503235,56.78719845089756,0.494680372120062,0.5053196278799381,56.13668883711414,56.737152663949836,0.5470160099944599,1.1217816476781175,0.9979390190599788,0.6925851930638179,0.9873640372324102,1.042312776854467,-0.7722043337294627,0.004164935786540811,0.17158430663136903,0.6771347419768023,1.2175170294336932,6.227736020519296,1.140833901421156,0.915689851180206,1.1490025158282002,1.1877943954152692,1.4160035329635423,1.972087959250445,2.2512374731353515,1.0790061106374942,Stress
108.55574300907014,555.4766355140187,77.83137866923968,,,,,,,114.34852384556775,114.88247676693005,0.1401163859884354,0.20585658610060822,548.0,40.0302,0.0730478102189781,55.0,0.6806504889766138,508.4,584.6,46.728971962616825,64.48598130841121,443.0,1106.0,7.133333333333334,109.375,,,0.026785235022365787,0.1593921408921077,0.06522225667951903,0.25139963259399256,0.16804614626825717,0.10654444776227508,0.6340189889995748,-1.8363878181570301,81.23417836140224,74.26187605629028,1.0938880442479932,18951.9796489319,0.9141703351255314,4.984624691321428,271.5520164857182,0.6542056074766355,0.6698113207547169,0.8732394366197183,0.30434782608695654,51.018788039163795,50.874615072816454,51.1247286334677,54.71698113207547,0.5642909296600607,0.4357090703399394,61.02747234608673,53.6255980097636,0.4073263482626807,0.5926736517373196,47.39550645123053,57.17072855606429,0.4928389507600901,0.50716104923991,54.63829432147848,55.42651425778075,0.4984331971008959,1.7123729601325013,1.013663326746347,0.9184747487117175,0.6133819461446315,0.6685044382383984,-0.5555886948993074,0.004551905224769407,0.32643790361446107,0.7132401526345706,1.170524870258396,6.250538715251797,1.1005846698398645,0.9173470030761459,1.203300649096113,1.2624639582790458,1.3984519595779838,2.0072025709748815,2.1643106807733967,1.0710741941011168,Stress
108.8765506268307,553.8691588785047,78.53374279144607,,,,,,,116.53564520683611,117.08400966382118,0.14179114603612192,0.2104028421492215,544.0,45.9606,0.08448639705882353,61.0,0.6739031877504824,507.2,594.8,50.467289719626166,70.09345794392523,430.0,1106.0,7.642857142857143,117.1875,,,0.03227422521584623,0.14686899631296352,0.05611474139001281,0.23525796291882256,0.21974838819673695,0.13718653692067667,0.6242891611011769,-1.9182142710862238,82.79089720179923,73.97929975643748,1.1191089598627213,19241.666272532508,0.8935680401689107,4.991212787935528,264.42215158571287,0.6728971962616822,0.6886792452830188,0.8904109589041096,0.25,50.730793254216124,50.52236516234919,50.90682179564139,53.77358490566038,0.5596715337340636,0.44032846626593647,61.93964035752103,54.940227260437965,0.4146908467565087,0.5853091532434913,47.6400754901492,56.59823318572511,0.4953076810673128,0.504692318932687,55.25439276802417,55.775391397883915,0.5172932073073793,2.5006047014506354,1.0068097908551996,1.4002674562849977,-0.9640507255924096,-1.0255190401953234,-0.3426549925297878,0.004653543589260904,0.5283420968506196,0.7378226301765913,1.5485291593471082,6.257593738636501,1.2445890717757844,1.0724696935056077,1.356994122846587,1.5877118387145142,1.4702856298126807,1.990153874209992,2.338049134214646,1.1340785584600062,Stress
108.17969247283241,556.7641509433962,82.2632883330558,,,,,,,119.766797211438,120.32645460436237,0.14775248764430443,0.2151122643376049,542.5,49.6671,0.09155225806451613,65.25,0.6868622209862306,508.0,599.0,51.886792452830186,75.47169811320755,426.0,1106.0,9.636363636363637,125.0,,,0.013396839868690176,0.0908613657142167,0.05301282163652954,0.15727102721943642,0.14744264257293713,0.08518313961285376,0.5777374721883138,-2.3984203877907344,85.0836520068799,78.9701733465761,1.077415034072087,21108.583300688006,0.9281474347174301,5.031429196640364,293.1838552432615,0.7075471698113207,0.7238095238095238,0.9210526315789473,0.30434782608695654,51.191772534785244,51.06139362453759,51.28997353870422,53.333333333333336,0.5743936940328485,0.42560630596715154,64.49176303994177,55.514118093439144,0.4036168834656177,0.5963831165343823,50.17042195672904,60.985383815075224,0.49537089508066806,0.5046291049193319,57.776546882434225,58.31395350499032,0.5495636465763605,2.08839638894835,0.9322061253998202,1.1767541490943556,-0.3674833759420082,-0.2437800010625386,-0.3829015291404128,0.0032682463724421824,0.35499725856591924,0.8520603339059698,1.7278556672485748,6.227736020519296,1.2277085038266207,1.0716051285152077,1.2526541049158202,1.559995618227634,1.4825285828364771,2.0067294790845995,2.198081705928941,1.205948006006611,Stress
108.82769716922074,552.8224299065421,58.374977368039275,,,,,,,83.50788009365253,83.9016623720118,0.10559444445462879,0.1510573297609687,544.0,48.925799999999995,0.08993713235294117,63.0,0.6990355557172907,510.2,599.8,46.728971962616825,73.83177570093457,426.0,709.0,10.7,156.25,,,0.047647316890329784,0.06094800795111288,0.032083048252829656,0.1406783730942723,0.7817698804618562,0.33869681488568293,0.43324362238870934,-2.797734106917715,59.327434416073736,57.73067561926955,1.0276587581848984,10759.995275862258,0.9730856590627898,4.738782190616752,224.70757013246816,0.7009345794392523,0.7169811320754718,0.9078947368421053,0.34782608695652173,49.443943492636,49.291642460541276,49.58805854008844,55.660377358490564,0.5753208206732162,0.42467917932678384,45.001375640349146,38.66350561791657,0.39727525700634214,0.602724742993658,36.387515102281824,44.81941155502305,0.48872936814527196,0.511270631854728,40.92172445561524,41.85478657695676,0.47839499025188237,2.4514520356841003,0.998245949827695,1.3539307091244333,-0.6690719612560923,-0.8836280590610173,-0.35490853823804014,0.00478363860685106,0.5454819688320849,0.6247707487543028,1.955388893009857,6.294976916206596,1.4162313057761173,1.42769234640601,1.2627247047343517,1.3365155072158228,1.7438919485003619,1.9540819472821895,4.626610743553867,1.0710741941011168,Stress
108.98609921035627,551.5514018691589,56.773670758657566,,,,,,,80.26924033150075,80.65019249181465,0.10293450540830215,0.1455335623470005,543.0,41.5128,0.07645082872928176,56.0,0.7072904953901424,511.4,598.0,44.85981308411215,71.96261682242991,426.0,699.0,8.23076923076923,125.0,,,0.043037391359160106,0.0603269085718391,0.036351004910034485,0.1397153048410337,0.7134028972810679,0.30803634153128395,0.43178453957122515,-2.807977029814218,57.028298014962516,55.92549915311982,1.0197190705231491,10019.594649027467,0.9806622518954826,4.707820262106639,219.37610375150956,0.6635514018691588,0.6792452830188679,0.9027777777777778,0.2692307692307692,49.79750778816201,49.62570714473213,49.95342540867446,53.77358490566038,0.5708226081812778,0.4291773918187222,43.08667897113799,37.36034312068397,0.40531710355663475,0.5946828964433654,35.60470028043161,43.1273320930734,0.48968596364430367,0.5103140363556963,39.52313617883373,40.3470073956017,0.5609913106796616,2.1913892967355713,0.5166108678127015,1.5157847452185051,-0.8075721511852176,-1.525769723527334,-0.04404546974185054,0.004852226178835584,0.4886366079852943,0.6842402294908125,1.967112356705916,6.220210561066406,1.4334648130933694,1.000165080132286,1.3015834288193564,1.6012791770987282,1.6733086377264679,1.9686672482819239,3.6809735420633207,1.0710741941011168,Stress
107.99693880938027,557.1320754716982,59.008001954811284,,,,,,,86.69536155000286,87.11116429628836,0.10591384799529253,0.1556100705144321,544.5,44.477999999999994,0.08168595041322313,53.0,0.6806362059033289,513.0,616.0,50.943396226415096,74.52830188679245,426.0,699.0,8.153846153846153,125.0,,,0.04080351781165266,0.03686993559681646,0.01374853001008653,0.09142198341855565,1.106688068507932,0.4463206363051941,0.4032939804862413,-3.3003588135014703,61.59689499096096,56.75132116710988,1.0853825730256184,10982.08168284903,0.9213341220436169,4.747654779555389,209.14771464925803,0.6415094339622641,0.6571428571428571,0.8985507246376812,0.28,49.97855611150821,49.81867776838022,50.12923634266527,55.23809523809524,0.5838145235171803,0.4161854764828197,47.06480801879631,39.73766136512352,0.3855259490798602,0.6144740509201397,35.23731297394258,44.48644994364994,0.4927752555640589,0.507224744435941,41.57381615554276,42.178940001842754,0.49038075403132886,2.2457196489528486,0.9430930603241344,1.4021165412859238,-0.7289685253365796,-1.304281548438734,-0.295600719272405,0.0046257220513117635,0.4905129472930924,0.7122767334082245,2.2225423853205095,6.145142742196999,1.4617809383960676,1.6774270542227347,1.390337305788058,1.583669662667995,1.594443014611508,1.9758279840094404,4.999376372706477,1.0790061106374942,Stress
106.69625311417857,563.8173076923077,61.223887149785334,,,,,,,87.89197915623473,88.32176649877597,0.10858816555379154,0.1558873378966934,551.5,42.9954,0.07796083408884859,70.25,0.6965810502566473,522.0,610.0,49.03846153846153,69.23076923076923,426.0,758.0,8.666666666666666,125.0,,,0.04186381356169917,0.07126856086758722,0.027063553697190084,0.14019592812647647,0.5874092734870804,0.29860933995124395,0.508349720423356,-2.6412999903537644,62.452920017659316,60.57247045202099,1.0310446239290805,11884.417721879532,0.969890125792251,4.781948018249844,234.99456394503218,0.625,0.6407766990291263,0.8787878787878788,0.2692307692307692,49.97782049386365,49.81215012002265,50.137950213957396,53.398058252427184,0.582172369371917,0.41782763062808304,47.65171848432965,40.36931226252213,0.39366246298698676,0.6063375370130133,38.00469831669701,47.16637661001534,0.49079813215790125,0.5092018678420989,43.098975444045976,43.89959256682698,0.5315826932723635,2.406171095002344,0.9256432968115189,1.5675971681888747,-1.2533262213391847,-1.9051077522090323,-0.233205226880705,0.0057035966089252245,0.5636093837893643,0.7359218759504733,2.072061434382214,6.197894886347915,1.417534153871921,1.2548810191352928,1.3931504060561475,1.6260128241490486,1.6360959942985955,1.9627216238331284,4.1799053173490215,1.159691489678266,Stress
106.13004757754815,566.6923076923077,65.19977915905731,,,,,,,91.58841025590456,92.0299066182536,0.11505322778169472,0.16161929324375718,549.5,46.701899999999995,0.08498980891719744,73.25,0.7118780528768266,520.0,623.4000000000001,55.769230769230774,71.15384615384616,426.0,758.0,9.454545454545455,156.25,,,0.03934447174743482,0.09640415007550342,0.031161863780230017,0.16691048560316823,0.4081201039231232,0.23572198957575854,0.577579950876816,-2.339206027716525,65.07497104173186,65.49513055490429,0.9935848740263183,13389.762332967348,1.0064565455265895,4.833742978355663,263.6720113884078,0.625,0.6372549019607843,0.9076923076923077,0.25925925925925924,49.23585295332508,49.10357714277719,49.37279547661305,55.88235294117647,0.5527419274567743,0.4472580725432258,48.384388180567534,43.523432949231776,0.394579959962851,0.6054200400371489,41.141159209393145,50.96093744537403,0.4731574765318657,0.5268425234681343,44.9090414098346,47.38832325055192,0.5792730397859602,2.4516400765892867,0.9627465248663223,1.6727307464229757,-1.5021749098915844,-2.226066379892759,-0.21040438262684094,0.006223914938030994,0.5913543307588958,0.6687056068813635,1.6906633523566863,6.152174814211728,1.4397817810584712,1.2523557664633103,1.306144578325607,1.8334960043419408,1.6850866208295465,1.9697852860910163,4.556447841960914,1.09526418469614,Stress
107.1434040804837,561.5428571428571,61.12141582561281,,,,,,,86.81202061395025,87.22827648230354,0.10884550493011338,0.15459553889733688,548.0,38.547599999999996,0.07034233576642335,50.0,0.7040662732344108,521.0,595.4,50.476190476190474,66.66666666666666,463.0,758.0,8.75,117.1875,,,0.041570636756760475,0.10604868471732368,0.04344144115982194,0.1910607626339061,0.39199577880261693,0.21757809496664937,0.5550521376308168,-2.243857000525267,61.679705811851875,60.71148207106396,1.015947950993102,11764.216306441049,0.9843023936634622,4.777533111161504,239.0338285016185,0.6,0.6153846153846154,0.921875,0.22580645161290322,50.650695060632955,50.586968556654945,50.71617399003142,55.769230769230774,0.5755009709381993,0.42449902906180076,46.793545733681015,40.18845170550163,0.36649787786027027,0.6335021221397297,36.754165536625564,48.321996761014006,0.47265768528133645,0.5273423147186637,42.07436634474589,44.441686632355015,0.4901321037447743,2.737417753450643,1.0868387227223804,1.4481952155842555,-0.6861355126095994,-0.7582338290211703,-0.36799366212688267,0.007164265357171032,0.7132137751893626,0.6866783136790131,1.3604531299360032,6.1212487318900255,1.268743138872882,1.252690318693603,1.1977494126360622,1.438891928537088,1.6227528106012867,1.9705700373653539,3.2706326443914824,1.0231231265015044,Stress
107.14633724288154,561.2952380952381,60.527476883440784,,,,,,,87.16281184789055,87.58425741607176,0.10783536501902542,0.15528870714043214,548.0,42.9954,0.07845875912408759,54.0,0.6944185897658788,516.2,595.4,49.523809523809526,63.8095238095238,463.0,758.0,9.545454545454545,132.8125,,,0.03922872284906267,0.07747423716770396,0.026720127179632902,0.14342308719639954,0.5063453901991515,0.27351749021650856,0.5401796787543203,-2.5578098215303524,61.931422344092496,59.63749051107491,1.038464593552802,11603.26704477729,0.962960129992293,4.771550397443136,229.71410245983532,0.6,0.6153846153846154,0.890625,0.2857142857142857,50.25952839982203,50.12788434575013,50.39297550229317,54.807692307692314,0.5855946843853821,0.41440531561461796,47.39285309275909,39.86822955882716,0.3710016804503753,0.6289983195496248,36.325140172679326,47.298144423367695,0.4823467799648776,0.5176532200351225,42.223206491434574,43.741228801035575,0.44295368803876917,2.8210929600477135,1.0095376715505808,1.4719160430836484,-1.0163663737834092,-1.1259631450018035,-0.33609956209126585,0.006814762584738505,0.7290716640773716,0.6807723185793062,1.4685324593568627,6.1974392080805005,1.3062445642244653,1.3068365450123913,1.2573292800136626,1.467153512903704,1.794886283412815,1.963642683704059,3.8446051996986377,1.0870683219078485,Stress
106.78778186548904,563.4095238095238,59.163836283742825,,,,,,,80.05010450192573,80.42638426557764,0.10501035886596904,0.14208156078133477,556.0,40.0302,0.07199676258992806,53.0,0.7390850599366744,516.2,601.0,46.666666666666664,61.904761904761905,456.0,758.0,11.666666666666666,156.25,,,0.04008191718470661,0.09068954756337419,0.029687254357572274,0.16045871910565307,0.4419684325439734,0.24979581918708274,0.56518927777094,-2.400313170361059,56.870041700504984,60.244107611176915,0.9439934286611301,10763.363190294174,1.0593294080641051,4.738918104969295,255.27341942039314,0.5523809523809524,0.5673076923076923,0.864406779661017,0.1935483870967742,51.14716486397902,50.90831504411268,51.39354676771519,56.730769230769226,0.6014263978128366,0.3985736021871633,44.109913466469386,35.90866244842533,0.3923487236217459,0.6076512763782541,37.735551164398444,46.961480813387176,0.4908837499886601,0.5091162500113399,41.04665813254686,41.80198989893354,0.47335839939929364,2.7195165310409317,1.093219501125218,1.4792709388969913,-0.6487877469185754,-0.87697766104104,-0.358044092262235,0.008264151223097958,0.7550011490234394,0.567432617933056,1.4906543764441331,6.2808190890534865,1.2702553415639857,1.145097072617073,1.2793029725291558,1.4852119266993113,1.7945532733682978,1.9316093455835732,3.9525281032895103,1.0231231265015044,Stress
106.22090480152491,566.5673076923077,63.17501724836797,,,,,,,87.33925595668858,87.75787216635001,0.11150487575022094,0.1541551282096229,559.0,48.925799999999995,0.08752379248658318,64.25,0.7233290066003811,515.4,604.0,52.88461538461539,66.34615384615384,457.0,758.0,11.555555555555555,101.5625,,,0.04569560789348329,0.11228316592711468,0.029776616619279123,0.1877553904398771,0.4069675762718095,0.2433784073332153,0.5980289868858382,-2.1867313311713805,62.05418651132826,64.17166262774332,0.9670029413341146,12510.19994755915,1.0341230178890268,4.804234360936399,265.44557367823353,0.5865384615384616,0.6019417475728155,0.8709677419354839,0.21875,50.90962014262844,50.74859793915074,51.062871946387425,56.310679611650485,0.5956479516965149,0.40435204830348503,47.896948201934784,39.463249222734895,0.38038972261022497,0.619610277389775,39.57834946880147,50.51293436075884,0.4844192119141349,0.5155807880858652,43.93497122870004,45.32606632474308,0.3615410806506864,2.826922020510689,0.9198112611170195,1.2880580760011608,-0.8306617043739539,-0.6306483462672373,-0.3697357719058635,0.006735552547159303,0.7056803281487054,0.5565151062186962,1.6635051337043762,6.282076496945641,1.4134183105789173,1.2547430099858305,1.3007982905864135,1.3882668240262628,1.8398334579205482,1.991025165435804,3.7846445661499053,1.09526418469614,Stress
106.69366247401899,563.9238095238095,58.0672182173542,,,,,,,80.18086526002419,80.55628972364808,0.10296997083061189,0.14218386226275992,558.0,47.4432,0.0850236559139785,63.0,0.7242029383075864,518.6,604.4,51.42857142857142,66.66666666666666,457.0,743.0,8.75,101.5625,,,0.03539462168164388,0.10733683971351392,0.03088319689057089,0.1736146582857287,0.32975278363061056,0.2038688554937147,0.6182475648851196,-2.231783354501102,56.96189873081974,58.78409463071961,0.9690018888383523,10519.477373079744,1.0319897324439775,4.728964273769463,242.65832835967112,0.6095238095238096,0.625,0.8769230769230769,0.23333333333333334,51.155576237009456,51.06942673151913,51.23613897198459,53.84615384615385,0.5913286161052808,0.40867138389471935,43.80949491446111,36.42008141255435,0.3837462349285196,0.6162537650714802,36.41513275005164,46.14659129718591,0.48428680902919796,0.515713190970802,40.28233941731834,41.56879970871544,0.6228920836940318,2.0983360281965133,1.0569094949578643,1.4342949840274128,-0.41633936128218973,-0.9045239950301984,-0.3201501170458836,0.0048253880812485625,0.44056654609799795,0.576061957371873,1.9459101490553132,6.357009565243964,1.4784052348038978,1.445231963050955,1.183272886408072,1.475884673151641,1.8684008952895346,1.9753921300839097,3.283916136110307,1.0231231265015044,Stress
106.96764374355212,562.0857142857143,53.43977816299287,,,,,,,78.12477692275844,78.501956231601,0.09507407287677276,0.13899086017874984,557.0,38.547599999999996,0.06920574506283662,51.0,0.6840311136610157,525.4,597.6,44.761904761904766,61.904761904761905,457.0,723.0,7.0,85.9375,,,0.034660047384299196,0.11265353183822234,0.024166102216412418,0.17147968143893394,0.3076694251723349,0.20212334833758175,0.656949738260038,-2.1834382602809113,55.50926558777462,51.73301909924866,1.072994898698669,9021.591918698768,0.9319708800226382,4.662253288357979,192.85466934461888,0.6285714285714286,0.6407766990291263,0.8939393939393939,0.20689655172413793,49.636123056566326,49.486869227664464,49.78357442745203,55.33980582524271,0.5964897079535323,0.4035102920464677,42.87195883522156,35.261368062936846,0.3762742933254357,0.6237257066745644,31.733655200077166,40.85682798218483,0.4941282937003665,0.5058717062996334,37.71624137375248,38.16179025174097,0.5694936404251583,1.5512822030384232,1.0143601676147196,1.0246566694136443,0.48981568049172886,0.22488297212994435,-0.49336258626653656,0.003127834085365041,0.2619935214953405,0.5220351866750748,1.4880770554298328,6.20462861286301,1.3472810803036679,1.313739833996718,1.1617295827920222,1.5453165441775425,2.044423919612681,1.959691283938719,5.327892009144187,1.0870683219078485,Stress
107.91906787417096,557.5566037735849,55.52744155369174,,,,,,,79.8670919775622,80.24952842968496,0.09959068044011647,0.14324481395613597,548.5,42.9954,0.07838723792160437,58.75,0.6952480699972347,513.0,600.0,50.0,68.86792452830188,456.0,723.0,8.833333333333334,85.9375,,,0.03279544663280676,0.12299074372124742,0.03934674396338087,0.19513293431743503,0.2666497139584427,0.16806720376303233,0.6302920834530712,-2.095646180740268,56.74498573965286,54.7692696114609,1.036073443049504,9763.697446956061,0.9651825425200283,4.696584423194316,211.44937158221902,0.660377358490566,0.673076923076923,0.9285714285714286,0.25,50.25341729381048,50.123832982355545,50.3757907569264,54.807692307692314,0.5942317425858765,0.40576825741412337,43.74302142144416,36.146802709974864,0.3751767639243785,0.6248232360756213,33.54709479399655,43.29278605790465,0.4885849148985552,0.5114150851014447,38.97986334118113,39.88017471632584,0.5234382066138565,2.0017436421268835,0.9145125923216589,1.3170089947596852,-0.9309713794996561,-1.4998170751775843,-0.29892709837191356,0.002574441211816448,0.33321155644632533,0.5202509271989184,1.4469189829363254,6.275090265883954,1.482297102145109,1.1725712519169937,1.127862613168471,1.254936923693337,2.10053536357836,1.9838108322554164,4.485753602636629,1.0790061106374942,Stress
107.97274731383678,557.3867924528302,54.04840348370584,,,,,,,76.90724159351842,77.2638159344156,0.09696749943761859,0.1379782273905007,547.0,40.0302,0.07318135283363802,53.5,0.7027739178238961,519.0,597.0,45.28301886792453,67.9245283018868,456.0,723.0,7.571428571428571,85.9375,,,0.017552252204435216,0.06591436969897689,0.021682183076946634,0.10514880498035875,0.2662887058557075,0.16692773833914598,0.6268675113453677,-2.7193988081485476,54.63376818757449,52.94543894892652,1.031888095975115,9087.398675562497,0.9690973312905781,4.665409691475167,205.23713435765168,0.6886792452830188,0.701923076923077,0.9452054794520548,0.25925925925925924,51.180714988520826,51.03557680180576,51.3174487804799,54.807692307692314,0.5993066536134201,0.4006933463865801,42.3014025044815,34.588862702854556,0.3788536527011097,0.6211463472988902,32.588494119544585,41.72780315946328,0.49255656287624355,0.5074434371237563,37.75856593427342,38.32491995811496,0.5643339978377621,1.681043342551564,0.9373772611373953,1.12186692882107,-0.21166582675161294,-0.549820365739836,-0.39025287866543173,0.0019169963384573182,0.2355367517565778,0.5213025070842656,1.6441234704219905,6.055427883665613,1.331961297574173,1.1492512939789985,1.295508023833474,1.503702373546967,1.985328595134113,1.9793093226788745,3.555675346301809,1.205948006006611,Stress
107.4235516594742,560.3142857142857,58.08818135547723,,,,,,,85.93574298903177,86.34398473850264,0.10367071273477657,0.15337060856744236,552.0,42.9954,0.07789021739130435,59.0,0.6759490211528304,519.0,600.8,44.761904761904766,65.71428571428571,451.0,740.0,9.545454545454545,93.75,,,0.024099302516551933,0.0704364962206214,0.02446944982926232,0.11900524856643564,0.3421422672852441,0.20250621553971465,0.5918772244847642,-2.653043737922599,61.054417123262986,52.85404068991963,1.1551513626262324,10137.83356093762,0.8656874175575604,4.7129152668275,183.02031196935494,0.6857142857142857,0.6990291262135923,0.9444444444444444,0.2222222222222222,50.92099254072158,50.62209890010152,51.23630322954352,53.398058252427184,0.6045076070751983,0.3954923929248017,47.47421374676769,38.399534786826,0.3848047683404081,0.615195231659592,32.78675362572465,41.45574030140713,0.5104011125112269,0.4895988874887732,40.79688826484046,39.95686846952832,0.3349316177986888,1.530591404079943,0.8276272059112377,0.7298278112197631,0.5847317441275308,0.41681526985382933,-0.5638964745462314,0.0032016679798461344,0.26130977420164114,0.568312994164863,1.504077396776274,6.152154565202754,1.1529121795924546,1.2163314021173481,1.4556165883019632,1.5707081248175192,2.0290758901330683,2.0137310697984736,5.173660950843372,1.1510135173141924,Stress
107.96779679940131,557.2075471698113,53.104697484108755,,,,,,,76.15266621352512,76.50732326268194,0.09530505779011798,0.1366684040808896,554.0,38.547599999999996,0.06958050541516245,54.25,0.6973452161899103,519.0,603.0,37.735849056603776,61.32075471698113,423.0,698.0,8.153846153846153,148.4375,,,0.00964112396208445,0.024574018920557956,0.007383706664524406,0.04159884954716681,0.39232996414839366,0.23176419701590237,0.5907379455937773,-3.706065535594922,54.09884708947369,50.87924276482841,1.0632793286552393,8647.260087842127,0.940486637001332,4.643848631619955,191.4049916842713,0.6792452830188679,0.6893203883495145,0.9436619718309859,0.24,51.18138212826435,51.00092279141406,51.36710674656742,51.45631067961165,0.5493784887645156,0.4506215112354846,40.10365176159628,36.32068704873722,0.4671156676880347,0.5328843323119653,34.77385639291929,37.14130121424086,0.5107733195208677,0.4892266804791326,37.53347820979797,36.733285747257064,0.353943415179239,2.1242053642340806,0.9010106024574223,0.9996685570132791,-0.37035211246625366,-0.4284025840086627,-0.453555359469008,0.003264284128717375,0.3812791624354209,0.5231669610785383,1.5198257537444133,6.119153237459608,1.0793453372141943,1.3514189469692368,1.4079579711718875,1.8501384201943292,1.9491556993367072,1.9768778300226342,4.922081121952561,1.0155351629529357,Stress
108.10808654441355,556.5943396226415,53.42084100207776,,,,,,,77.44687887590466,77.81621063353468,0.09597805295378298,0.13914420856024498,551.5,41.5128,0.07527252946509519,54.75,0.6897739686537335,516.0,603.0,39.62264150943396,61.32075471698113,423.0,695.0,10.6,156.25,,,0.022455821922387178,0.040338273804828725,0.030617454070520432,0.09341154979773633,0.5566877261787807,0.2403966315836819,0.43183389947145756,-3.2104545385261076,55.024370225213104,51.91949953759601,1.0598016297396855,8975.020533339446,0.9435728082864202,4.660005560806111,195.95931193405985,0.660377358490566,0.6699029126213593,0.9565217391304348,0.16666666666666666,50.51903114186852,50.44820284980784,50.58448837583542,51.45631067961165,0.5366406686652101,0.46335933133478985,40.309619008561526,37.45638489270914,0.4581037407732572,0.5418962592267428,35.14086249886005,38.219814430091674,0.4996514898179316,0.5003485101820683,37.81365891962304,37.84002500198311,0.3489975285645766,2.6317627497762004,0.9488361403736622,1.2459035091162871,-0.9238257878928096,-0.9574662638992703,-0.38712228381229014,0.0046368909823710355,0.5814462226346804,0.5640222469260192,1.7147984280919266,6.190000171462691,1.1170720154529874,1.172993957841183,1.3975595973311346,1.9045104884342483,1.8017072372189413,1.951628937965161,5.1042450342243875,1.1424770583220525,Stress
107.455534972113,560.2924528301887,58.35620781131003,,,,,,,80.05593282794462,80.42674413502745,0.10415312131465816,0.1428824044007026,557.0,55.5975,0.09981597845601435,75.0,0.7289429496340838,516.0,610.0,42.45283018867924,63.20754716981132,423.0,757.0,10.6,156.25,,,0.026681304280978986,0.03542649444393423,0.013565553113410905,0.07567335183832412,0.7531454833388798,0.35258520513249514,0.46815019532401353,-3.340295308157328,56.870296166633295,59.30588275152583,0.9589317876761582,10595.784997251063,1.0428270423940842,4.732103247256407,247.3831132253761,0.6415094339622641,0.6538461538461539,0.9264705882352942,0.20689655172413793,51.24958895100294,51.17103585487227,51.31969921809363,48.07692307692308,0.5365396617826256,0.4634603382173746,41.6636601479404,38.72244677981215,0.49342588560730816,0.506574114392692,41.658990266186905,42.21038093809949,0.5140828266551105,0.48591717334488954,41.661325272495425,40.503975999615506,0.5463504139067584,1.6595179583525264,1.0798462962304258,1.132481242066922,0.47328066598072827,-0.03802199752463653,-0.4682829911110158,0.005003020314802902,0.3589886902740395,0.5900404700667186,1.575536360758419,6.1819364641770935,1.1155255323290558,1.4555943903027468,1.4011119445885007,1.7713136594602095,1.6812959311012086,1.9404543589036893,3.209052812906626,1.0155351629529357,Stress
106.37595942359646,565.9047619047619,59.510264759296874,,,,,,,86.46558897574847,86.88128902774022,0.10515950521249026,0.15279176779625697,562.0,45.9606,0.08178042704626334,72.0,0.6882537372871892,525.4,614.0,50.476190476190474,67.61904761904762,423.0,757.0,10.5,164.0625,,,0.02628649202431761,0.033396671974998085,0.05069738912562541,0.1103805531249411,0.7870991470047254,0.23814423175216023,0.3025593823324656,-3.399299025431146,61.434348629743496,57.44369219149729,1.0694707510259394,11086.730151492942,0.9350419345650207,4.7517735869895015,214.84904430118084,0.6190476190476191,0.6310679611650486,0.9076923076923077,0.17857142857142858,50.55317893494614,50.47442058931028,50.6290982425532,49.51456310679612,0.5284147980476763,0.4715852019523237,44.659499255885166,42.18970103931062,0.4923428119915213,0.5076571880084786,40.30659831224673,40.92866849882457,0.5115889789644475,0.48841102103555245,42.538763153688535,41.56396744100039,0.5039775883268537,2.47331430356705,1.0414004136714445,1.3759616319356787,-0.5477834943755386,-0.6824111057136617,-0.3647316203275398,0.005730930417789854,0.5810976624618865,0.6178721941527412,1.8225311278948086,6.227393941677898,1.3611312091281127,1.446927801767966,1.2717125626460155,1.4160052999845179,1.722852059243198,1.9394055617176134,4.623172515999251,1.1510135173141924,Stress
106.29820366819935,566.1826923076923,63.27943337156818,,,,,,,95.96581106416953,96.43464017074976,0.11176504374170969,0.1694961933100153,564.5,70.42349999999999,0.12475376439326837,83.5,0.6593955979724392,509.0,619.4,62.5,76.92307692307693,423.0,757.0,14.857142857142858,132.8125,,,0.013705617427460971,0.08334441982766339,0.04665274906317265,0.143702786318297,0.1644455316360826,0.09537475075189895,0.5799777580029535,-2.4847736207048006,68.1895880060218,58.507026494670264,1.1654939943364506,12533.603903918356,0.8580052791857832,4.805046075651998,200.79735040755833,0.6346153846153846,0.6470588235294118,0.9242424242424242,0.13793103448275862,49.81245311327831,49.77378195054699,49.849522166934015,48.03921568627451,0.5164921587396634,0.4835078412603367,49.00630211573633,47.41566300326524,0.48505506305887325,0.5149449369411268,40.74774198907941,41.984445596428486,0.5031622547968575,0.4968377452031425,45.06659585695046,44.78246738445013,0.43921862674671147,2.848282021366656,0.9059644311125452,1.7341552097845283,-1.4102320223130196,-2.1471384557531414,-0.20923146919468238,0.013235970466580085,0.9462525046337779,0.6042397756569775,1.858898772065683,6.339768804637948,1.5371148393860126,1.4458942480789043,1.1783399075068886,1.6197487702555193,1.8166490534456647,1.9823031331590932,4.951373113804208,1.09526418469614,Stress
107.66531256390255,559.0952380952381,62.64222645148027,,,,,,,96.19036614163363,96.65360829408218,0.11204213912623164,0.17204647721440305,551.0,53.373599999999996,0.09686678765880218,71.0,0.6512318121260079,509.0,615.0,62.857142857142854,80.0,423.0,757.0,13.125,171.875,,,0.02492809271758156,0.05990103606406746,0.05268091696804829,0.1375100457496973,0.4161546169405082,0.18128197530351292,0.4356120728306813,-2.815061477448256,68.34442185089382,56.74356936518638,1.2044434746613748,12183.430708088508,0.8302589710830113,4.792739707601659,188.44743006686852,0.6285714285714286,0.6442307692307692,0.9402985074626866,0.06060606060606061,49.54943834094556,49.51325757008156,49.58543833114463,49.03846153846153,0.5230907365819746,0.4769092634180257,49.43142744669099,47.198969463819886,0.4656231188745631,0.534376881125437,38.719872512785464,41.48016558423264,0.49964185281574025,0.5003581471842597,44.39985668233533,44.431671448089595,0.46274898161509354,2.869419114676327,0.8552258257820575,1.6507639919699888,-1.9172077979327735,-2.2913884649740126,-0.22275288677106736,0.007514720826018601,0.7459966293469832,0.5718022146753552,1.568615917913845,6.40948361290422,1.6099769266172563,1.2933436126244597,1.3314481816842747,1.7302824755862085,1.7105667517364038,1.9911661419808975,5.148173206605344,1.0231231265015044,Stress
108.0281971066222,556.9716981132076,58.83851306708975,,,,,,,88.89485495851399,89.3101338035052,0.10564004107643275,0.1596038995511862,545.5,42.9954,0.07881833180568286,60.0,0.6618888471616144,518.0,611.0,55.660377358490564,73.58490566037736,441.0,757.0,8.833333333333334,132.8125,,,0.05105110526169553,0.10892197086635343,0.02688055980366728,0.18685363593171622,0.4686942850523235,0.2732144065976412,0.5829266865652958,-2.2171235167171344,63.15180124113642,53.185460639569754,1.1873884419109788,10551.848324588516,0.8421843810359174,4.730298649866696,179.16785699538482,0.6226415094339622,0.6310679611650486,0.9230769230769231,0.09375,48.995489954899554,48.988255025555496,48.995312272492846,50.48543689320388,0.5421342322483763,0.4578657677516237,46.50429053820237,42.737458799224186,0.40255944520710046,0.5974405547928995,33.74488368168409,41.10931827156508,0.4842251759929837,0.5157748240070164,40.62859961376916,41.93129161716951,0.4506666817106556,1.8981673851425251,0.8289512475824607,1.2511541957980232,-0.4142710463628525,-1.0801722749059255,-0.27757338392796116,0.0046305324743755125,0.3900165081816431,0.598883074075089,1.4488147181012245,6.234857600728386,1.4808919052323704,1.187864217676003,1.1421147302961492,1.6448861852279242,1.6042886461294883,1.9919553322208143,3.654586141931805,1.1424770583220525,Stress
108.28222197411459,556.0934579439253,56.56679683319141,,,,,,,88.59506140671938,89.00949856941962,0.1017217448346523,0.15931685608078675,546.0,40.0302,0.07331538461538462,52.5,0.638487021003421,519.4,602.0000000000001,49.532710280373834,68.22429906542055,441.0,757.0,7.642857142857143,132.8125,,,0.023935901455166678,0.04324294558826387,0.024178410099703843,0.09135725714313439,0.5535215311896532,0.26200328472717827,0.4733389217291495,-3.140921166693577,62.93922002845091,49.129685636910715,1.2810833045747236,9714.382833980642,0.78058936247863,4.694385324541377,153.40043996036655,0.6635514018691588,0.673076923076923,0.9428571428571428,0.17857142857142858,50.801759614020156,50.63703505678181,50.95681719368691,50.96153846153846,0.5735604318734427,0.42643956812655726,47.66969687338068,41.10375953144733,0.3819716226919591,0.6180283773080407,30.364038615969122,38.623194711333845,0.5010277096374853,0.4989722903625145,39.96482729270867,39.882767063787426,0.3866327934515549,2.5358009089127407,0.4345100890094644,1.5671066585296467,-1.2278352648337538,-2.052982086077197,-0.05335745580839051,0.00854811961290093,0.719317947812659,0.6019217423885235,1.264597426142371,6.219277238915847,1.3187700980890829,1.081312295747097,1.2472603572894863,1.6459191124562786,1.6516720474389768,2.00869084334516,3.867637156601834,1.1340785584600062,Stress
109.4854630832277,550.018691588785,51.24064227655055,,,,,,,86.27030797288167,86.67138628382143,0.09316163806822043,0.15684977491161453,545.0,31.1346,0.057127706422018344,41.5,0.5939545537806311,519.4,577.2,43.925233644859816,61.6822429906542,431.0,677.0,7.642857142857143,156.25,,,0.018114911710833386,0.05170277075674055,0.023853981775773102,0.09367166424334702,0.35036636229929174,0.19338731576043272,0.5519574267670034,-2.9622439059301007,61.28592497612885,37.52319677873884,1.6332810164739027,7224.544139098791,0.6122645092385292,4.565780558744027,91.89648664318116,0.6822429906542056,0.6893203883495145,0.9436619718309859,0.19230769230769232,51.00432632880098,50.74273530327641,51.26441093539134,52.42718446601942,0.6023067211552112,0.3976932788447888,47.56784628296723,38.65260417518863,0.2431165838017923,0.7568834161982079,18.501507800992048,32.64482356493579,0.5043852839548055,0.49561471604519447,36.090204979399665,35.77504937180099,0.34706045472933084,2.3503955854521785,0.27023993936069823,1.3672191503630586,-0.7452531253099686,-1.4351749311252457,-0.033278900882840454,0.006568238198957379,0.600356766589564,0.7143580633996613,1.353958980476954,6.212222215531143,1.203507992186035,0.8622959080197692,1.3324725445510028,1.586383271751569,1.7302209820520396,2.006640262809538,5.718837235113494,1.0710741941011168,Stress
110.33703757703094,545.6481481481482,51.458778496861555,,,,,,,84.5000691256699,84.87610645737574,0.09430762052708379,0.15486182700784573,544.0,31.1346,0.057232720588235295,40.25,0.6089791290032107,514.8,571.8000000000001,38.88888888888889,57.407407407407405,431.0,677.0,8.307692307692308,140.625,,,0.02304101616811479,0.08176104394308686,0.046116542302947885,0.15091860241414956,0.2818092218117156,0.15267180983352752,0.5417559044094438,-2.503954384224123,60.0164704367217,39.31678019275991,1.5264848785296408,7413.072852985178,0.6550998402049236,4.576968378192798,103.0256656865965,0.6851851851851852,0.6923076923076923,0.9305555555555556,0.23076923076923078,51.63199999999999,51.52187004013348,51.745950632732075,51.92307692307693,0.5939846179621157,0.4060153820378846,46.26671039274391,38.251834337567125,0.3642735081022854,0.6357264918977146,23.729672181938593,31.34823540270692,0.5250301102868202,0.4749698897131799,36.76755249148567,34.97080706140628,0.30641107514739657,2.8546244631545914,0.909747946576521,1.4166261742101005,-1.2771087567181194,-1.5795469153829407,-0.32243610878558854,0.006613620435656799,0.7457178018711196,0.6645755464824838,1.34223437132586,6.24544722430556,1.1669630230290033,1.2211064810232162,1.264605008795005,1.5874115988879838,1.6909748088265866,1.9988929996455191,3.356730123909071,1.2509050929932348,Stress
109.36961193370242,550.0841121495328,72.88814401291667,,,,,,,84.95276156849292,85.34730747411872,0.1325036342680318,0.15443594841619365,544.0,34.099799999999995,0.06268345588235293,46.0,0.8579843982370228,509.6,572.4000000000001,38.31775700934579,60.747663551401864,424.0,926.0,8.23076923076923,148.4375,,,0.005197016499873047,0.08888333362203416,0.03728752219076238,0.13136787231266958,0.05847008981428109,0.03956078764451321,0.6765987151750644,-2.4204306273555485,60.34965987096266,83.40812232463618,0.7235465586441722,15813.683555719139,1.382081067283167,4.906003153935096,461.10714689007244,0.6542056074766355,0.6601941747572816,0.9117647058823529,0.2692307692307692,51.057645729048915,50.82749258319895,51.26035492947626,52.42718446601942,0.583310566419041,0.416689433580959,46.09679257512702,38.96072503481032,0.6058655745896118,0.3941344254103882,64.92268651954272,52.36372451236312,0.5981140303081709,0.4018859696918289,56.30217362868462,46.15136910236116,0.8305762631614501,1.0936660977407162,1.4962540892812073,1.377409312031808,0.14307660940522293,-1.0067276693500533,-0.6086664179267396,0.009091783037264685,0.30972361126333775,0.7043094973091026,1.2008429113170083,6.2600672200055705,1.0561812511664055,0.7673798815238791,1.3471673984886388,1.3879591922787011,1.3201711164094079,1.9590954367407305,2.4466204203494675,1.0710741941011168,Stress
108.85474852545583,552.8785046728972,71.45373358352887,,,,,,,83.31617433404139,83.70594790267722,0.1292394856729029,0.15069526782079226,548.0,34.099799999999995,0.06222591240875911,44.5,0.8576213941010761,512.6,572.6,40.18691588785047,57.943925233644855,424.0,882.0,8.916666666666666,156.25,,,0.057696642129240056,0.030309275912082743,0.007640002374620215,0.09564592041594301,1.9035968492483644,0.6032316054707831,0.31689042021107,-3.496301477604488,59.18904338763093,82.05927667053203,0.7212961872095817,15258.74720838961,1.3863930209705064,4.890488988087984,455.06563392765406,0.6448598130841121,0.6538461538461539,0.8970588235294118,0.28,50.86291110387495,50.69236904305391,51.01979626764943,51.92307692307693,0.5765634513351308,0.42343654866486913,44.94652907834459,38.518270247470134,0.48421377895928025,0.5157862210407196,57.10133426060181,58.933543193583276,0.5158208009814409,0.4841791990185589,51.384593267493386,49.78363012179349,0.8444490722092189,1.1455271800514133,1.1061375775857742,1.4172126622349257,0.24181255285563097,-0.7938484302424842,-0.22844373309833665,0.005671178238758145,0.23504930874205218,0.6599216123557872,1.0704414117014134,6.211047477035135,0.9948599354398364,0.9087644941154606,1.2608608012658002,1.3136619659868447,1.3825604229002548,1.8788000298237146,2.5848191317979623,1.1340785584600062,Stress
108.6735495723572,553.6448598130842,72.42149325713582,,,,,,,86.11526939307285,86.5242203132084,0.13080857154816902,0.1555424345891086,549.0,35.5824,0.06481311475409836,48.5,0.8409831818160861,509.6,578.8000000000001,43.925233644859816,59.813084112149525,424.0,882.0,8.916666666666666,156.25,,,0.04029075486730724,0.023571128675433428,0.008486812220727504,0.07234869576346817,1.7093264994687984,0.5568967683817142,0.32579894394358194,-3.747732677078206,61.18186292034847,82.72502785495375,0.7395810494935333,15900.452778841542,1.3521168514049977,4.908379601361025,447.41561678252316,0.6261682242990654,0.638095238095238,0.8955223880597015,0.2692307692307692,50.131926121372025,49.97987573847546,50.27987537105546,55.23809523809524,0.5811375192569701,0.41886248074302973,46.640468836980325,39.59671703563315,0.47441077363461653,0.5255892263653834,56.9789174295025,59.97360421189317,0.5121472247125078,0.48785277528749227,52.06692983445153,50.81699126357645,0.9343439002730497,1.5718809887761602,1.3522801600132501,1.7202843946611297,-0.13164464480788496,-1.22384026339577,-0.26588288981444996,0.011495749995104778,0.4618801291982472,0.5943566363314328,0.9255931245364686,6.234320607835818,0.9855480081318853,0.8107266967701156,1.1709362926439761,1.2566917407156457,1.3717945527160018,1.8999788429458464,2.681480739746991,1.1340785584600062,Stress
108.28626910359468,555.3301886792453,69.07480027003345,,,,,,,75.99461133778469,76.35909357870332,0.12438509859209283,0.13684581333228873,551.5,31.875899999999998,0.05779854941069809,42.25,0.908943398144459,515.0,574.0,36.79245283018868,52.83018867924528,424.0,882.0,6.625,156.25,,,0.04709800362423719,0.027648496032742578,0.007601881098834418,0.08234838075581419,1.7034562591926028,0.5719360015577701,0.3357503302308766,-3.588183945522349,53.99403287475928,81.25220594356789,0.6645239012004149,13782.588820790204,1.504836768389476,4.846300909898134,489.0852280665395,0.6320754716981132,0.6407766990291263,0.8939393939393939,0.25,49.9813571961223,49.879677117223686,50.08454114647491,53.398058252427184,0.5627347895922454,0.43726521040775473,40.50397653792298,35.70411256208665,0.49542762304479854,0.5045723769552013,57.19068118182816,57.716089235623514,0.5160453209080412,0.48395467909195894,49.55474815507657,47.989220719348054,1.0354500184697006,0.8831936445610951,1.2953683463940406,1.4770468407502482,0.6604606626279392,-0.3933121194328084,-0.29429370277399014,0.0063486592148080355,0.19124862160618028,0.4945995485879231,0.7808979291174538,6.042739412269892,0.8592126235704856,0.9610788227334351,0.942948685112329,1.0078077786618567,1.238594459000584,1.8520280524950667,2.9456864927376394,1.1424770583220525,Stress
