PPG_Rate_Mean,HRV_MeanNN,HRV_SDNN,HRV_SDANN1,HRV_SDNNI1,HRV_SDANN2,HRV_SDNNI2,HRV_SDANN5,HRV_SDNNI5,HRV_RMSSD,HRV_SDSD,HRV_CVNN,HRV_CVSD,HRV_MedianNN,HRV_MadNN,HRV_MCVNN,HRV_IQRNN,HRV_SDRMSSD,HRV_Prc20NN,HRV_Prc80NN,HRV_pNN50,HRV_pNN20,HRV_MinNN,HRV_MaxNN,HRV_HTI,HRV_TINN,HRV_ULF,HRV_VLF,HRV_LF,HRV_HF,HRV_VHF,HRV_TP,HRV_LFHF,HRV_LFn,HRV_HFn,HRV_LnHF,HRV_SD1,HRV_SD2,HRV_SD1SD2,HRV_S,HRV_CSI,HRV_CVI,HRV_CSI_Modified,HRV_PIP,HRV_IALS,HRV_PSS,HRV_PAS,HRV_GI,HRV_SI,HRV_AI,HRV_PI,HRV_C1d,HRV_C1a,HRV_SD1d,HRV_SD1a,HRV_C2d,HRV_C2a,HRV_SD2d,HRV_SD2a,HRV_Cd,HRV_Ca,HRV_SDNNd,HRV_SDNNa,HRV_DFA_alpha1,HRV_MFDFA_alpha1_Width,HRV_MFDFA_alpha1_Peak,HRV_MFDFA_alpha1_Mean,HRV_MFDFA_alpha1_Max,HRV_MFDFA_alpha1_Delta,HRV_MFDFA_alpha1_Asymmetry,HRV_MFDFA_alpha1_Fluctuation,HRV_MFDFA_alpha1_Increment,HRV_ApEn,HRV_SampEn,HRV_ShanEn,HRV_FuzzyEn,HRV_MSEn,HRV_CMSEn,HRV_RCMSEn,HRV_CD,HRV_HFD,HRV_KFD,HRV_LZC,Labels
112.34263503971522,534.1090909090909,27.939431690760443,,,,,,,15.284158615611,15.352097059745233,0.052310346643240205,0.028616173878628984,529.0,24.462899999999998,0.04624366729678638,31.75,1.8279993288098664,510.6,552.0,0.0,14.545454545454545,491.0,619.0,7.333333333333333,85.9375,,,0.029880498585094235,0.016828113996098473,0.0013013509860213945,0.048009963567214105,1.7756296749607177,0.6223811968376406,0.35051295076571054,-4.084704339085075,10.855571936379912,38.117569656888406,0.28479181737176024,1299.9534020486092,3.5113368397611815,3.8208978948871946,535.3745063135809,0.45454545454545453,0.45794392523364486,0.6530612244897959,0.13333333333333333,51.193225558121625,51.217411522045744,51.166501800127804,42.99065420560748,0.4427208105879119,0.557279189412088,7.224251851563234,8.105210943858552,0.5782956942820451,0.4217043057179549,28.98679385703875,24.753078564842813,0.5681213849093323,0.4318786150906676,21.123731120771186,18.417509914232774,1.4064795464360527,0.9389256711855369,1.7916398522019765,1.8759423820288212,-0.6313526799038378,-1.6729872824719914,-0.41021384076079226,0.001240780282709642,0.10048484253341748,0.777915032738902,1.4484261422268967,5.88918730000268,1.0021361750953433,1.279957768271058,1.1598034073004915,1.6597201645853676,1.720305565413013,1.6207735919535562,2.1559917136025097,0.863082145357684,Relax
110.83059501789096,541.4587155963303,31.915261677834664,,,,,,,15.897530672449777,15.965139745362647,0.05894311192809058,0.02936055919783503,538.0,25.2042,0.046847955390334574,34.0,2.0075609436088975,515.0,559.8,0.0,17.431192660550458,493.0,639.0,7.785714285714286,62.5,,,0.04226401186235609,0.021269146234237195,0.0012503147724572449,0.06478347286905053,1.9871042963785361,0.6523887959477884,0.32831130058787344,-3.850497790009676,11.289058576536798,43.74036164413967,0.2580924837426283,1551.2791973871822,3.874580094309168,3.897660078615109,677.9021381770712,0.43119266055045874,0.4230769230769231,0.5909090909090909,0.10344827586206896,51.82427401340283,51.90194566552777,51.745321024521964,45.19230769230769,0.5176039567686389,0.48239604323136104,8.125188710964506,7.843980965248295,0.48278793650013957,0.5172120634998604,30.39209053993806,31.45695581858378,0.4849639182519107,0.5150360817480892,22.245200144936632,22.9245295126804,1.5288359902064672,1.214451158726671,1.5597800941329092,2.1360615695698026,-0.8805414923120054,-1.9000089798025017,-0.025479908108355945,0.0026589407529873867,0.17109841036925194,0.6986807011406531,1.182199004776375,5.8807617930961875,0.9362470746807391,1.2925076977884558,1.0233097329200793,1.3959753060138858,1.7202976439690598,1.5550780649457465,1.9513344144746458,0.8693080784117153,Relax
110.51111201524274,542.9816513761468,30.15975416547324,,,,,,,15.079726395002933,15.149957132205019,0.05554470227315338,0.02777207361756052,539.0,22.238999999999997,0.04125974025974025,29.0,2.0000199854731764,521.0,557.0,0.0,14.678899082568808,501.0,639.0,7.266666666666667,62.5,,,0.041698721449863675,0.025442721442414485,0.0006233568905981342,0.06776479978287629,1.63892536198386,0.6153448631659746,0.3754563065770865,-3.67132557129395,10.71263742286767,41.37403104352518,0.2589217717654355,1392.4323828127679,3.8621703890777015,3.850744224770363,639.1742302923382,0.43119266055045874,0.4230769230769231,0.6136363636363636,0.10344827586206896,50.198570293884025,50.20981369368863,50.18749423295979,44.230769230769226,0.498961684107659,0.5010383158923409,7.567144920178987,7.582875444051551,0.4881682047324663,0.5118317952675335,28.907636217368314,29.59998332963855,0.48884634814220046,0.5111536518577995,21.129518616365765,21.606237677056136,1.4574910987271144,1.541015518345282,1.4736996699980995,1.809219451567874,-1.3273952686569181,-1.0737741792769535,-0.2822735867513845,0.001180628154006451,0.11644448012806805,0.7174618169166616,1.0911773101805917,5.7568189031482335,0.9183885185285794,1.4190640855169072,1.1076562329880397,1.3242347293464511,1.6473165296220587,1.5950226420666194,2.001040131240436,0.7451212100671846,Relax
111.70303694957383,537.1272727272727,25.665136846985227,,,,,,,14.350782352486585,14.416490633113584,0.047782226206221225,0.0267176572130107,535.0,20.7564,0.038797009345794393,24.75,1.7884137754021603,517.8,550.0,0.0,14.545454545454545,501.0,639.0,5.7894736842105265,54.6875,,,0.03376384827113276,0.026444326086604516,0.0005077775960233774,0.06071595195376065,1.2767898928699106,0.556095180667615,0.4355416531514433,-3.6327136583735338,10.193998287586957,34.91820693665533,0.2919393400147882,1118.2691998210323,3.425369119315488,3.755516473372321,478.43099097074816,0.43636363636363634,0.42857142857142855,0.6,0.0967741935483871,49.42434210526315,49.39727468469755,49.452003745691684,45.714285714285715,0.5036083392729863,0.4963916607270135,7.234498114103214,7.182476102498564,0.4072040636443806,0.5927959363556194,22.282195795261362,26.88465968192122,0.41477574580647675,0.5852242541935233,16.565539719872184,19.677053757812466,1.541964530739571,0.8551747185660457,1.6530573336541239,1.9019707526628133,-0.8870792683332276,-1.8870792683332276,-0.20893267351721212,0.001031988639857556,0.068575891239381,0.7855647393566283,1.2459370034249682,5.678775963386985,0.9932117322320418,1.3571324419506166,1.0213979345724276,1.7975142802421844,1.6646326810511234,1.6325431148977223,2.033946525930754,0.9247308700260899,Relax
111.42317097102207,538.5727272727273,26.900584588617054,,,,,,,14.567778948289906,14.624615372297205,0.04994791460168924,0.027048861204055998,535.0,22.238999999999997,0.04156822429906541,29.0,1.8465810528910367,517.8,554.4,0.0,16.363636363636363,501.0,639.0,6.470588235294118,62.5,,,0.047847024199419684,0.04707029232963534,0.000841322722914241,0.09575863925196927,1.0165015306118104,0.49966274137960576,0.4915513910528688,-3.0561132130586213,10.341164701996377,36.549318753229564,0.2829372763913038,1187.4042917871484,3.5343522520411716,3.7815687242807408,516.7126681841901,0.4,0.3846153846153846,0.525,0.03225806451612903,52.419354838709666,52.484682982750165,52.352715659496354,44.230769230769226,0.5444406017637904,0.45555939823620956,7.635807459303538,6.984771795630623,0.45046868306186505,0.5495313169381348,24.530793039169932,27.094148707693144,0.45744309605389577,0.5425569039461042,18.166801626678037,19.784841814273207,1.4167298098411114,1.4014702745183483,1.4167298098411114,1.904348693291562,-1.2222685669980518,-1.492022857833052,-0.15206619625376386,0.0011638571617523473,0.12357736736464232,0.7444013509131122,1.244940242814159,5.774141645165831,1.0063483105758615,1.2742013364050007,1.1861387434506026,1.7190442335006944,1.725357924927118,1.6387207865631157,1.879746068266832,0.863082145357684,Relax
110.11298716283555,544.8981481481482,26.02979594450226,,,,,,,14.78285189942637,14.850563447319912,0.04777002093504128,0.027129568983976754,540.0,22.9803,0.042556111111111114,30.25,1.760810168538069,523.4,560.6,0.0,16.666666666666664,507.0,639.0,6.352941176470588,70.3125,,,0.05644407136528248,0.035652218618377425,0.0005681833005535762,0.09266447328421348,1.583185382358999,0.6091231014950194,0.3847452789056236,-3.3339439007236757,10.500934118040982,35.337499158319616,0.2971612131066359,1165.7719934704917,3.3651767320022055,3.77358372757129,475.66771973889877,0.4074074074074074,0.3921568627450981,0.525,0.0,50.997605746209096,50.97279858001724,51.02114788781675,46.07843137254902,0.5323097977162897,0.46769020228371044,7.662392847599462,7.1822632686624175,0.43961338097502595,0.5603866190249741,23.429944651681996,26.45328978375576,0.44713647255870187,0.5528635274412981,17.43092898459266,19.382484954769527,1.4460569644693329,0.5346714987444408,1.4925129037298026,1.5254830052558601,0.5489857549707295,0.15364450331912494,-0.4383357788782821,0.0001126093731461301,0.013809349406751452,0.7163882494096594,1.2738163776932,5.737170807735366,1.0407875468221166,1.1403961300843335,1.1602240411078142,1.6846732158348185,1.7816710941814369,1.6008020923686626,2.3039639497933124,0.8130883104456026,Relax
110.39084340682551,543.8073394495412,30.562164052298932,,,,,,,16.55909730944606,16.590918207808546,0.056200352285121616,0.030450301252292207,540.0,26.686799999999998,0.04942,35.0,1.8456419139988318,519.6,562.0,0.9174311926605505,19.26605504587156,481.0,641.0,7.785714285714286,109.375,,,0.016985634030866698,0.040367457473715736,0.0014186018430268272,0.05877169334760926,0.42077542391483214,0.2890104583239415,0.6868520400622049,-3.209731326687328,11.731550770852785,40.58807498617568,0.28903934899224853,1495.9040955346472,3.459736549665485,3.881873861167233,561.6961860409417,0.4036697247706422,0.4,0.5238095238095238,0.0,54.845814977973575,54.64589660751618,55.06114823912714,45.714285714285715,0.612716958195448,0.387283041804552,9.208133341028908,7.320755285073067,0.4610848059717278,0.5389151940282725,27.560612162912992,29.79604819919769,0.472835076271642,0.5271649237283581,20.547226849634427,21.6955980124176,1.4479790650790179,0.6226551091491155,1.4899324673550842,1.53791484424281,0.3674087970538622,0.06007107911434861,-0.42293907785757057,0.00011490242538383245,0.016650274132459557,0.7385427920581424,1.2578520380028393,5.8548918933857825,0.9564461018015342,1.1781649447146645,1.1828410811822228,1.7908501544607223,1.7274099265295675,1.6029804127354854,1.9939034347095586,0.8693080784117153,Relax
109.73306762696623,546.8333333333334,30.846772351187425,,,,,,,15.567759639296717,15.641020089302431,0.05640982447641711,0.02846892954458406,544.0,27.428099999999997,0.05041930147058823,37.0,1.9814522491292104,520.4,566.6,0.9259259259259258,15.74074074074074,481.0,637.0,7.714285714285714,117.1875,,,0.04273264132655864,0.03740729679134324,0.0006642700000652926,0.08080420811796717,1.1423611164666618,0.5288417809153291,0.46293748385890765,-3.285889492218635,11.059871369820769,42.36785237036643,0.2610439460829606,1472.0969023288549,3.8307726151297024,3.8749065087958514,649.206434489031,0.4537037037037037,0.4519230769230769,0.574468085106383,0.03571428571428571,50.000000000000014,49.99574795341364,50.004607221474416,49.03846153846153,0.5318139750115687,0.46818602498843126,8.065474988644675,7.567619700046263,0.3910435660202141,0.6089564339797859,26.494090927751046,33.062033518663426,0.40002423817525434,0.5999757618247454,19.583012292295496,23.982982803581294,1.5537608234319111,1.2563646747306922,1.6943183184878472,1.8474176596326997,-0.32628348339799196,-0.34120932526051284,-0.37814100139541884,0.0003591901489138217,0.07815252321771696,0.7520541026846934,1.3627638637096966,5.990727085376609,0.9286064105488931,0.9217649610219907,1.2382319529300698,1.71684528880016,1.8002539505693538,1.4901912264540371,2.140430194087874,0.8130883104456026,Relax
110.60318012965978,542.4587155963303,34.018658309078674,,,,,,,15.456330358404875,15.528251701333456,0.06271197665555363,0.028493099869201247,540.0,34.099799999999995,0.06314777777777777,48.0,2.2009531059602345,513.0,566.4,0.9174311926605505,14.678899082568808,481.0,637.0,8.384615384615385,31.25,,,0.03746839869968787,0.011320520429470656,0.0007893140857366994,0.049578233214895226,3.309777048954973,0.7557429192218755,0.22833650365074995,-4.481138232929024,10.98013207798443,46.899413568585146,0.23412088217110041,1617.8000675283563,4.271297761765561,3.915894959169878,801.2854408144607,0.5137614678899083,0.5142857142857143,0.6666666666666666,0.1111111111111111,49.71842316975058,49.69648965700677,49.74068966883854,50.476190476190474,0.5351730553079338,0.46482694469206626,8.032643679759566,7.486124235862397,0.4023694254421146,0.5976305745578856,29.749515606019582,36.25632792057665,0.40927058686143086,0.5907294131385692,21.789413063214713,26.17788542223333,1.5778651151437109,1.2955457615139645,1.7144599613458307,2.0281771434642013,-0.6904496082121554,-1.1053922539303596,-0.25784940104951354,0.0005234308710178511,0.09939692655799304,0.7747856606322285,1.4766784225881595,6.052229278746579,0.8378035949546072,1.28164427649181,1.2895267099411751,1.6364747110421556,1.7816207755739828,1.4458872326838381,1.997206663706386,0.6830277758949191,Relax
109.52594508293471,547.9166666666666,36.77110939285499,,,,,,,16.39979484713261,16.47487306252706,0.06711076999456424,0.029931184511877013,548.5,34.8411,0.06352069279854147,46.5,2.242168864647972,514.4,572.6,0.9259259259259258,16.666666666666664,481.0,644.0,9.818181818181818,125.0,,,0.04369819672629888,0.010042763432873504,0.0006085005311052727,0.05434946069027766,4.351212394713917,0.804022637415349,0.18478128955325607,-4.600902960272694,11.649494461700469,50.82069277684496,0.22922738406683504,1859.9339974687364,4.362480530286178,3.976467642865882,886.8171310985662,0.4722222222222222,0.47619047619047616,0.68,0.125,51.07526881720431,51.120435822067925,51.028242037314264,50.476190476190474,0.5641462228090903,0.43585377719090973,8.751010723296211,7.691884966614012,0.3979787224640032,0.602021277535997,32.06051599234712,39.43179083712679,0.4062761486638733,0.5937238513361269,23.499541212274664,28.408020196438706,1.6432532575932686,0.723714783766634,1.7019293783565619,1.771410695992023,0.004330085784896909,-0.37700501439120426,-0.40399350794820044,3.478414605298056e-05,0.018868759155815835,0.7141974106574693,1.2095129847015513,6.009245603895127,0.8025486819236259,0.9623101960282314,1.2029987945967517,1.5100590273919778,1.8021885219647285,1.3776569608701021,1.9727344477384299,0.6879978011462792,Relax
110.23629304690165,544.324074074074,36.700054420419484,,,,,,,16.209493007228875,16.27250418722836,0.06742316970427653,0.029779121996031752,541.0,34.8411,0.06440129390018484,46.5,2.2641087172839103,514.0,571.0,0.9259259259259258,14.814814814814813,481.0,644.0,9.818181818181818,140.625,,,0.05026770173011498,0.010314172071669559,0.0006847334320371701,0.061266607233821706,4.873653588559739,0.8204747088127499,0.1683490001707767,-4.574236400181544,11.506398057675662,50.628226650788015,0.22727238970943828,1830.130178431937,4.400006535234982,3.969452092459374,891.0581125233006,0.4537037037037037,0.4622641509433962,0.6326530612244898,0.125,47.31182795698925,47.2946210330985,47.3378845616795,56.60377358490566,0.5426477911360887,0.4573522088639112,8.483057476579031,7.787871557506994,0.36169748496869525,0.6383025150313045,30.448468977354395,40.44883274877841,0.3705987864931885,0.6294012135068117,22.3502967230399,29.126954991338135,1.642577449954455,1.1688601265009897,1.7691316478021568,1.7711015382166986,-0.1931059537585469,-0.004362171123219127,-0.49831469106535553,5.3894612148744336e-05,0.05210629252694042,0.6836676423321455,1.0887599922250981,6.064801159450683,0.7910879157511125,1.1232181703305217,0.9232653475861134,1.3166213944519658,1.7861189763417742,1.401681081708907,2.1977942328133735,0.6879978011462792,Relax
110.34053096241387,543.7407407407408,39.10956819858562,,,,,,,17.048309588140523,17.12851420707545,0.07192686747236644,0.03135374694365466,536.0,34.099799999999995,0.06361902985074626,50.25,2.2940437582029705,513.0,571.6,0.9259259259259258,19.444444444444446,481.0,644.0,9.818181818181818,117.1875,,,0.03055188469870763,0.007325873857505169,0.0004271238520133795,0.03830488240822618,4.170408239749857,0.797597663219727,0.19125169944215514,-4.916342833241517,12.11168854747317,54.189580809528934,0.223505854198145,2061.913103459762,4.474155737833464,4.0212404685411345,969.8104956389761,0.4351851851851852,0.44339622641509435,0.6170212765957447,0.12,49.8913830557567,49.887204638267825,49.89643396968664,54.71698113207547,0.5656451975947778,0.43435480240522195,9.109139097320867,7.982291721809939,0.3871859146716333,0.6128140853283669,33.719068330153654,42.420927609599666,0.39567669171789466,0.6043233082821052,24.697692039418488,30.522549700106726,1.6738424273022656,1.0264125438174823,1.7525377787569965,1.8233307319225354,0.053500502234482994,0.14123588284760658,-0.43102875292010523,0.0003362618210379854,0.04864660108482089,0.6977809725700079,1.1786549963416462,5.990727085376609,0.79701572296336,1.5560292753350182,1.095113487790708,1.5263510462119245,1.8485735344868197,1.4259463589466086,2.510780207696403,0.5629072918469556,Relax
109.20545234548004,549.3518518518518,39.00259153019585,,,,,,,16.70217401485297,16.753952941445448,0.0709974698341674,0.03040341806175832,542.0,35.5824,0.06565018450184502,48.0,2.3351805277271978,517.4,578.8000000000001,0.0,21.296296296296298,483.0,658.0,7.714285714285714,70.3125,,,0.03950778172213253,0.01064445117631739,0.0003146397961021658,0.05046687269455209,3.7115846620662363,0.782845847438401,0.21091957175041007,-4.542716538911089,11.84683373657638,53.5646345625952,0.22116894539310758,1993.5645965364063,4.521430430581434,4.006600422428123,968.755074857168,0.39814814814814814,0.4056603773584906,0.5813953488372093,0.125,46.466060181945416,46.56072161845697,46.379073672224806,52.83018867924528,0.4705685282589031,0.5294314717410968,8.139700054739858,8.633797126999722,0.46180766961274977,0.5381923303872502,36.4006146436992,39.29586911349946,0.46221747609960906,0.5377825239003907,26.374793491326344,28.44914570084196,1.5148509151055043,0.783045999644985,1.5642859047020627,1.8120022244913256,-0.21207429845466308,-0.941557825912037,-0.1836503603855051,0.0002795974336495641,0.03883799703535174,0.6697571198506558,1.1151415906193203,5.989802405097812,0.8386509175167878,1.1736235654254785,1.0192836740451487,1.461270765911825,1.7596876085355704,1.494729478995768,1.970873306204036,0.4378167825476322,Relax
108.80866547999608,551.5046728971963,41.367969979468214,,,,,,,17.47127021767072,17.55057382279662,0.07500928280834249,0.0316792786648382,542.0,40.0302,0.07385645756457565,55.0,2.367771173135883,517.2,584.8,0.0,24.299065420560748,483.0,658.0,8.916666666666666,78.125,,,0.058157194353811115,0.014592202090590414,0.0002652417439402514,0.07301463818834178,3.9854981443351174,0.7965141757436943,0.19985310415357704,-4.227267996336085,12.410129763814597,57.39561954415286,0.21622085208554684,2237.7158779360025,4.624900837983722,4.05677505342409,1061.7961957053897,0.32710280373831774,0.3333333333333333,0.45714285714285713,0.04,51.28726287262872,51.31129388856208,51.25657143201964,50.476190476190474,0.5265483990604524,0.4734516009395475,9.007140024923084,8.540937831855413,0.4688035744744821,0.5311964255255177,39.29833996251653,41.831777622372435,0.4713836912241939,0.5286163087758062,28.50866618449638,30.189776730668598,1.648076771688433,1.3185177129583678,1.7454000264510932,2.167643709765068,-0.8639827838202496,-1.4725098957713474,-0.17975880857407395,0.001055828228007748,0.12443776229406762,0.7338396485032441,1.1583315233697322,5.984274930245506,0.826201407185416,1.5802229038149798,1.178051950287774,1.486831230700105,1.7529561953979145,1.4808166570237167,2.1249009930937977,0.5040349148711138,Relax
107.00601805261898,560.688679245283,37.16741102159952,,,,,,,17.992061741620546,18.077534476450396,0.06628885582571213,0.03208921886177339,551.5,34.099799999999995,0.06183100634632819,49.75,2.065767200855095,529.0,592.0,0.0,27.358490566037734,492.0,658.0,8.833333333333334,132.8125,,,0.0382658389175901,0.008507775696328771,0.000136821243779775,0.04691043585769864,4.497748916218179,0.81572124023039,0.1813621114529152,-4.766774745845843,12.78274721543168,51.13995645794144,0.24995616149858235,2053.6878192736986,4.000701539040363,4.0195045372119065,818.3828100309739,0.3584905660377358,0.36538461538461536,0.5,0.08,49.40789473684211,49.37289283818691,49.44360735772946,50.0,0.5132980288320094,0.4867019711679906,9.158592014731722,8.918164264362584,0.49433061838284875,0.5056693816171511,35.955812701605936,36.365844957695934,0.49544607546565655,0.5045539245343433,26.23642767913797,26.47648327604454,1.5896236468551739,0.707533461461618,1.5996246790313329,1.9004610639609596,-0.25539018586732354,-1.0909068340224914,-0.07480967146322538,0.0005129407938203024,0.04254746077244705,0.6902690943062457,1.2276044088592128,6.0176920346090075,0.9109781201030529,1.0789610927818294,1.1670750849749167,1.3569734524480384,1.7350154783438212,1.5388770664973543,2.2948804180663775,0.6347094768455848,Relax
107.32903782382378,559.2358490566038,35.5970977647369,,,,,,,16.62871870332425,16.690925568613515,0.06365310418634106,0.029734715203569063,549.5,31.875899999999998,0.05800891719745223,51.0,2.140699978142073,530.0,590.0,0.0,22.641509433962266,492.0,658.0,7.571428571428571,78.125,,,0.05277056181559995,0.010324702940992232,0.0002892221902707326,0.06338448694686291,5.111097347516378,0.8325469583723076,0.1628900609331702,-4.573215911397139,11.802266653846546,48.86498836500514,0.24152807661975803,1811.8118467357483,4.140305400495189,3.965083204976322,809.2639008910614,0.3867924528301887,0.3942307692307692,0.5853658536585366,0.07692307692307693,52.828854314002825,52.89796955752967,52.75402863208647,44.230769230769226,0.5303092925535577,0.46969070744644215,8.603722360788872,8.097067370350823,0.5328715188973061,0.4671284811026939,35.670488254845765,33.39765494122302,0.5327300074474964,0.4672699925525035,25.946172846882718,24.29985448076797,1.613642246637613,0.4731490269521821,1.5638731475201122,1.6985360655550945,-0.04737428921541209,-0.6233460472952155,-0.21539005606241737,0.0002709596034311202,0.012485955368668674,0.6913007635941599,1.1141164752040749,6.01057045439992,0.8987846580757648,1.0180050276866757,1.2466385706646632,1.4966546887723287,1.5782344585914259,1.5007999444531077,1.9640313102012508,0.6347094768455848,Relax
105.7476539431228,567.4230769230769,40.158107986340305,,,,,,,19.18737448964358,19.273458687658653,0.07077277893613827,0.0338149350458031,565.0,41.5128,0.07347398230088495,56.0,2.092944399871682,531.6,597.8,1.9230769230769231,28.846153846153843,492.0,666.0,9.454545454545455,54.6875,,,0.05279718918211078,0.011404374029739763,0.0010402301489054135,0.06524179336075596,4.629556084746859,0.8092541063389772,0.17480166381507972,-4.473758310351375,13.62839333496221,55.27640942732815,0.24654990214007022,2366.651752013359,4.055974029273306,4.08110446704344,896.7987242748845,0.38461538461538464,0.39805825242718446,0.6341463414634146,0.08333333333333333,51.8064516129032,51.84521835692867,51.761441562794765,45.63106796116505,0.5209651898734177,0.4790348101265824,9.840642016358366,9.436319072978554,0.5292303602136327,0.4707696397863674,40.21260427629671,37.92661198282251,0.5287563778380553,0.4712436221619446,29.27363812354175,27.635774045090855,1.6701298100030848,0.7635036138263223,1.838851072884395,1.8412639052000235,0.3296979953020447,-0.18594576772983107,-0.49683978926630545,0.00016164344607388142,0.033581639791834504,0.6056166602604929,1.043552511485082,6.015014597803167,0.8965212294012267,1.1732344732598565,1.0174720982978078,1.5981842861363453,1.659569755964967,1.4422715758694167,2.1494363122040645,0.6442730498212589,Relax
106.61885782908325,562.8380952380952,40.09390990813457,,,,,,,17.905199073066846,17.99124340984837,0.07123524553037548,0.03181234394856034,557.0,40.0302,0.07186750448833035,57.0,2.239232847650612,527.8,593.0,1.9047619047619049,20.952380952380953,505.0,665.0,8.076923076923077,39.0625,,,0.047131381441114326,0.015539571904357681,0.0018488419040443903,0.0645197952495164,3.0329909814244957,0.7304949009655699,0.24084967790523415,-4.16436548240422,12.721730217081562,55.23101730541892,0.23033669915461408,2207.3901322964402,4.341470567522319,4.050849206752813,959.1353441831685,0.3619047619047619,0.375,0.6666666666666666,0.08333333333333333,49.42528735632183,49.36831903249763,49.47924691432655,48.07692307692308,0.4930118169275988,0.5069881830724011,8.93286720515056,9.058601019317743,0.5036966579446049,0.4963033420553951,39.198331124939614,38.90958891598671,0.503158296762364,0.496841703237636,28.428025604016753,28.249020886025946,1.6857926461737673,1.240591426755464,1.8505805645299944,1.891426969880357,-0.22583941353580173,-0.16984746958237817,-0.46707505430922674,0.00014911132115039168,0.06694946439732703,0.703053473751742,0.9871384222049907,6.023490041352021,0.8227777603059179,0.691881557897324,1.0681448723812146,1.4411779058323853,1.6482676718426033,1.400545895596383,2.0095420228156615,0.6394519540634402,Relax
107.30300365354012,559.2358490566038,41.155582132935606,,,,,,,18.742871660853844,18.829614855445016,0.07359253202805671,0.03351514695002458,548.5,43.7367,0.079738742023701,60.0,2.1957991751548245,521.0,592.0,3.7735849056603774,19.81132075471698,498.0,665.0,8.833333333333334,62.5,,,0.04041344403622908,0.007508296486002677,0.0005466543006764059,0.04846839482290817,5.3825050877479,0.8338102424041495,0.15491118518441105,-4.891746671692503,13.314548351416123,56.88617659776483,0.23405595432369553,2379.4854690777934,4.27248263300756,4.0834531669769625,972.1808062886054,0.4056603773584906,0.41904761904761906,0.6818181818181818,0.12,51.26050420168067,51.302077333195115,51.21356759340632,48.57142857142857,0.5146668112563032,0.48533318874369685,9.553493118709552,9.277246773278573,0.4993217752031506,0.5006782247968495,40.19731064834434,40.25187330488595,0.5001190027774214,0.49988099722257867,29.215518257671967,29.208565629322656,1.567178369676143,0.8993559683205552,1.6596095337973702,1.8041584628810114,-0.30185617149926003,-0.803045756586541,-0.33927506551875125,0.00015052289534640294,0.0355032148738373,0.6733191987494438,0.9682504708048659,6.013067270498885,0.7651484942985609,1.0855713192140712,1.2007895181752646,1.4928173115240984,1.657294880174719,1.4561243572839344,2.068663466709634,0.6347094768455848,Relax
108.1729902038764,554.7196261682243,38.03667405864815,,,,,,,17.969313465324554,18.054258344904294,0.0685691875035861,0.03239350586790881,546.0,37.065,0.06788461538461538,53.5,2.116757222363985,521.0,583.8,3.7383177570093453,16.822429906542055,498.0,665.0,8.23076923076923,117.1875,,,0.047253684886133525,0.011533818180869428,0.0006132158392251005,0.05940071890622805,4.096968076409499,0.7955069527143226,0.19416967325053924,-4.462471847666467,12.766288504975638,52.50852538488619,0.2431279189693304,2105.932027656984,4.1130611582544985,4.030414459484624,863.883104951183,0.40186915887850466,0.4150943396226415,0.6590909090909091,0.11538461538461539,49.53933380581148,49.5263943122465,49.553570205994056,50.0,0.49566132001051794,0.5043386799894821,8.988087354143499,9.06642156531451,0.5261951414549728,0.4738048585450271,38.08932171319711,36.14344767068866,0.5244909107957488,0.4755090892042513,27.672930300721163,26.349087361081498,1.5891358594110603,1.2784310486784354,1.80012886025697,1.9558937415960853,-0.411332192723318,-0.8568112034871591,-0.3781593410922431,0.00026365255486938944,0.08873002624229384,0.7128040369406317,1.1085133596508217,6.014603084430892,0.8043368605463797,0.996663313803765,1.1240517990080807,1.3373681885538025,1.6354220512233189,1.4281063258683986,2.2375049520819785,0.6300436435888923,Relax
108.71922139487934,551.9439252336449,37.250004881777805,,,,,,,17.432349022803272,17.51145947481264,0.0674887487275259,0.03158355083883555,544.0,32.6172,0.05995808823529411,46.0,2.1368322096494876,521.0,578.8,3.7383177570093453,12.149532710280374,498.0,665.0,7.133333333333334,62.5,,,0.05355543402176217,0.010118808618095951,0.00032479307490804725,0.06399903571476616,5.292662016157358,0.8368162648645283,0.1581087668757061,-4.5933593475375964,12.382471743113435,51.381664742377836,0.24099008479382328,1998.7818142075046,4.149548313805276,4.007735499348881,852.842801168968,0.411214953271028,0.4134615384615385,0.6744186046511628,0.16,51.41791044776119,51.47183937224445,51.35901459389274,47.11538461538461,0.5051223146653422,0.4948776853346579,8.802326532284086,8.712607176357936,0.5314844121643958,0.46851558783560415,37.45876346257457,35.169823877196215,0.5300368574906702,0.4699631425093297,27.208821294996074,25.620558496669474,1.6248607725017603,1.2147626765812607,1.8022654081480423,1.9433720993094008,-0.326481151057024,-0.6996387005551332,-0.38384011636044096,0.00023103898670470617,0.0766343839229152,0.7131931017355497,1.085708883832202,5.943484949155783,0.7768351059102613,1.2481817069110503,1.0428082326574852,1.2548930916490904,1.5830302553587874,1.416399624734551,1.9393368050979054,0.5670392792300031,Relax
110.006957921682,545.3669724770642,38.23045628777478,,,,,,,16.93506115419417,17.012782033210172,0.07010042451623266,0.03105259762481562,539.0,31.1346,0.057763636363636364,40.0,2.2574737663882924,515.0,568.6,3.669724770642202,12.844036697247708,490.0,665.0,7.785714285714286,101.5625,,,0.03834630444074385,0.016720575139701387,0.00042494476464044175,0.05549182434508568,2.2933603730947185,0.691026198783457,0.3013160107283831,-4.091115273609691,12.029853542531573,52.92040628318038,0.22731975030877655,2000.0155968462234,4.39908982233908,4.008003492424692,931.2064826975517,0.4036697247706422,0.4056603773584906,0.6046511627906976,0.15384615384615385,49.164133738601805,49.12056109708931,49.20961029955277,52.83018867924528,0.5132369083747659,0.4867630916252342,8.618877347367924,8.393644680830693,0.5047705084505318,0.4952294915494682,37.59846859358841,37.241436070509195,0.5051865642923763,0.4948134357076239,27.27572077243813,26.994238566978147,1.6028303131189519,1.5793520148621951,1.8097552406698618,2.0549430221518676,-0.7010251463116077,-0.933323913913072,-0.3447541908487074,0.0005688042830449203,0.14107729088455662,0.7161608377719966,1.0526271754262861,5.917459040802609,0.7364659349587852,1.0905605612339093,1.2301338130912756,1.5920876986224126,1.572463221699039,1.444642021708808,2.0396380501995734,0.6209343417226538,Relax
111.11052324963472,540.0275229357799,29.510656805697092,,,,,,,14.673609467844468,14.739376553429953,0.054646579206309276,0.027171965954760152,538.0,28.1694,0.05235947955390335,35.0,2.0111382186071065,515.6,558.0,1.834862385321101,10.091743119266056,490.0,664.0,7.266666666666667,70.3125,,,0.05241108065770074,0.022170835208504578,0.0005979975747118247,0.07517991344091714,2.3639650994111494,0.6971420723820052,0.2949037075698196,-3.808977583149469,10.42231311139232,40.55974956620983,0.25696196901755797,1328.0341831878177,3.8916264683964616,3.830179363742872,631.3735798535763,0.4036697247706422,0.4056603773584906,0.5581395348837209,0.15384615384615385,48.73096446700507,48.70672210430663,48.759620931305996,51.886792452830186,0.49815085576674983,0.5018491442332503,7.357366452848146,7.384626617532794,0.4927421898429486,0.5072578101570513,28.4711585237513,28.88747855367585,0.49307731318243875,0.5069226868175611,20.79348105544225,21.08339545079796,1.4515618270679067,1.9456638675357834,1.7518782865976466,2.0306840231310312,-0.9734531219940461,-1.0357949089806695,-0.35670405809277994,0.0008214645663914202,0.22374600617135731,0.7225468567837621,1.3012573184339784,5.849478219387774,0.8431968727653856,0.9957210467993628,1.0590647324572318,1.597817487172281,1.585148672133358,1.516943677822966,2.0535691525865216,0.7451212100671846,Relax
110.77186946384822,541.8899082568807,30.33893093942271,,,,,,,16.711883108645686,16.76749098386759,0.05598725954689797,0.030839996932962785,539.0,26.686799999999998,0.049511688311688305,35.0,1.8154106716870966,516.0,562.4,2.7522935779816518,13.761467889908257,490.0,664.0,6.055555555555555,54.6875,,,0.050248015582601266,0.016143982089777874,0.0004125266215710667,0.0668045242939502,3.1124920297339496,0.7521648587976205,0.24166001121034655,-4.126207924775744,11.856406578177069,40.9113909439051,0.28980697807204264,1523.8674818589125,3.4505725384963353,3.8899173116111996,564.6708884109064,0.43119266055045874,0.42857142857142855,0.6,0.14814814814814814,53.530751708428234,53.52766420482563,53.52790034125401,47.61904761904761,0.569671451778669,0.43032854822133065,8.960713840055627,7.788080996463546,0.5253988908586146,0.4746011091413854,29.654378134666928,28.184388700328903,0.528837579369379,0.47116242063062097,21.905210967680457,20.67624206690742,1.498297943910868,2.471478874225965,1.8597847298972,2.30186566083001,-1.0227418308187115,-0.8622188183508834,-0.32112696347798475,0.004398519567072631,0.4804492109456393,0.7406560130041497,1.1931031320890317,5.813697168654837,0.8757566143672516,1.1015040267479959,1.063338495483277,1.6904710258707425,1.539206065870984,1.5211781896920753,1.836939923971962,0.7451212100671846,Relax
109.42108610766044,548.1944444444445,36.359178695198935,,,,,,,15.605534604119585,15.671942094079354,0.06632533230439126,0.028467152052105652,541.5,23.7216,0.04380720221606648,33.5,2.3298899792642,521.4,571.0,0.9259259259259258,13.88888888888889,490.0,655.0,5.684210526315789,62.5,,,0.04356086163142129,0.016379020674157432,0.00017187402764350665,0.06011175633322223,2.6595522710433444,0.7246645962221921,0.27247616228949156,-4.111753990247058,11.081736529086411,50.29730249912078,0.22032466908697787,1751.0654824499748,4.538756391392689,3.950272497127439,913.1488127507836,0.4444444444444444,0.44230769230769235,0.5869565217391305,0.14814814814814814,47.99357945425361,47.904579122428586,48.085796458238384,51.92307692307693,0.5113208995318136,0.4886791004681864,7.927739690717246,7.750228237661718,0.36346888673954836,0.6365311132604516,30.323429295792216,40.12864655618418,0.3703196474753131,0.629680352524687,22.162574544270385,28.899604773828667,1.6139324851875543,2.1090336915993024,1.888874887079834,2.399608330596225,-0.9737642964840347,-1.2165174137671846,-0.2578353320998413,0.004058654216117692,0.38382552336207837,0.6461340642887619,1.0108100852236617,5.846193377279971,0.7796769013407083,1.1777814859287556,1.1731786016380628,1.7273594830826695,1.4730140381760426,1.4089104101834145,2.204324551883109,0.7505430557959408,Relax
110.86849696345584,541.2018348623853,36.30446860989087,,,,,,,14.835205874315777,14.903087764692202,0.06708120015728,0.0274115956722283,535.0,20.7564,0.038797009345794393,30.0,2.447183336548424,510.0,555.2,0.9174311926605505,12.844036697247708,490.0,655.0,6.055555555555555,62.5,,,0.027950493886609258,0.005185366755138805,0.000175016014182076,0.03331087665593014,5.3902636412187706,0.8390801051353717,0.15566587480415903,-5.261914705927761,10.538074419032121,50.47053904533296,0.20879654979644174,1670.8946831808119,4.789351169714787,3.9299191870515626,966.884540851605,0.4036697247706422,0.4,0.5238095238095238,0.03333333333333333,49.098712446351925,49.073308944401404,49.127816431606774,52.38095238095239,0.534225251377845,0.46577474862215484,7.703015552245162,7.192610434314727,0.35282254844287264,0.6471774515571274,29.978928716656718,40.602206153460365,0.3604018551540068,0.6395981448459932,21.886898085344523,29.1570985300999,1.6268692547918435,1.5618881880916513,1.843012414344694,2.084611420224324,-0.36578652590352156,-0.5395418617890666,-0.345316068255295,0.001037456557632264,0.16217874205335195,0.6916136228252565,0.9511374632043229,5.81819464567936,0.7287475083670499,1.330516302202374,1.2804413962520782,1.5763350797773197,1.458630863957826,1.3774512264215886,2.040603398547037,0.9314015125839806,Relax
110.69704968095215,542.0733944954128,36.66280444861491,,,,,,,14.963226528665137,15.03249911917795,0.06763439198624083,0.027603691087981927,536.0,26.686799999999998,0.04978880597014925,34.0,2.4501937719368057,510.0,558.4,0.9174311926605505,13.761467889908257,490.0,655.0,6.055555555555555,62.5,,,0.03426876950116928,0.00704429581752405,0.0001578672059297709,0.0414709325246231,4.864754460753774,0.8263322625027161,0.16986104214901715,-4.955537093556483,10.62958206535153,50.98470771281078,0.20848569192994834,1702.573995450352,4.796492223245719,3.938076105799147,978.1910161958117,0.3853211009174312,0.38095238095238093,0.475,0.0,50.54945054945053,50.55231041740734,50.54455561210045,51.42857142857142,0.5353790165832678,0.4646209834167322,7.7778742020428515,7.245688373094719,0.3640308961475205,0.6359691038524796,30.76160960968747,40.65911699461673,0.3711689590246837,0.6288310409753162,22.436264761336947,29.20328572936555,1.622748201791252,0.6667482859078877,1.7702449281519854,1.517371986625876,0.9974675777296644,1.1246838340382208,-0.8792629795542426,0.000274871773717086,0.03445354696534589,0.7347806801632055,0.9894129967031177,5.958058063090705,0.7369560844174862,1.2783895816274096,1.2455653253512655,1.7289545453596014,1.5114990545347182,1.362697661732558,1.9840274245279739,0.7451212100671846,Relax
109.46307722043701,548.1111111111111,36.00164412998807,,,,,,,15.472314738412155,15.543625786544636,0.0656831131501911,0.028228427457066572,541.0,26.686799999999998,0.049328650646950085,35.5,2.3268427988094778,521.0,571.0,0.9259259259259258,16.666666666666664,496.0,655.0,6.75,62.5,,,0.03196333207012518,0.0070794491134861925,0.00031395327405685334,0.03935673445766823,4.514946227840772,0.8121439065150253,0.17987897652181453,-4.950559183133406,10.991003197891796,49.85433021187453,0.22046235805759373,1721.4328758582235,4.535921727457707,3.942860202809787,904.5413584635713,0.37962962962962965,0.375,0.48717948717948717,0.0,50.94031071136548,50.918947194873354,50.95855628165374,48.07692307692308,0.5205153230528986,0.4794846769471013,7.930416725113647,7.6114362812908665,0.41209912680928673,0.5879008731907134,32.00396104217213,38.225655239456046,0.41712523279002905,0.5828747672099708,23.314641663800383,27.560249279985698,1.6075231837028543,1.0609892094127913,1.7800232012535153,1.9687881684561934,-0.06101103859871415,-0.4779424234252456,-0.32208587464602884,0.000861191675470969,0.0816914887668802,0.7143970862766471,0.9964827935917299,5.9722085668580895,0.7697489502732403,1.0019130907745633,1.3028021209603338,1.5859085654518064,1.6404748554933608,1.4186781763733505,2.1746891186035735,0.6254525464966174,Relax
108.68476482608183,552.3177570093458,42.64942613492603,,,,,,,17.429101666628156,17.500034655337267,0.07721900227481616,0.03155629426256748,541.0,29.651999999999997,0.054809611829944545,48.0,2.447023773840721,517.2,577.8,1.8691588785046727,16.822429906542055,496.0,665.0,8.916666666666666,93.75,,,0.020596418695747187,0.0033284824689330944,0.00019236268853653715,0.02411726385321682,6.187930652478133,0.8540114177587349,0.13801244159333328,-5.705238793894546,12.374393175788567,58.66713632091679,0.21092546784794544,2280.702682647558,4.7410111742451715,4.065038783356997,1112.566195433725,0.37383177570093457,0.3689320388349514,0.5,0.0,52.623456790123456,52.427192688926205,52.82291708642571,50.48543689320388,0.6134161490683231,0.38658385093167696,9.698306184955333,7.699103225453629,0.42436222124108786,0.5756377787589121,38.21758558355089,44.5112237111158,0.432425344663022,0.5675746553369782,27.88046799009281,31.94154995250847,1.6639196846431499,1.2177082707151605,1.733897762755443,1.8694998121128297,-0.31273497122269234,-0.2507968897191457,-0.38864159617003546,0.000562938441026488,0.0709600636450987,0.6623846375164208,0.882660661128606,6.040349696600645,0.6988571118649644,1.1315784329282152,1.297192183723524,1.499906603982592,1.6307107631338638,1.3606603450638481,2.2983920460533,0.6300436435888923,Relax
107.93678209999486,555.3396226415094,42.36707769291147,,,,,,,17.429859437184227,17.512700780995733,0.07629039233935746,0.03138594605275589,544.0,34.099799999999995,0.06268345588235293,52.25,2.43071826514717,521.0,582.0,1.8867924528301887,19.81132075471698,501.0,665.0,8.153846153846153,85.9375,,,0.05814781326851287,0.01311849499906168,0.00043246764530107404,0.07169877591287561,4.432506417288872,0.8110014784516109,0.18296679172044095,-4.333732212483311,12.383349479133031,57.51846096383622,0.2152934774614164,2237.6659806468992,4.644822554734451,4.056765369281818,1068.6521791937582,0.3490566037735849,0.3431372549019608,0.5142857142857142,0.0,50.654349499615094,50.56551142766534,50.751942981172206,50.0,0.5659111570895637,0.43408884291043603,9.31603249986074,8.159173694965403,0.4472727542227809,0.5527272457772191,38.46745716822222,42.76246123247983,0.4525286330061599,0.5474713669938401,27.986905174808737,30.783113926664047,1.6377032914286267,1.1031758219020285,1.737169553830038,1.4997736575835687,0.3016047901708525,1.0434020152317043,-0.7151931646191863,0.000502250730029254,0.058016183179716733,0.6279009578749126,0.8823891801984736,5.977828237541249,0.731452254725294,1.0182419405958658,1.4420832690165943,1.6477487772373731,1.6539335437553713,1.390110509239506,1.9354475868315395,0.5712385291610262,Relax
107.76615387482602,556.9622641509434,45.65396233329107,,,,,,,17.881887617416254,17.96487721045744,0.08196957903941281,0.032106102636371876,544.0,33.3585,0.061320772058823525,50.0,2.553084065287711,521.0,578.0,1.8867924528301887,19.81132075471698,501.0,701.0,8.833333333333334,93.75,,,0.04425633815278798,0.006019275496171371,0.00042757714426463025,0.05070319079322399,7.35243604997607,0.8728511452715602,0.11871591120801397,-5.11278837637718,12.703086498698124,63.350431709675014,0.20052091447323286,2528.184164764564,4.987010969040279,4.109778816766687,1263.7171913183456,0.3490566037735849,0.3431372549019608,0.5142857142857142,0.03571428571428571,51.23042505592842,51.347308827287364,51.11908867150081,46.07843137254902,0.5800446760982874,0.4199553239017124,9.676249670833618,8.233374857156786,0.4921918501815935,0.5078081498184065,44.44437342654146,45.143935013735046,0.4955887569065248,0.504411243093475,32.16311658538529,32.448138082660414,1.743903828826712,0.7210482894243766,1.843800873822195,1.9247843157177358,0.2645660341635683,-0.2417849777747021,-0.3876865210231743,0.00010174268216844564,0.02709643832536967,0.6546833064934452,0.8266785731844679,5.951838732803856,0.6980030200962233,0.8215536563702107,1.2271788331343723,1.40813168658381,1.5268562484278585,1.3386135244956359,1.6947562086243375,0.6981804245301433,Relax
106.6364741397512,562.9333333333333,43.42948897719743,,,,,,,18.250395148514542,18.337757177805937,0.07714854744883486,0.03242017139125038,554.0,29.651999999999997,0.05352346570397112,41.0,2.3796465021050404,530.0,582.0,1.9047619047619049,20.952380952380953,503.0,701.0,8.076923076923077,54.6875,,,0.04020483299062288,0.008523109515082287,0.0004980110060239236,0.04922595351172909,4.71715550756181,0.816740563106477,0.1731425987117036,-4.764974038166053,12.966752452178865,60.19527440333589,0.21541146843680267,2452.1300024227226,4.6422783673348365,4.09651360102765,1117.7728807135625,0.3619047619047619,0.36274509803921573,0.5675675675675675,0.08,49.27745664739884,49.21858153794054,49.337854162597736,48.03921568627451,0.5676096997690532,0.43239030023094693,9.769677678498281,8.52694188229741,0.4791647838677513,0.5208352161322488,41.6682100353751,43.442275872020915,0.4830872391197531,0.5169127608802467,30.26290079861712,31.304473089359355,1.751345736530658,1.7898926122330803,1.9365902458569106,2.1522196079983553,-0.4674074440010294,-0.2058125714004504,-0.37952944178454134,0.0018805251034913642,0.20225425510329334,0.650334130585581,0.9757141523449555,5.997253017521893,0.7460136223832483,1.0099617366612548,1.239598907846798,1.2997941985322554,1.59889705196034,1.338689036411108,1.886802729012939,0.7673423448761283,Relax
106.22070597504486,565.0,44.12317269793775,,,,,,,19.166617419382348,19.25970968850156,0.07809411096980132,0.03392321667147318,555.5,32.6172,0.05871683168316831,43.0,2.3020844905746354,530.6,585.4,1.9230769230769231,24.03846153846154,503.0,701.0,8.0,78.125,,,0.04815632901142009,0.005814842358897036,0.0002920593431134389,0.05426323071343057,8.281622448068296,0.8874578306208559,0.1071598996677103,-5.147341602768995,13.618671324423701,61.14517510488059,0.2227268349639032,2616.054602673876,4.489804742935748,4.124616914366499,1098.1195887741187,0.38461538461538464,0.37999999999999995,0.631578947368421,0.08,50.553250345781464,50.57236640288053,50.53337894925202,48.0,0.5949838786405202,0.4050161213594799,10.505134132282887,8.667326520883348,0.4794495560026703,0.5205504439973297,42.33832315648167,44.11574357192496,0.4849103585622188,0.5150896414377811,30.845513862147985,31.790890046705567,1.7412857040620453,1.4659078466342557,2.020810386560041,2.2178745292385837,-0.3690539565572841,-0.7766074618451366,-0.3655685327484911,0.0007054775158347737,0.14466953544023328,0.7256872365215958,1.1130010261202095,5.976553059341628,0.7691381364500239,1.3501395228444337,1.1751474174043273,1.469394931808164,1.6140824298943435,1.3245493297773783,1.894998725726331,0.5154184398570071,Relax
106.22100644273256,564.9134615384615,45.3810427417507,,,,,,,20.4300844226,20.527147685900964,0.08033273382822544,0.036164980680335655,555.0,36.323699999999995,0.0654481081081081,49.5,2.2212851304495667,526.0,586.8,2.8846153846153846,24.03846153846154,503.0,701.0,8.0,46.875,,,0.040245140569519514,0.006318679249812059,0.0007458238660215515,0.04730964368535313,6.36923302772752,0.8506751992718822,0.1335600684679918,-5.0642450721227386,14.514885327118318,62.76107095495508,0.2312721103426669,2861.895867702706,4.323910905289613,4.1636239375320026,1085.4931165191417,0.4326923076923077,0.43564356435643564,0.7045454545454546,0.10714285714285714,51.15207373271888,51.189586031067776,51.11132917319817,50.495049504950494,0.6216417389686213,0.37835826103137854,11.445737283407492,8.929462140445361,0.4753096783215098,0.5246903216784901,43.26918096143591,45.46130229480254,0.48274108419271156,0.5172589158072886,31.648277386251785,32.760229703537384,1.643192951865142,0.4603276253505497,1.619413549095161,1.7878949617427145,0.873687993127648,0.04461159872305309,-0.13399673760780512,0.0007957445184860642,0.035535686457833775,0.6504810644454961,0.9630083564416148,6.028571420247561,0.7403395351330572,1.1162741212090013,1.0930629513282788,1.2034221514451588,1.6273451798400154,1.3536318580521711,1.9097201257713483,0.579845744839133,Relax
107.36069092014698,558.8867924528302,40.87549522163195,,,,,,,18.068388601827962,18.154137562074123,0.07313734332893872,0.032329246004418555,553.0,31.1346,0.05630126582278481,41.0,2.2622656686438884,526.0,578.0,1.8867924528301887,19.81132075471698,498.0,701.0,6.625,54.6875,,,0.04275498547569121,0.014470795392398239,0.0007647627637182468,0.057990543631807695,2.9545705205776835,0.7372751279441393,0.249537157028151,-4.235622771473622,12.83691377673603,56.595572996338525,0.2268183374972901,2282.4063035210997,4.408814609233027,4.06536306804152,998.077556176686,0.4056603773584906,0.4134615384615385,0.7209302325581395,0.16,49.333333333333336,49.33324801224073,49.337905106073286,51.92307692307693,0.5806762157589196,0.4193237842410806,9.782490244544862,8.312987984519719,0.4752601271632158,0.5247398728367841,39.016485899464804,40.997228087283496,0.4804185560671606,0.5195814439328394,28.442778409710183,29.579371866822292,1.6810326127608357,1.6783333611551559,1.8932970429769798,2.2396333005255054,-0.5392850150429318,-0.8576572443500083,-0.2936427496679499,0.001847079139740618,0.21127614930474659,0.7442152442171057,1.1239300966523997,5.9953851669052325,0.777094510039819,1.2852279792905064,1.2863068687758605,1.4827712291908064,1.6525935426619804,1.3913036940191894,2.1519035788546437,0.6981804245301433,Relax
107.95249124491625,555.7075471698113,32.73092813813058,,,,,,,15.988388643905658,16.017572767514977,0.058899556618994,0.028771228185281383,554.0,26.686799999999998,0.048171119133574004,35.75,2.047168658900891,531.0,573.0,0.9433962264150944,14.150943396226415,498.0,689.0,7.066666666666666,93.75,,,0.0554870934521967,0.01937363524344844,0.0021690527991172163,0.07702978149476236,2.86405172570598,0.7203329981660346,0.2515083759489276,-3.943842145271495,11.326134322058815,43.1544546913405,0.262455739577021,1535.526138660702,3.810166245979685,3.893227323628855,657.7025865144209,0.4339622641509434,0.44230769230769235,0.6956521739130435,0.14285714285714285,44.90118577075099,45.38956662889754,44.362466093317835,52.88461538461539,0.497671472746917,0.5023285272530831,8.01381019529124,8.051218254687633,0.3046422158575901,0.6953577841424098,23.818843775719678,35.98568661141287,0.3171508775707395,0.6828491224292603,17.77017828636356,26.07481309884536,1.4596933741969602,2.0643933434479367,1.7757008593902301,1.9583624193120266,-0.5608871729668596,-0.21193881896114242,-0.4115180445133987,0.0013244137918503216,0.2617107014531186,0.7181747076281426,1.1718844897744354,5.944717152594767,0.8318106238156201,1.0678470164862888,1.3036170803859628,1.618454883532627,1.586053101024466,1.4697418955563033,1.6841389629918675,0.6981804245301433,Relax
108.73967626146151,551.7009345794393,26.96896012899044,,,,,,,15.426942861038146,15.477256304441923,0.04888329607334966,0.02796250992903987,552.0,26.686799999999998,0.04834565217391304,36.0,1.7481726854062893,527.2,571.0,0.9345794392523363,12.149532710280374,498.0,637.0,7.133333333333334,93.75,,,0.044570334889993055,0.03034812125412943,0.00211440867957479,0.07703286482369727,1.4686357193834008,0.5785885672563237,0.3939632950635581,-3.4950206660572776,10.944072887033128,36.098734649657445,0.3031705402764576,1241.140160212961,3.298473522816933,3.8007909384951013,476.2828817963571,0.4205607476635514,0.42857142857142855,0.6444444444444445,0.10344827586206896,53.58581788879936,53.495454727161984,53.67597879088552,49.523809523809526,0.6116066119633725,0.3883933880366273,8.571547618220912,6.830603403590554,0.518394122057691,0.48160587794230897,25.990941595752542,25.05173842815223,0.5262616823351619,0.4737383176648381,19.35200859866035,18.360919654659213,1.5106029148442346,1.960964748134729,1.7078675651338284,2.0080847720698034,-1.2936560188568151,-1.0922707097433886,-0.3469033126569247,0.0008238003980288762,0.19239368443005075,0.6253786079943464,1.2383742310432684,5.865070374150519,0.926477173970666,0.968468308100505,0.9986679143422892,1.5748614390348439,1.795165489339841,1.4849614835100857,2.0816632144925844,0.5670392792300031,Relax
104.583227441201,573.6990291262136,46.05470637665948,,,,,,,20.631215640953624,20.721625185774883,0.08027677238151201,0.03596174055301523,564.0,37.065,0.06571808510638298,48.0,2.232282730118889,533.0,611.0,2.912621359223301,27.184466019417474,507.0,718.0,9.363636363636363,93.75,,,0.057130421648447505,0.016438139163686468,0.00030997037443113824,0.07387853118656511,3.4754798629916976,0.7733020774895527,0.2225022465887324,-4.108151085317309,14.65240168606737,63.56543213334258,0.23050896052009384,2926.036184840365,4.338226148535464,4.173249802489063,1103.044879295293,0.30097087378640774,0.3,0.4,0.0,47.83683559950557,47.72794148886453,47.95162742917551,55.00000000000001,0.5749032614704256,0.4250967385295744,11.115950541255728,9.558573985363264,0.4224984992984842,0.5775015007015158,41.317457507576485,48.3056090677697,0.4301959498357254,0.5698040501642747,30.25472402225834,34.81952185227317,1.6612522984891112,0.8338701134247861,1.8159218575094314,1.6979728331268142,0.6153955325649854,0.6573569360253098,-0.6414477176765443,9.803109300190293e-05,0.035822164808371706,0.6289370113213884,0.9416085398584452,6.140241667896904,0.7911359378213838,0.9706180424701941,1.0619742377292851,1.5323723438885442,1.6025395233831332,1.4283484900324537,2.2491631509774765,0.9088447318501461,Stress
105.73250424192165,567.6538461538462,43.50176187276045,,,,,,,22.141863876429422,22.200010633132017,0.07663431185661437,0.03900592592907141,558.5,40.771499999999996,0.07300179051029543,56.0,1.9646838276821483,530.0,604.4000000000001,4.807692307692308,25.0,507.0,687.0,8.666666666666666,23.4375,,,0.04795746158386625,0.022858382704646338,0.0003748774557551736,0.07119072174426777,2.098025140427722,0.673647638468109,0.32108654252387714,-3.7784373709464623,15.69777806110111,58.7146161434043,0.2673572458135625,2895.571432643867,3.7403138147874797,4.1687043932427175,878.4443595644764,0.28846153846153844,0.2871287128712871,0.3448275862068966,0.0,45.47604967474868,45.534932594453856,45.4154253877731,59.4059405940594,0.5681327603620017,0.4318672396379982,11.858851248800468,10.33934044242251,0.3603135396066361,0.6396864603933639,35.244107478556806,46.96018565665227,0.37423592582894283,0.6257640741710573,26.294290871796107,34.00118378594754,1.6017101279158703,0.39225075977400214,1.6605427165388065,1.6094213693513921,1.0105242128193916,0.4559078448718159,-0.6303282298723099,0.0003957589213467855,0.020399675309094086,0.6035504182589033,0.984668029318892,6.075251737288651,0.8092772030740034,1.0174805693977556,1.0153828011544208,1.3033462035202592,1.6285579677504347,1.4723327870020293,2.0245622102118745,0.7087003548033847,Stress
106.394130985401,563.9807692307693,42.7893872989782,,,,,,,22.049150744273334,22.155628691907527,0.07587029493459495,0.03909557195424739,554.5,40.0302,0.07219152389540126,55.0,1.9406365258803255,527.0,595.4,4.807692307692308,23.076923076923077,507.0,687.0,8.0,23.4375,,,0.056385570604112305,0.015353343982873826,0.00034509821241186626,0.072084012799398,3.672527018674801,0.7822201957738846,0.2129923597011798,-4.176421979627434,15.666395289499048,58.72512090121214,0.26677501977140555,2890.2996651847684,3.7484769033355563,4.167912982541641,880.5190373751273,0.3173076923076923,0.31683168316831684,0.4375,0.0,50.75346594333935,50.76920508155776,50.73527257684559,56.43564356435643,0.6108037943085373,0.3891962056914628,12.244646689432063,9.774165628097888,0.4005345556213102,0.5994654443786898,37.16583672876272,45.468015187744186,0.41450651251890835,0.5854934874810915,27.669755982824167,32.88521490608223,1.5552548936005957,0.6204780432572958,1.7304745319409496,1.5303919063545046,0.6371223058579183,0.4594462384668061,-0.8224652794095342,0.00027970354363483394,0.025530080308422038,0.5308351285153914,0.8887545740655497,6.082510270963298,0.815812945425828,0.8702436321167175,1.0754238486304089,1.5277976341170343,1.6108928997216496,1.4187273018297066,2.1362937441391643,0.7087003548033847,Stress
106.80672768584769,561.7142857142857,42.65395515201246,,,,,,,21.427875446573,21.53163433352058,0.07593532198984924,0.03814728589166099,553.0,38.547599999999996,0.06970632911392405,54.0,1.9905825595432132,526.0,590.4,4.761904761904762,22.857142857142858,507.0,687.0,7.5,23.4375,,,0.05629461258767869,0.01331980755538687,0.00016165316589546262,0.06977607330896102,4.226383328257,0.8067896331513547,0.1908936247588508,-4.318503061768043,15.225164647261488,58.63634589990158,0.2596540492692442,2804.650623148754,3.851278278980605,4.154848878623881,903.2995412923377,0.3142857142857143,0.32038834951456313,0.48484848484848486,0.0,50.06150061500614,50.05197809390264,50.07112637504591,55.33980582524271,0.5916401407270899,0.4083598592729101,11.710919309258395,9.729347057986844,0.3999129419025317,0.6000870580974683,37.08084544900453,45.42281322507386,0.41202279366349326,0.5879772063365067,27.49667916568218,32.8473146197273,1.642694541094847,0.8598801168195669,1.8041632996049222,1.6961096152013089,0.06832600170648995,-0.020654051750811142,-0.6256613361444742,0.0003894837191234762,0.03466261442651097,0.5823265685405468,0.9090355609929832,5.961678374726564,0.8050552715869835,1.161108444257314,1.2091872721911434,1.742583175115984,1.5744378910237014,1.400387127637226,2.3587424174723592,0.6394519540634402,Stress
107.66909589870485,557.2641509433962,40.44073898029359,,,,,,,19.607578709701585,19.698608195381848,0.07257014274439005,0.03518542988366968,547.0,31.875899999999998,0.058274040219378424,43.25,2.062505502542444,526.0,578.0,3.7735849056603774,17.92452830188679,507.0,687.0,7.066666666666666,23.4375,,,0.018177748213828556,0.009584998381357636,0.0003449688004089465,0.028107715395595135,1.896479007151781,0.6467173855288594,0.34100951452140205,-4.647556071356986,13.929019434891401,55.655428665375844,0.25027243108014857,2435.4428850180934,3.99564584754345,4.09354805909753,889.5175297602387,0.32075471698113206,0.3269230769230769,0.4411764705882353,0.0,48.777173913043484,48.70099908981519,48.856601011245886,53.84615384615385,0.5684700753071742,0.43152992469282603,10.503662364952667,9.151502608861563,0.3877260081483397,0.6122739918516603,34.655326834478636,43.54922573275218,0.39838289640401303,0.601617103595987,25.605845046409407,31.46653032924193,1.5791550628660815,1.3797124591681422,1.746849809146044,1.8002003365712533,-0.40202786489513187,-0.23753042699882077,-0.4613321405698,0.00016842255235235772,0.08158313196350334,0.6624187834161375,0.9085686857802447,5.843255949744168,0.7538641954077626,0.9033136967653324,1.1658628516774294,1.4187724429746256,1.6170234934782595,1.4138755957811588,2.1118175037083464,0.6347094768455848,Stress
109.42576024424898,548.1682242990654,32.42392721819955,,,,,,,16.53412708583571,16.61240402997069,0.05914959273617063,0.03016250551001502,542.0,29.651999999999997,0.05470848708487085,43.5,1.9610304825814575,522.0,570.0,1.8691588785046727,14.018691588785046,506.0,687.0,6.6875,93.75,,,0.046539825366876196,0.014315545453016849,0.0004213279808373197,0.06127669880073037,3.2509990988201167,0.7595028171837723,0.23362135580394908,-4.24640923755918,11.746743541403006,44.38848753557971,0.2646349130951437,1638.0898046319342,3.7787908946106135,3.9213078172683575,670.9392500999413,0.34579439252336447,0.3584905660377359,0.5,0.0,50.39432176656151,50.38351078723807,50.40359301928212,48.113207547169814,0.5175995582855961,0.482400441714404,8.451260824504798,8.158839786799753,0.45745978572611834,0.5425402142738815,30.022496890683538,32.695374384539676,0.46139594493151465,0.5386040550684852,22.05418473980519,23.828073493380447,1.5154214376615645,0.3925046583880061,1.4998725976369616,1.562491289652307,0.3078264317760855,-0.27770216397984004,-0.3404638246269054,0.0001315336987842125,0.007416733869430337,0.7506402431278443,1.0469109142912192,5.709657378981445,0.8002279940773007,1.233372828130065,1.3072842327220506,1.4868942373646181,1.5272577166930215,1.4893148302298163,2.0449941002281897,0.6930480079477815,Stress
108.444068553979,553.018691588785,36.01099971062595,,,,,,,18.755376587618713,18.782581156397956,0.06511714750032915,0.033914543708705024,547.0,34.099799999999995,0.06233967093235831,44.5,1.9200360783157226,522.0,576.8,3.7383177570093453,16.822429906542055,506.0,693.0,6.294117647058823,23.4375,,,0.03058086392998805,0.013856467362170397,0.0007783520545704178,0.04521568334672887,2.206974052670669,0.6763331142312687,0.30645268049836616,-4.279003197782112,13.28129050387566,47.42644610085613,0.2800397583161077,1978.8402295120013,3.5709215220476094,4.003380840882494,677.4244683831123,0.308411214953271,0.32075471698113206,0.47058823529411764,0.0,55.80389329488106,55.4194713270697,56.21720981387517,49.056603773584904,0.6353957143240272,0.36460428567597297,10.621631118573436,8.0459987097995,0.5079818081190272,0.4920181918809729,33.80217624332578,33.266810351648594,0.5173039676378247,0.4826960323621756,25.054003336831276,24.201433492777337,1.364073645638642,0.9235674443309785,1.5174246401717264,1.3755325662463576,0.29831606256467147,0.37045775322429186,-0.6536347722045939,0.000239790026067831,0.04186158092546449,0.6683395980816091,0.8495993573754828,5.7050758369658086,0.792623383143456,1.2287472200491494,0.9138905124611761,1.415043253477243,1.5343943556446356,1.5341851275005953,1.8579845462973377,0.6930480079477815,Stress
107.9103976149098,556.2075471698113,38.07579333035425,,,,,,,16.36052158907737,16.438652743741013,0.0684560889619314,0.02941441854272874,553.0,32.6172,0.05898227848101265,43.0,2.327297031640755,522.0,577.0,1.8867924528301887,16.037735849056602,506.0,707.0,7.066666666666666,15.625,,,0.04901795172365339,0.010266232121653606,0.00041108266617434486,0.05969526651148134,4.774677909363105,0.8211363243386416,0.17197732285321274,-4.578895204379441,11.623882828670117,52.61486475012544,0.22092393250221942,1921.3635813644037,4.526444865768238,3.9905796645368787,952.6331376451824,0.33962264150943394,0.34615384615384615,0.5,0.037037037037037035,50.43685464654487,50.47142804200835,50.40456717638108,50.0,0.5674790962462196,0.4325209037537806,8.756590924291519,7.644756875944957,0.44871722711583684,0.5512827728841633,35.244782106730575,39.06570525311269,0.4542441549895405,0.5457558450104596,25.679491334197998,28.147572138777655,1.5973176488032044,0.4813482374826359,1.6620446627698644,1.6132914903207758,0.5847899390438087,0.15434327661139058,-0.6012846181884012,1.6156558014094868e-05,0.009351968727343953,0.7105217268774342,0.9450008377565863,5.7535410912127825,0.7566250789918432,1.215333432366712,1.1306737309675783,1.553087200374748,1.4828781733457006,1.400669283811619,1.6812464232708773,0.7616513722147018,Stress
108.75495307316996,551.7289719626168,38.27151512140439,,,,,,,15.961332993938703,16.037134019678806,0.06936651339019684,0.028929662579002986,544.0,32.6172,0.05995808823529411,43.5,2.3977643431120668,522.0,569.8,1.8691588785046727,14.953271028037381,496.0,707.0,6.294117647058823,31.25,,,0.03268032425061659,0.006992440600252975,0.0002690576881769624,0.039941822539046525,4.673664907419345,0.8181981234999678,0.17506563686264617,-4.962925627703936,11.339966216112357,53.18475865752443,0.21321834492348513,1894.7365211276579,4.690027963395255,3.9845189362046525,997.7520213208699,0.32710280373831774,0.33962264150943394,0.5,0.04,49.88009592326139,49.87218534155773,49.890075098002114,51.886792452830186,0.577744862062581,0.4222551379374191,8.61946855062643,7.368853370776216,0.43908089855457466,0.5609191014454254,35.241912208632655,39.83247641483201,0.4451107383495421,0.5548892616504576,25.654313616000422,28.643726864168254,1.5891871291567572,0.3421697437720046,1.4219982354386107,1.4270335928354945,1.0,0.8953235157676875,-0.4852840366849065,0.0003615089465914203,0.016985655269696833,0.766637418738032,1.0274078423763182,5.806522126426309,0.758937285989579,1.2242457710320598,1.2010134580217584,1.4725503014025052,1.4752690131648343,1.4398476569958698,1.8247771885731434,0.7560523723066708,Stress
109.18150599732735,549.6388888888889,38.311672737075476,,,,,,,15.855362605897286,15.929907305022384,0.06970335162150489,0.02884687187609553,541.5,28.9107,0.053390027700831025,43.0,2.416322709820949,521.4,568.4000000000001,1.8518518518518516,13.88888888888889,496.0,707.0,5.4,31.25,,,0.03874441531842696,0.008669220176331377,0.00027839580533300066,0.04769203130009134,4.469192675969472,0.8123876098846886,0.18177502488376443,-4.747976437294804,11.264145479054449,53.2222096238888,0.21164370210586925,1883.393315575706,4.724922074457836,3.9819111346768157,1005.883172413338,0.35185185185185186,0.3644859813084112,0.5641025641025641,0.038461538461538464,50.20242914979755,50.194676673582904,50.21023268410676,51.4018691588785,0.5931819026729619,0.4068180973270382,8.67549139492376,7.184561540435288,0.44219013657700246,0.5578098634229978,35.391374253285434,39.74989592078257,0.44866360892322227,0.5513363910767779,25.766388207115014,28.562844310759292,1.6312046830998184,0.3750937439270636,1.6932959053645735,1.6015207208221254,0.9305505312181275,0.5214706453484927,-0.7446726612435682,2.2183456209239667e-05,0.0075934955473631145,0.706813402290686,0.8576713973945316,5.746611085593272,0.7367171555899894,1.0754743199651964,1.0197099240120753,1.4105544361720654,1.4147810000088448,1.3987426817329813,1.8414296501497236,0.6254525464966174,Stress
108.39276417116967,553.5981308411215,38.51239932974395,,,,,,,15.974626106588005,16.041735773062662,0.06956743020650971,0.028855997187556624,550.0,34.099799999999995,0.061999636363636354,45.0,2.41084824601067,522.0,573.8,1.8691588785046727,14.953271028037381,496.0,707.0,6.294117647058823,31.25,,,0.050190097677998785,0.01124786107161791,0.00038206623873501827,0.061820024988351714,4.462190398550092,0.8118744320704453,0.1819452689276211,-4.487577295375428,11.343220147135431,53.380680353854906,0.2124967323747547,1902.2620255910792,4.705954716689108,3.986240448236464,1004.8282579651884,0.3364485981308411,0.3490566037735849,0.4864864864864865,0.037037037037037035,52.201257861635206,52.272484710306955,52.122570451686336,50.0,0.619075785582255,0.3809242144177448,8.929885617568521,7.004760286167305,0.4618408721553043,0.5381591278446957,36.27690995477738,39.1597093857118,0.468641164175135,0.5313588358248649,26.41739060741885,28.129606341362756,1.58126073132157,0.43855382940724663,1.551302864746463,1.5145179003555493,0.4672795762868365,0.24799524732988232,-0.5838778775244823,0.00017158128131649578,0.009286369605138862,0.7342730488278093,1.0296194171811586,5.804048645057239,0.7571038298407646,1.010292558301685,1.120569472183487,1.48574652868305,1.4344410581370306,1.4130187559930218,1.688356568891436,0.5670392792300031,Stress
108.03057876303751,555.566037735849,37.70563147731814,,,,,,,15.976470794503367,16.046795122379848,0.06786885611471767,0.028757104843222227,555.5,30.3933,0.05471341134113411,44.25,2.360072631953898,522.0,575.0,1.8867924528301887,14.150943396226415,496.0,707.0,6.625,31.25,,,0.0268531120570979,0.008988662856471454,0.00046723459509934466,0.036309009508668694,2.9874423466405577,0.739571594501546,0.2475601229035298,-4.711791178327263,11.346797647346005,52.246560782056385,0.21717788649627176,1862.4339949701073,4.604520359475765,3.9770510001723434,962.2814113342666,0.3584905660377358,0.3714285714285714,0.5128205128205128,0.037037037037037035,48.13639968279143,48.06358305664935,48.21793474739402,53.333333333333336,0.5901645460990262,0.40983545390097387,8.72027919454241,7.266890140059385,0.4555754776339353,0.5444245223660649,35.26451190298541,38.55019213697013,0.46164215695107824,0.5383578430489218,25.686855286182553,27.73918713755872,1.5617333581501587,1.8247182805205764,1.6681839074657705,1.89192978418708,-0.967483448048684,-0.45398650554845954,-0.3773805912343484,0.0014642602216955291,0.16640564323336254,0.8110545379866254,1.1256932472707804,5.685190973308664,0.7598073999359762,1.0396529460286952,1.1313505762221763,1.2051052694755435,1.4798742413533257,1.4328527469138899,1.9118419216304152,0.6347094768455848,Stress
109.56161875686176,547.7383177570093,30.4396515391127,,,,,,,12.785974037024777,12.772981508002491,0.05557334689266071,0.023343216317936993,545.0,32.6172,0.05984807339449541,43.5,2.3807065031547516,521.0,570.8,0.0,10.2803738317757,496.0,656.0,7.133333333333334,31.25,,,0.03582408243563073,0.0198763657906229,0.0013414135984552338,0.05704186182470887,1.802345701070339,0.6280314367318351,0.3484522621597361,-3.918223901777734,9.031861840278935,40.78683492212848,0.2214406157654266,1157.3032252797418,4.515883396293055,3.770417273418569,736.7543624487429,0.411214953271028,0.41904761904761906,0.5454545454545454,0.03125,43.50940017905103,43.83766714689618,43.14631556411487,51.42857142857142,0.43845576778810075,0.561544232211899,6.015060463615672,6.807209063786365,0.37298006637615744,0.6270199336238427,24.909374157312403,32.296888117216135,0.37607441325824675,0.6239255867417532,18.119849244543058,23.33909892534491,1.4385924622362896,1.3438539642574012,1.5654963911067936,2.039014827652409,-0.8755015784493274,-1.6984783930948808,-0.14764144829734044,0.001199373820254171,0.14605467571934555,0.7622108770204417,1.1167123303117277,5.782315673475065,0.8445992362933943,1.275359039677814,1.1387273755275729,1.305262417670215,1.5871911406199126,1.520297520426498,1.7143666079790822,0.5670392792300031,Stress
110.39754580558753,543.4678899082569,25.70796418151655,,,,,,,12.668128570609058,12.715746310103647,0.0473035567673673,0.0233098013808094,545.0,32.6172,0.05984807339449541,41.0,2.0293419062039537,518.6,569.0,0.0,10.091743119266056,485.0,599.0,7.266666666666667,39.0625,,,0.03093902066233585,0.012870578876957698,0.0010170910240529759,0.04482669056334652,2.4038561868981847,0.6901919430928009,0.28711864996524183,-4.352811279601025,8.991390443722109,34.94367717618289,0.25731094064280424,987.0640488025182,3.8863485458559928,3.7013154441299285,543.2132359220784,0.42201834862385323,0.42990654205607476,0.5434782608695652,0.030303030303030304,47.41992882562277,47.25918404469542,47.57358018833409,46.728971962616825,0.47951765520424633,0.5204823447957536,6.231889649065589,6.492627018971337,0.5340071741093219,0.4659928258906783,25.53536972230605,23.853835493237142,0.5306177976501927,0.46938220234980726,18.586171680216925,17.480841989816977,1.3766185698350375,1.0046538177794897,1.4942499249540928,1.6233753739990524,-0.17665619672291655,-0.49453272178086305,-0.37147269361862795,9.029526282348486e-05,0.04634566751152199,0.7727631309331375,1.327296020357935,5.863329366216461,0.9474955418550689,1.1952950879081956,1.346559068287097,1.524122144195366,1.7953755521115389,1.5056480616778534,2.725456968356125,0.6830277758949191,Stress
110.2746130930662,543.9907407407408,36.68978196147743,,,,,,,18.12495568798966,18.20182120519906,0.06744560010620351,0.0333185003540856,547.0,37.065,0.06776051188299817,49.25,2.0242687812908464,514.8,572.0,3.7037037037037033,13.88888888888889,456.0,662.0,9.818181818181818,70.3125,,,0.01270185760696091,0.008288273472698348,0.0006730522668282399,0.0216631833464875,1.5325094724252224,0.5863338459451486,0.3825972083665266,-4.792913597786117,12.870631204141352,50.127567823488405,0.25675754406162365,2026.872135049496,3.8947248995339856,4.013796462111149,780.9323462208756,0.42592592592592593,0.42857142857142855,0.5333333333333333,0.03125,52.18356772760917,52.08305832986092,52.277782527796205,45.714285714285715,0.5482916559984069,0.4517083440015932,9.534693354192916,8.654260593204617,0.5166821364087685,0.4833178635912316,36.03199898468014,34.84921957614603,0.5186387954430247,0.48136120455697495,26.355410527920842,25.390592071489134,1.4315367786368471,1.50628786172829,1.5686149779964376,1.8543698467835887,-1.0322587740100868,-1.1739973512978716,-0.3102919926213302,0.00034471268657970704,0.10819311638274878,0.630452258450843,0.9265472320413443,6.022300321804544,0.7771501488506971,1.044992444620238,1.1596410168757965,1.2156203287379246,1.49611424344112,1.468108778280173,2.1321381858783646,0.500362037197294,Stress
111.04867594880896,540.1272727272727,39.76585347487827,,,,,,,17.709428370532155,17.753886214152182,0.07362311714808983,0.03278751002724168,544.0,41.5128,0.07631029411764706,53.75,2.245462283867231,509.6,571.2,3.6363636363636362,12.727272727272727,456.0,662.0,8.461538461538462,62.5,,,0.03099279678624433,0.008468639603131512,0.0003567590284715767,0.03981819541784742,3.6597137484495024,0.7783576443133496,0.21268265711850104,-4.771385396779718,12.553893334441367,54.416901019331675,0.23069842455713493,2146.1600805986254,4.334663324726517,4.0386322225254485,943.5157803750801,0.4,0.40186915887850466,0.5348837209302325,0.03225806451612903,45.254365983295344,45.114950377270766,45.39385035789823,52.336448598130836,0.4856516015796402,0.51434839842036,8.767046886558273,9.02234879495233,0.44635684962997724,0.5536431503700229,36.35590060484434,40.490092711161076,0.4483504428367693,0.5516495571632307,26.444400351496267,29.3330051779237,1.4972136422369706,1.395922078336386,1.6619207994256242,1.8455761422843016,-0.6487874952597199,-0.7938080346409455,-0.3684343877721658,0.00020837715338625906,0.09204787765483097,0.5906924950098786,0.8886392005436453,6.135727440718713,0.6907899201282894,1.0209241355150112,1.0489807578928463,1.25187900310451,1.490066630269444,1.3959207448291153,1.8931615046330823,0.61648724668406,Stress
113.44475004355148,529.1081081081081,38.83399432815424,,,,,,,17.838161340227867,17.903373303552936,0.07339519794359232,0.03371364200788839,524.0,34.099799999999995,0.06507595419847327,48.0,2.1770177759620024,498.0,558.0,3.6036036036036037,13.513513513513514,456.0,662.0,6.529411764705882,62.5,,,0.03480876284223234,0.0075705451602680034,0.00027539987048000693,0.042654707872980355,4.5979202429062696,0.8160591076110022,0.1774843982711594,-4.8834901982383485,12.659596669056482,53.39307555383546,0.23710184397023534,2123.5118064844983,4.2175968910875925,4.034024789923203,900.7618778458454,0.42342342342342343,0.4259259259259259,0.6086956521739131,0.03225806451612903,46.86098654708519,46.76939486818436,46.961536434161275,52.77777777777778,0.49622878692646144,0.5037712130735387,8.926046825252795,8.993626693437827,0.4821133189429539,0.5178866810570462,37.073151217674805,38.42397657568772,0.4828659221502738,0.5171340778497261,26.96379844472203,27.904186934848287,1.5121076168612078,1.09148261684145,1.8446369910831744,1.7285315354427606,0.7568546169577273,0.5088853897542149,-0.6063740767364684,0.0011457964151204022,0.11766060942639589,0.7055021979889151,1.085708883832202,6.122980505872803,0.7122566676886369,0.9592538007716358,1.233049981390425,1.3611336880747156,1.478595613482875,1.3819319126748861,2.1088440293621935,0.5508985837581167,Stress
114.1729152277546,525.5398230088496,38.98306303434638,,,,,,,17.9518204409151,18.03178053867974,0.07417718187588221,0.034158820426083696,521.0,35.5824,0.06829635316698657,46.0,2.1715381547320782,491.4,552.6,3.5398230088495577,15.04424778761062,456.0,662.0,6.277777777777778,54.6875,,,0.0283698963276538,0.007263014985449611,0.00030930488318748034,0.035942216196290885,3.9060770746706073,0.7893196171520852,0.2020747676154463,-4.9249602491013045,12.75039429576806,53.867072675814846,0.236701080314927,2157.7288233481468,4.224737794476966,4.040966972957558,910.2970312454099,0.40707964601769914,0.40909090909090906,0.5555555555555556,0.06666666666666667,49.34593023255813,49.31682925323886,49.377002213328915,51.81818181818182,0.5195046268077798,0.4804953731922202,9.190427844445761,8.838643652824883,0.49668794853320575,0.5033120514667943,37.96340747406291,38.21571943088057,0.4978985764206394,0.5021014235793605,27.619596946784903,27.735922855039494,1.4906144762137714,1.786404084700374,1.8621895922879075,1.9790474645315763,-0.3524773802719938,-0.3927649426944182,-0.43458486058977586,0.0010707912701427831,0.21502127624619727,0.6508101359626561,0.9907233266569251,6.0677935641085154,0.7218279760743023,0.8772505573046315,1.0446561615768242,1.3700462847129273,1.4848462763626502,1.3848995304248455,1.9686351756975395,0.5432000943516521,Stress
113.49557108668456,528.7142857142857,43.27066054903789,,,,,,,20.092130143259915,20.18208269521414,0.08184129258126595,0.038001867333915,517.5,40.771499999999996,0.0787855072463768,53.0,2.1536123965210043,491.2,562.8,4.464285714285714,22.321428571428573,456.0,662.0,6.588235294117647,62.5,,,0.029199105585273114,0.009834925976339575,0.00024042717347215367,0.039274458735084845,2.968919710785726,0.7434629661538488,0.2504153155280481,-4.621815353723626,14.27088753225359,59.76078233801082,0.23880021268022456,2679.274004995288,4.18760096055313,4.134987240431646,1001.0172380882425,0.39285714285714285,0.38888888888888884,0.5476190476190477,0.07407407407407407,49.20424403183024,49.15935228243845,49.25315610380804,57.407407407407405,0.5662575318009372,0.4337424681990626,10.739476879083247,9.399226273766077,0.43098709050397066,0.5690129094960293,39.232718771361085,45.07931769069266,0.43828560418200474,0.5617143958179954,28.76232419180578,32.56140612752965,1.5176299139748046,2.0586422237653625,1.8304013407728577,2.05139442152051,-1.1531375146669465,-0.9638829321834521,-0.39265105019392593,0.0004726858133717932,0.2189583505688748,0.6304544274511841,0.8968726460170536,6.112940301425309,0.7217229374653124,0.9620702393841901,1.0805141780475895,1.6051644215053154,1.497856953017478,1.389082534287445,2.092377734446236,0.48623963728982883,Stress
113.9441312354856,526.6875,42.52736930071786,,,,,,,20.034429824139703,20.121868667934365,0.08074497553239418,0.03803855193855883,514.0,36.323699999999995,0.07066867704280155,50.0,2.1227142311520226,492.2,560.2,4.464285714285714,20.535714285714285,456.0,662.0,5.894736842105263,62.5,,,0.03663249421871707,0.009685123992671041,0.0004743862377076005,0.04679200444909571,3.7823464362911334,0.7828793540693257,0.20698245579984367,-4.637164179657784,14.22830978524151,58.51712686004104,0.24314778507960963,2615.689442413992,4.112725105320567,4.124556289425841,962.659426914077,0.39285714285714285,0.38888888888888884,0.5476190476190477,0.07692307692307693,51.35671740569159,51.471356315079156,51.24425863639574,57.407407407407405,0.5829012636635018,0.4170987363364981,10.864872504795192,9.190657311540988,0.4250810835456754,0.5749189164543247,38.15213832076971,44.369679709312656,0.43389354151752957,0.5661064584824705,28.0502327351539,32.04010501953117,1.5656641429475224,1.6455237005671908,1.8711176335868496,1.9586155722037235,-0.3842953927528914,-0.31357359685943376,-0.4468266919603075,0.0005328955002429227,0.1552657331829091,0.625482650604174,0.9287132518727124,6.040620074013613,0.740085459958532,0.8402695497971645,1.2075694320990171,1.6888680224446126,1.42791971617954,1.4043267942571886,1.804860920091259,0.48623963728982883,Stress
116.09695429477652,516.7982456140351,32.59979364301956,,,,,,,14.416067731859389,14.472902881783504,0.06308031019781431,0.027894962597504378,509.5,33.3585,0.06547301275760549,42.0,2.26135130948187,488.6,539.0,0.8771929824561403,14.035087719298245,470.0,646.0,5.428571428571429,46.875,,,0.048894698337001816,0.010379975877987517,0.0004799438135520044,0.05975461802854134,4.710482848104805,0.8182580685838814,0.17371001975160483,-4.5678767251403976,10.233887771163442,44.95461786634918,0.22764931072462807,1445.3227311140429,4.392721404764683,3.8669349430006266,789.8924485781156,0.3684210526315789,0.36363636363636365,0.55,0.03571428571428571,47.773972602739725,47.80087839223138,47.75827659011158,59.09090909090909,0.5950434338272867,0.4049565661727134,7.898349737219071,6.515777554740274,0.3169765454655241,0.6830234545344759,25.309751103426525,37.152848700901544,0.33069040579768993,0.6693095942023097,18.74789894213254,26.67198458809298,1.59978424340936,1.095971923617741,1.8111961083265287,1.56228376585788,0.6337388634433516,1.1495751959480591,-0.7271156195744533,0.00020165759425664687,0.06709375674980063,0.7089630915575857,1.050756267490475,5.792509672637305,0.7776093906961854,0.97517514008711,1.1882056672136923,1.70873954032385,1.4755997727073236,1.3734847526650242,2.1624476317111565,0.7192515804383939,Stress
115.82102957251766,518.0877192982456,34.03006515679005,,,,,,,15.76318102751455,15.83303668185292,0.0656839834051347,0.0304256990473851,510.0,31.875899999999998,0.06250176470588235,42.0,2.1588323509950658,490.2,540.4,0.8771929824561403,16.666666666666664,470.0,646.0,6.0,46.875,,,0.04479435301201161,0.008630238146342869,0.00039268697925462644,0.0538172781376091,5.190395937219133,0.8323414814378729,0.16036184744006599,-4.752483179094554,11.195647604513553,47.015720297790836,0.2381256212518265,1653.6446374226553,4.199464109502369,3.9254122968059257,789.7633198918986,0.37719298245614036,0.3611111111111111,0.5384615384615384,0.03571428571428571,50.46874999999999,50.47758158476552,50.45991283042732,55.55555555555556,0.5952703183987462,0.4047296816012535,8.63805947123377,7.122649988392161,0.35363893090064735,0.6463610690993524,27.9590962090716,37.79903298091075,0.3666056761726087,0.6333943238273912,20.692113621579278,27.198336687646194,1.543553470526852,2.062723620676099,1.7803806171261272,2.0417854664289052,-0.9941921226853214,-0.6338466777396361,-0.3732719950057597,0.0011588624524870444,0.23304327512708067,0.6876857360108719,1.0986122886681096,5.900743851827105,0.7972276906834531,0.9759977084327205,1.073579867001405,1.3456344352066931,1.515176964392947,1.4249574615098701,1.890935350603661,0.7192515804383939,Stress
116.11798658238462,516.8173913043478,34.57399453922225,,,,,,,15.38112308540638,15.440577281859676,0.0668978929907218,0.02976123355018565,510.0,32.6172,0.06395529411764705,44.0,2.2478198989270215,487.8,540.2,0.8695652173913043,15.65217391304348,468.0,646.0,6.052631578947368,31.25,,,0.04989503644483417,0.009451820598811014,0.00043088745933043775,0.05977774450297563,5.278881028604234,0.8346757954768683,0.15811604598665513,-4.661547900073424,10.918136901437926,47.651294446674996,0.22912571480416036,1634.4555380825611,4.36441628062012,3.920343220972988,831.8803411027658,0.33043478260869563,0.3181818181818182,0.42857142857142855,0.0,52.331189710610936,52.487667489468656,52.1778966527023,54.54545454545454,0.6252502780867631,0.3747497219132369,8.63800001434288,6.687394031912064,0.3823323774149431,0.617667622585057,29.46423986556434,37.45002578888576,0.3944617229995922,0.6055382770004079,21.71124679864446,26.900052700006572,1.5592325164969287,2.013701431361331,1.8008923183021501,1.9091736035946787,-0.9446187403256765,-0.27600709657206046,-0.44622773584695385,0.0004338525483320432,0.18310947460188262,0.5978479424205156,0.8602012652231118,5.8769328510726,0.7619258062556282,0.861771571405114,0.7944569475809969,1.1591973956056134,1.4110238290255461,1.3899423214529492,1.6964101136504033,0.6547860048729403,Stress
117.42153634376872,511.0258620689655,35.02308833671981,,,,,,,15.153705243559928,15.219933535058363,0.06853486474231174,0.029653499692183602,499.5,24.462899999999998,0.04897477477477477,32.5,2.3111897568156827,485.0,532.0,0.8620689655172413,14.655172413793101,463.0,646.0,5.2727272727272725,31.25,,,0.04389338769392354,0.009641801437051607,0.0004112699953720638,0.05394645912634721,4.552405272032424,0.8136472421873229,0.17872908793642386,-4.641647316754461,10.76211821184831,48.56266799828988,0.2216129931787787,1641.9131053270848,4.512370803066065,3.9223202792643765,876.5310607778961,0.3448275862068966,0.32727272727272727,0.4444444444444444,0.0,49.75247524752474,49.73898984760181,49.7693641153173,58.18181818181818,0.6163662526507118,0.3836337473492881,8.449281086411611,6.665899078617661,0.3410370613065159,0.658962938693484,28.35981067414156,39.421489845501455,0.35392625110403014,0.6460737488959698,20.924497752041106,28.27090440864326,1.6871962252798367,1.4549256560962824,1.8794694330146755,2.083375520517736,-0.3882527014015089,-0.5716321980357932,-0.3598511981360191,0.0006286502412265763,0.126072408599329,0.6023298982651464,0.7481665561511449,5.726443228177733,0.7260837593743349,1.06109012276443,1.0473512213358414,1.198632605103458,1.366357306344308,1.417391886886945,1.9062903406118368,0.5912052582006527,Stress
119.24029248539817,503.2307692307692,27.22333703967236,,,,,,,12.275922607367194,12.328083151200293,0.05409712343560695,0.024394221017391245,496.0,22.238999999999997,0.04483669354838709,33.0,2.217620451870128,482.2,519.0,0.0,8.547008547008547,463.0,606.0,5.318181818181818,31.25,,,0.04632535434752664,0.018722695590955945,0.0006749028602167167,0.0657229527986993,2.4742887113917638,0.7048580803941519,0.28487301305985263,-3.978018823055638,8.717271195245349,37.63240642708426,0.2316426724433832,1030.6054156457205,4.316993883086953,3.7200625302320756,649.8354734062597,0.3333333333333333,0.3214285714285714,0.4444444444444444,0.0,50.872359963269055,50.89994077808983,50.84291700903292,52.67857142857143,0.5608374806933244,0.4391625193066758,6.528865671502343,5.7773922205061705,0.43143255890861837,0.5685674410913815,24.71829146366505,28.376118138507895,0.4380237136612732,0.5619762863387268,18.077887319031756,20.476600566013417,1.5775360329575658,1.6231637960551186,1.810927916539742,1.9410824383982286,-0.3450032655012514,-0.18184270356868026,-0.41981430205946585,0.0005726567678815285,0.14657242614247726,0.6996024207963076,0.966721585501047,5.782686249786982,0.8106162419856587,1.0640349204689221,1.0893985031640132,1.506172667288904,1.5455720000061994,1.4279695000419728,1.859511083039385,0.41104746185541735,Stress
120.60100660625021,497.4491525423729,23.434067340011424,,,,,,,12.354451773853773,12.404916882620435,0.04710846771020542,0.02483560723887537,492.0,16.3086,0.03314756097560975,28.75,1.8968115922072633,481.0,514.8000000000001,0.0,8.47457627118644,463.0,606.0,4.538461538461538,31.25,,,0.052967595220028627,0.019454621199148255,0.0008743408467341774,0.07329655726591107,2.722622798862185,0.7226477913262499,0.2654233967438503,-3.939670643352073,8.771600847756398,32.02092434998601,0.27393340529097593,882.394105133464,3.650522282734323,3.6526327080832277,467.572391413496,0.3389830508474576,0.3274336283185841,0.40540540540540543,0.0,51.376146788990816,51.36893352381391,51.379289781505335,53.98230088495575,0.5859558741180423,0.41404412588195766,6.715910085450971,5.645413151858101,0.45298490879976083,0.5470150912002393,21.55141209957969,23.6828256916614,0.46227021942237156,0.5377297805776285,15.961936157023244,17.215500608416672,1.5085153548094807,1.4902552508813196,1.729622537274789,1.973074889116662,-0.3495618029074148,-0.621080929485319,-0.3366371454166002,0.000937059189513664,0.15098647743679636,0.7658808140296203,1.1767770615174464,5.470418820959847,0.8690965660711448,1.1003405608527959,1.468040464319125,1.8990507384808424,1.5025842467910107,1.5197969274731213,1.9014929726966603,0.6999298016300177,Stress
117.84050179185928,509.16379310344826,36.2939554113395,,,,,,,13.635949927848174,13.68311971243532,0.0712814931126997,0.026781067531794663,497.0,25.2042,0.05071267605633803,37.5,2.6616374805848886,482.0,532.0,0.0,12.068965517241379,463.0,615.0,5.8,31.25,,,0.048293340950769606,0.01528805928186861,0.0003899669204495335,0.06397136715308774,3.1588928365842173,0.7549211952153598,0.2389828443916677,-4.180683194378435,9.675426736450335,50.39261566138469,0.1920008836505883,1531.7465214018096,5.208309362887331,3.892157012683612,1049.8413278782903,0.33620689655172414,0.3181818181818182,0.42857142857142855,0.038461538461538464,52.89042277825712,52.842866818079926,52.92771055486952,51.81818181818182,0.5915446850301641,0.40845531496983584,7.448360234000407,6.189266317089583,0.5416508278812912,0.4583491721187089,37.087418667081565,34.116551552122644,0.5434278665969616,0.45657213340303837,26.74840830369939,24.517810947885433,1.6716873724063381,1.8024828237285861,1.9152711030658471,2.354962528293274,-1.0282141678785166,-1.5054177890440927,-0.2560634590026836,0.001584530984261265,0.2363070263837075,0.595705386710264,0.8153148145341527,5.722439836395749,0.6911080507276166,1.3254544609780237,1.2712884566510807,1.591791243923061,1.5129839147053197,1.4049992540488772,1.8966045343240265,0.4729642065605222,Stress
117.07165185820679,512.1652173913044,36.35182141115444,,,,,,,12.62655236243859,12.664140450332734,0.07097674769151871,0.024653279710698615,501.0,29.651999999999997,0.05918562874251496,47.0,2.8789981910892535,482.8,541.4,0.0,10.434782608695652,463.0,615.0,6.052631578947368,39.0625,,,0.020006570072052567,0.004458591495481269,0.00016184563674062315,0.024627007204274458,4.487195136026477,0.8123833280310272,0.18104479600377105,-5.412922371016128,8.954899590329134,50.37213055875651,0.17777488247958267,1417.1013558911718,5.625091610536428,3.8583710235332016,1133.3913960436275,0.34782608695652173,0.3302752293577982,0.5,0.037037037037037035,53.46534653465347,53.26753386012123,53.66437757290551,54.12844036697248,0.6236038514442915,0.3763961485557084,7.0816977115573145,5.5018098389916,0.5350264582628488,0.4649735417371513,36.84494817779103,34.34823621096584,0.5377476370404737,0.46225236295952643,26.530177616272972,24.597471844772276,1.6261494432743517,1.9373589088372194,1.7990527796318125,2.256427571098086,-1.1925401488585585,-1.21439159659871,-0.26391839974515374,0.0021733745477721957,0.25286060450238185,0.7040121477822066,0.8653706414468983,5.840073451441926,0.6910067583604701,1.5527130892295824,1.2589954710074345,1.556324410406521,1.5849473041913413,1.4436628285204764,1.9844780358283132,0.4762080035439565,Stress
116.22055641369555,516.3739130434783,39.99045080524109,,,,,,,14.33802452810083,14.386561118510684,0.07744475426641842,0.027766748408325537,505.0,37.065,0.07339603960396039,58.0,2.789118593489957,482.0,551.0,0.0,13.91304347826087,457.0,615.0,8.214285714285714,62.5,,,0.03691096351480749,0.006944694509456085,0.00019040828281552635,0.0440460663070791,5.314987356830242,0.8380081721140021,0.1576688928595635,-4.969777290862646,10.172834924853625,55.48567374272999,0.18334164908985212,1773.2612908955284,5.454298054829428,3.9557428437766,1210.54160946349,0.3217391304347826,0.2962962962962963,0.46875,0.041666666666666664,52.90880503144655,52.75455406924296,53.05909107194152,56.481481481481474,0.6318911076975594,0.3681088923024407,8.094847044420689,6.1783951291319505,0.48994609164871167,0.510053908351288,38.83783503172153,39.62679094669993,0.4945714566877197,0.5054285433122803,28.052664567058354,28.358906247466074,1.6395993405007274,1.9468433076960947,1.821922875652516,2.3094146235367323,-1.2226809648303885,-1.3755740363069853,-0.24959887837038272,0.0023543140215886334,0.26762188650687796,0.6899335583543871,1.0105554332769269,5.9963705684074675,0.6911648559413949,1.0872804411407582,1.1749245088564764,1.3958769712161292,1.7033885492974772,1.4165977811183728,2.140339764858114,0.5952600044299456,Stress
112.99449886677958,531.0540540540541,46.23159837125132,,,,,,,16.32983883458855,16.404572787496893,0.08705629496342301,0.03074986192069705,524.0,50.4084,0.09619923664122138,68.5,2.831111735979125,486.0,568.0,0.9009009009009009,15.315315315315313,457.0,666.0,10.090909090909092,62.5,,,0.05001406774588998,0.00688568637744875,0.00020722912416532176,0.057106983247504045,7.263483261405952,0.8757960043017318,0.12057520789718304,-4.9783104600567185,11.599784660507357,64.64641914231034,0.1794342952696576,2355.831765434771,5.573070624526817,4.0791143833637475,1441.1162380114315,0.2972972972972973,0.2830188679245283,0.43333333333333335,0.043478260869565216,50.03723008190618,50.0360712323643,50.03666086606208,56.60377358490566,0.5283469130331027,0.4716530869668973,8.431591968262344,7.966385802375728,0.5238862313100127,0.4761137686899872,46.79106885559816,44.606674200997546,0.5240253706124361,0.47597462938756385,33.61916021979575,32.0407450446009,1.7211711365367195,0.8603728838336433,1.8109874388348217,2.0954552971566085,-0.2767758489139336,-1.163976256084136,-0.1693667784434848,0.0003032374814890327,0.05210993582345898,0.6710547748927707,0.8873031950009029,6.206269807655113,0.6598485742033808,0.9964852675537781,1.0548419227233925,1.41774328381934,1.5911901389350827,1.3609796155826857,1.974476485096029,0.4896876300072149,Stress
111.64302895114892,537.5181818181818,42.87377073278455,,,,,,,16.4473025590183,16.516844437933177,0.0797624567559034,0.030598597620241398,537.0,41.5128,0.07730502793296089,54.25,2.6067356989961996,497.4,568.4,0.9090909090909091,15.454545454545453,457.0,666.0,10.0,109.375,,,0.05214620737202168,0.004775000252637542,0.0002226070765834888,0.05714381470124271,10.920671123151868,0.9125433372736953,0.08356110416502698,-5.344361252141059,11.67917270586586,59.557351071036635,0.19609959972759036,2185.2308685784797,5.099449470519772,4.0464674366929545,1214.838809539032,0.2909090909090909,0.2830188679245283,0.4,0.043478260869565216,51.87125748502994,52.00544119863243,51.734334712299436,53.77358490566038,0.5347283456555654,0.4652716543444344,8.543732812440378,7.969560144003487,0.5320770239758305,0.4679229760241697,43.443281891286524,40.74014390147543,0.5321752787276639,0.4678247212723362,31.307460068298052,29.353647252103222,1.7235805222533829,1.2164063466532395,1.8382846924443264,2.2691006038116996,-0.8153290163314946,-1.6832836658885562,-0.14582895135930607,0.0007906896536314096,0.1121418907679489,0.6767904904661357,0.9951493067864748,6.176547667952105,0.7148186521477118,0.8277463425383185,0.8228009533605508,1.4159593306133489,1.690858085826554,1.357785507898196,1.7388763369125244,0.554838522015654,Stress
110.35089037550762,543.6422018348624,37.34139866644383,,,,,,,15.37102854458733,15.421467215876143,0.06868745388126934,0.028274163581686874,538.0,25.2042,0.046847955390334574,34.0,2.429336368618808,519.8,567.4,0.9174311926605505,13.761467889908257,457.0,666.0,5.45,85.9375,,,0.044895990979017544,0.009997281280972764,0.000230061098977019,0.055123333358967325,4.490820025686927,0.814464370045466,0.18136205979906386,-4.605442094854681,10.904624044192047,51.55155963159585,0.2115284992756771,1766.0474935727168,4.727495365514496,3.953972488659291,974.8390369736543,0.3669724770642202,0.34951456310679613,0.5277777777777778,0.038461538461538464,46.40792733278284,46.43211800313539,46.39591242517213,54.36893203883495,0.44911235646823694,0.5508876435317632,7.317882335017343,8.104746503614438,0.560675328814413,0.4393246711855871,38.600909022002455,34.1691838229284,0.5558847160967787,0.44411528390322136,27.781122900218318,24.8316334441869,1.6732094083577729,0.16602911166321666,1.7673666764766285,1.6843521206450203,1.2690817069458973,0.2481526395058551,-1.0,5.291931011541318e-05,0.0024148575244576317,0.6426297537931318,0.9624801143435296,5.942137535627314,0.7514900915077171,0.9443271810331871,0.9738737265520161,1.2742927028743352,1.4600478109230526,1.405764732154187,1.844261610434701,0.7451212100671846,Stress
111.47649932266408,538.4128440366973,35.126546627126224,,,,,,,15.000308638800044,15.063345534035363,0.06524091506392826,0.02786023551432523,537.0,23.7216,0.04417430167597765,33.0,2.3417215920656007,512.4,557.4,0.9174311926605505,11.009174311926607,457.0,666.0,5.190476190476191,85.9375,,,0.04293243161884177,0.006978755714043419,0.00012929088064846643,0.050040478213533655,6.151874829555706,0.8579540634212107,0.13946221065801057,-4.964884642562548,10.651393774472501,48.63723478443892,0.21899669711240094,1627.5157080462395,4.566278912812763,3.9184952988363566,888.3647182948273,0.3486238532110092,0.34285714285714286,0.5,0.0,47.946353730092206,47.89446447354654,48.00595370030157,53.333333333333336,0.46631825850788033,0.5336817414921196,7.276899822591856,7.784780262686787,0.543835060602434,0.45616493939756575,35.8676131492883,32.849580430343956,0.5402844279014029,0.45971557209859704,25.87893877320935,23.87150747426683,1.6860938923254776,1.1634878550708705,1.7259003213596014,2.2678378198609126,-0.6169028830371257,-1.6088820203584884,-0.03421301637196642,0.0014394947479095053,0.1337781255282169,0.5782759987267863,0.8323050758010623,5.859748086165424,0.7572819774064257,0.7696891812807602,1.091138841151342,1.3082854610179624,1.3518538278868468,1.415714572055294,2.05353387450989,0.6830277758949191,Stress
111.60481587505022,537.6,33.88436894374154,,,,,,,15.15576615372585,15.205601914940777,0.06302896008880494,0.028191529303805522,536.0,22.9803,0.042873694029850744,30.0,2.2357410770297155,514.0,556.2,0.9090909090909091,13.636363636363635,457.0,666.0,5.7894736842105265,85.9375,,,0.03197477326713151,0.01474033902624174,0.0004552024474895953,0.04717031474086284,2.1692020251507023,0.6778579588198572,0.3124918522850651,-4.217167392061996,10.751984226077775,46.56322998547521,0.23091147734879466,1572.8292963856916,4.330663904113729,3.9036516999336697,806.5987974281741,0.37272727272727274,0.3619047619047619,0.5263157894736842,0.0,46.48469809760131,46.44475493035489,46.53480969091809,53.333333333333336,0.44334385110037144,0.5566561488996286,7.168604389202189,8.032630213581859,0.5598016562827526,0.4401983437172476,34.83855939483144,30.89351333165362,0.5538915918955398,0.44610840810446034,25.150686964734057,22.571357005297756,1.629267900903242,1.238423706474576,2.0350866053574492,2.24847975414053,-0.7299114569040892,-1.768966939491698,-0.3276897093721279,0.0026259954499025275,0.17962246934944656,0.6844926194297267,1.068870319469372,5.885638577043014,0.7945230710577923,0.9795346525352027,1.1612660170474236,1.4618921081231138,1.4045572216052902,1.4674916809491638,1.9368825194408525,0.739784696020872,Stress
111.06277860869984,540.1272727272727,29.68183242288089,,,,,,,13.724350555313633,13.719181321041201,0.05495340435784324,0.025409475226116734,537.0,21.4977,0.04003296089385475,28.75,2.162713077260259,519.6,557.0,0.9090909090909091,10.0,490.0,666.0,6.111111111111111,78.125,,,0.035449419473000544,0.03689695289627283,0.0015680218031281102,0.07391439417240149,0.960768212287294,0.47960102859419523,0.499184946442402,-3.2996263086821314,9.700926144436052,39.38950424303919,0.24628200661221505,1200.4486449002166,4.060385952492894,3.7863136956680297,639.7463588163823,0.4090909090909091,0.4056603773584906,0.5116279069767442,0.0,43.22111010009099,43.58117057079177,42.827685681833394,52.83018867924528,0.34440602016462923,0.655593979835371,5.721547964590624,7.893973322403289,0.5057307133514282,0.49426928664857195,28.011745989666014,27.69251037957433,0.49641806259239085,0.5035819374076091,20.21625613832444,20.361605363252263,1.3919829732830553,0.7720265725178455,1.5459195573224949,1.2970998330268124,0.8760998336271459,1.1197384566649946,-0.8222942488678794,0.0001724327583508844,0.037327112305815265,0.6816852853834647,1.1125985306428499,5.835549713367317,0.846790749146683,1.2606427421137936,1.2798172768795175,1.528151049072956,1.4835409941947082,1.5255502782900723,1.682054401165901,0.863082145357684,Stress
112.85291526410093,531.6666666666666,22.64763015229522,,,,,,,11.981804386804033,12.036294847725545,0.042597423483940855,0.02253630919148094,533.0,19.273799999999998,0.03616097560975609,26.5,1.8901685773837056,514.0,546.0,0.0,9.00900900900901,488.0,591.0,5.55,70.3125,,,0.04961390845630173,0.011854601035000578,0.0005088987430351066,0.061977408234337415,4.1852027166344286,0.8005160246248257,0.1912729391680622,-4.435039213763622,8.510945707187433,31.009673219728207,0.2744609930869188,829.1343015917003,3.6435049977513962,3.6255949924012425,451.93559741886946,0.42342342342342343,0.4150943396226415,0.5454545454545454,0.03571428571428571,49.51923076923077,49.5217534538873,49.51758718545258,50.943396226415096,0.49259118541033414,0.5074088145896655,5.973565621848655,6.062745313300317,0.4979832210585068,0.5020167789414932,21.882883317868206,21.971327927344174,0.4976054784513826,0.5023945215486175,16.039701813655494,16.11670145570797,1.5511331647031112,0.7816988647698508,1.7096623919894092,1.7274875509373935,0.4547197216911236,-0.021682263263430812,-0.4771968979982689,0.00014253821504986355,0.03773317076986994,0.6416702366087099,1.2431935174792172,5.712982532860847,0.9825366971347191,1.1368391281295953,1.4862796180336506,1.8623885233191593,1.747699536375539,1.4756506695011145,2.6694571240046305,0.8569533525126259,Stress
112.70840458453677,532.3693693693693,26.328666688586594,,,,,,,12.669577018124237,12.727532167020916,0.04945563776476253,0.023798471037378206,532.0,26.686799999999998,0.05016315789473684,37.0,2.0781014749681535,505.0,554.0,0.0,13.513513513513514,488.0,591.0,6.9375,70.3125,,,0.04684365696028958,0.008372141620173664,0.0005946330788948821,0.055810431659358124,5.595182103395654,0.8393351487801113,0.15001033626246552,-4.7828455586105365,8.999724303070405,36.305044487132605,0.24789184065757383,1026.4695046456834,4.034017405927261,3.718316161417224,585.820725536226,0.42342342342342343,0.40952380952380957,0.5116279069767442,0.03571428571428571,49.860465116279066,49.85913979267168,49.86212149221231,50.476190476190474,0.5095995922297107,0.4904004077702894,6.424580091943611,6.30239505951813,0.5072467400111469,0.4927532599888531,25.856908914406816,25.48482914607721,0.5073829538774068,0.49261704612259316,18.83951920784775,18.563360418994524,1.6176242614781917,1.5025178443592555,1.9487549311411843,2.174599382029794,-0.4285303755018859,-1.0203567253874049,-0.34968933864148505,0.0012191879106682425,0.17442909746683596,0.7051026424425806,1.148209229807482,5.826991740356825,0.8875222154883334,1.0632206788397294,1.2104322222705637,1.6723088659964631,1.7109212913737164,1.3961150681536392,2.692518343658774,0.8569533525126259,Stress
