PPG_Rate_Mean,HRV_MeanNN,HRV_SDNN,HRV_SDANN1,HRV_SDNNI1,HRV_SDANN2,HRV_SDNNI2,HRV_SDANN5,HRV_SDNNI5,HRV_RMSSD,HRV_SDSD,HRV_CVNN,HRV_CVSD,HRV_MedianNN,HRV_MadNN,HRV_MCVNN,HRV_IQRNN,HRV_SDRMSSD,HRV_Prc20NN,HRV_Prc80NN,HRV_pNN50,HRV_pNN20,HRV_MinNN,HRV_MaxNN,HRV_HTI,HRV_TINN,HRV_ULF,HRV_VLF,HRV_LF,HRV_HF,HRV_VHF,HRV_TP,HRV_LFHF,HRV_LFn,HRV_HFn,HRV_LnHF,HRV_SD1,HRV_SD2,HRV_SD1SD2,HRV_S,HRV_CSI,HRV_CVI,HRV_CSI_Modified,HRV_PIP,HRV_IALS,HRV_PSS,HRV_PAS,HRV_GI,HRV_SI,HRV_AI,HRV_PI,HRV_C1d,HRV_C1a,HRV_SD1d,HRV_SD1a,HRV_C2d,HRV_C2a,HRV_SD2d,HRV_SD2a,HRV_Cd,HRV_Ca,HRV_SDNNd,HRV_SDNNa,HRV_DFA_alpha1,HRV_MFDFA_alpha1_Width,HRV_MFDFA_alpha1_Peak,HRV_MFDFA_alpha1_Mean,HRV_MFDFA_alpha1_Max,HRV_MFDFA_alpha1_Delta,HRV_MFDFA_alpha1_Asymmetry,HRV_MFDFA_alpha1_Fluctuation,HRV_MFDFA_alpha1_Increment,HRV_ApEn,HRV_SampEn,HRV_ShanEn,HRV_FuzzyEn,HRV_MSEn,HRV_CMSEn,HRV_RCMSEn,HRV_CD,HRV_HFD,HRV_KFD,HRV_LZC,Labels
89.85407320201432,667.8135593220339,29.217413480162985,,,,,,,18.751410203378963,18.829383481332087,0.04375085392070293,0.028078810233226538,666.0,31.875899999999998,0.04786171171171171,42.0,1.5581448628806633,641.0,696.2,0.0,31.35593220338983,613.0,754.0,7.866666666666666,54.6875,,,0.053023004674318905,0.018033510992344844,0.0008305280689176236,0.07188704373558137,2.940248557079482,0.7375877754738511,0.25085898731176975,-4.0155235301451455,13.314384745211878,39.19196278511198,0.33972232567718375,1639.336049838276,2.943580460915117,3.9216380993045235,461.45878351667216,0.4830508474576271,0.49565217391304345,0.7719298245614035,0.02564102564102564,48.954211418880725,48.97124210835649,48.938525706300936,46.08695652173913,0.43749240380174553,0.5625075961982546,8.807813928943808,9.987276388243814,0.5154498741069669,0.4845501258930331,28.137806129515877,27.2813821711324,0.5073815813613464,0.4926184186386536,20.848425839726097,20.542875928439926,1.350735470088783,2.8051252326714557,1.6352944102632678,2.6401103184408976,-1.9730161390974157,-2.6798627510592397,-0.1417928524279484,0.012849471204198245,0.8815412214808523,0.6609902945407371,1.585145219865056,6.057354252876635,1.1169284966734032,1.042319975120956,1.128105980431,1.2081381603327395,1.809472634409903,1.602957058619577,2.7394769318716046,0.6416023181608497,Relax
90.68297866678282,661.7899159663865,27.85065314317338,,,,,,,18.228539739017744,18.300715719798333,0.042083828222894776,0.02754429963230749,661.0,29.651999999999997,0.044859304084720115,39.5,1.5278598034684991,637.0,684.4,0.0,29.411764705882355,605.0,730.0,7.933333333333334,62.5,,,0.06428912435809857,0.022085724688267607,0.0011314794843664477,0.08750632853073263,2.9108904174763293,0.7346797133137625,0.2523900277739455,-3.812823820876004,12.94056018603665,37.19983981139349,0.34786601909165327,1512.3211275703486,2.8746699738341706,3.8866141293834575,427.74905014901543,0.48739495798319327,0.5,0.7758620689655172,0.024390243902439025,48.48830576155161,48.46740962589828,48.51042766425537,45.689655172413794,0.43714453314290097,0.562855466857099,8.558496553008785,9.711434796772606,0.5284101734889433,0.47158982651105696,27.041243257013353,25.546022099504377,0.5185528998912408,0.4814471001087591,20.05588068538544,19.324999494441546,1.2572422636960432,1.8512097265662968,1.4364841133416504,1.9051133193949013,-1.246428758218613,-1.4956425906107214,-0.24685245041225856,0.0016208174137788533,0.22705404589725023,0.6951359070222791,1.5869650565820417,6.013356813815665,1.1476802317981363,1.2258810087293022,1.1284879631001237,1.6644389307438787,1.833367649519538,1.6321745861378154,2.9465242845617694,0.8690946760472198,Relax
90.80258462432757,660.85,27.618240836279856,,,,,,,18.015866023353652,18.09204338648084,0.04179199642321231,0.02726165699228819,659.0,28.1694,0.04274567526555387,37.75,1.5329954608054264,637.0,684.0,0.0,29.166666666666668,605.0,730.0,8.0,117.1875,,,0.060050616986703,0.021224921521788315,0.0009515758096592656,0.08222711431815058,2.829250366134848,0.7303018898894716,0.2581255793516663,-3.8525792442338083,12.793006564101832,37.06411295146664,0.3451588489613538,1489.6220974014793,2.8972167539936557,3.880046216072438,429.5310760596096,0.48333333333333334,0.49572649572649574,0.7586206896551724,0.025,49.999999999999986,50.00123825579045,49.99870383455273,45.2991452991453,0.4622773405136702,0.5377226594863297,8.698090575581341,9.381057365144699,0.529790383649039,0.4702096163509613,26.977745057078543,25.415541318538764,0.522603454337936,0.47739654566206396,20.04314730806695,19.156643466464665,1.3126338627663725,2.9150509417231216,1.5652548105756934,2.5454055473973165,-2.081814052834316,-2.4460465794430633,-0.16376205547809594,0.01276543297740623,0.8813643446924645,0.6838715030044389,1.4451348611428239,6.007589370934404,1.1444842887740958,1.0617987127998325,1.1672913759351364,1.6440647634821588,1.8065866105138766,1.642456345697871,2.906666265211588,0.7482464811909229,Relax
90.2646647444593,664.7310924369748,28.649162876814227,,,,,,,18.608363346642765,18.67652002932079,0.04309887592557669,0.027993821198317243,661.0,29.651999999999997,0.044859304084720115,40.5,1.5395853113531865,641.0,690.2,0.0,31.932773109243694,605.0,734.0,7.933333333333334,62.5,,,0.050908012159695155,0.020517574610753386,0.0007751644193952135,0.07220075118984375,2.4811905464213084,0.705089785365782,0.28417397703806063,-3.8864734620223556,13.206293961699108,38.005058485944524,0.3474877947256209,1576.7841219582867,2.8777989189220525,3.904742347957798,437.4836648976821,0.4789915966386555,0.49137931034482757,0.7543859649122807,0.02564102564102564,52.081051478641825,52.00544819405067,52.15818575202446,43.96551724137931,0.4848996573666177,0.5151003426333823,9.201681377386427,9.483904493637862,0.5419295374737287,0.45807046252627126,27.97775201911645,25.72216675315066,0.5357786447371513,0.46422135526284863,20.825771873019676,19.385230291659337,1.2754072040845832,3.0536001140072124,1.5799548725297987,2.444952891641182,-1.9489976103234348,-1.999882823038476,-0.21672845598101112,0.012067654792851932,0.8879150444900907,0.6776872703337666,1.4593194961347806,6.01970040627082,1.1451004642586657,0.9886913429389897,1.1891470764281469,1.6380430527847223,1.7975252069838201,1.6377281197516464,2.882152276169026,0.8690946760472198,Relax
90.11986942436053,665.781512605042,29.176017451029978,,,,,,,18.941479905671287,19.020053158056722,0.04382221028768323,0.028449993799854634,664.0,31.1346,0.0468894578313253,41.0,1.5403240716315074,641.0,692.8,0.0,32.773109243697476,605.0,735.0,7.4375,62.5,,,0.05724508353760252,0.018301953657215566,0.0007910134694997507,0.07633805066431784,3.1278127247925567,0.7498892497180333,0.23974876877187956,-4.000747467608014,13.449208566590515,39.06043041743384,0.34431798172371725,1650.3787604056374,2.9042921168212636,3.924553735798199,453.7716005639944,0.4789915966386555,0.49137931034482757,0.7719298245614035,0.02564102564102564,49.09670563230605,49.07295979671532,49.121117290865264,47.41379310344828,0.4564436885865457,0.5435563114134542,9.087419687743962,9.91674746788887,0.49294804505027284,0.5070519549497272,27.424429311567035,27.813987512222205,0.48907817247817137,0.5109218275218287,20.428907455445746,20.880131485121606,1.3194942062612764,2.79433236074175,1.5811246051982992,2.617546239935975,-2.013707008117372,-2.750090960408788,-0.1290986536538697,0.013615910141215735,0.9031905195546703,0.6937581592899669,1.439538875638703,6.01642007412323,1.1454243153926673,1.2854083852227387,1.2350800721671182,1.5850831122772877,1.799614522892316,1.6339187134639408,3.225419742959383,0.9270343211170344,Relax
90.45895954508678,663.3781512605042,29.026578001057974,,,,,,,18.692652413108423,18.77213214039191,0.0437557039614641,0.028177974172935858,660.0,28.1694,0.04268090909090909,39.0,1.5528335604583743,640.0,688.4,0.0,31.092436974789916,605.0,735.0,7.933333333333334,117.1875,,,0.04867145436515553,0.01832093475912433,0.0009000529078430675,0.06789244203212291,2.656603224948214,0.7168906126859734,0.26985234601600994,-3.9997108970681627,13.273901933801058,39.02189301077762,0.34016550478816815,1627.2594838517327,2.939745464851681,3.9184269213002914,458.857732033444,0.47058823529411764,0.48275862068965514,0.75,0.02631578947368421,49.70318402590394,49.70352250560628,49.70337513196813,46.55172413793103,0.45933884698406535,0.5406611530159345,8.996438041574978,9.760376901788026,0.5060865520982111,0.49391344790178876,27.760081222163745,27.424186855464765,0.5012381548912402,0.49876184510875965,20.634413087086166,20.583378997973142,1.3752936468215957,1.397536531319985,1.4515285600832963,1.969342268422404,-1.2221619776134691,-1.9575793090583193,-0.12948109281263062,0.0013084397217002152,0.14550860433933288,0.7326538864721797,1.5743465926228302,6.033226796812307,1.1475888026645915,1.2805990292311993,1.2712445109056818,1.6493226728757366,1.786278059410108,1.6104201474403959,3.2550377878447168,0.9849739661868491,Relax
90.55532064420363,662.6302521008404,28.726903927467372,,,,,,,18.284243471416417,18.36216570462331,0.04335284094921711,0.027593433009505706,660.0,26.686799999999998,0.04043454545454545,35.0,1.5711289325355937,640.0,685.8,0.0,29.411764705882355,605.0,735.0,7.4375,85.9375,,,0.047294113565961866,0.014723501874495627,0.0008479379778385507,0.06286555341829604,3.212151155961461,0.7523056903877927,0.23420619200674342,-4.218310294892323,12.984011887010205,38.676494820882176,0.33570808179855766,1577.6326476151878,2.9787784513333584,3.9049759949653766,460.8348373822003,0.46218487394957986,0.4741379310344828,0.7272727272727273,0.02631578947368421,49.86118822876179,49.8625012252292,49.86017043620527,45.689655172413794,0.462977515272884,0.537022484727116,8.83466366373288,9.514945508734563,0.500578676092612,0.4994213239073879,27.364233056049766,27.33258130663694,0.49677022058286424,0.5032297794171358,20.332886327291178,20.464654760319156,1.356198182845309,1.4563247302503015,1.404136644150638,1.9849607011805706,-1.4346795818240974,-2.1201699994646894,-0.10117132878042581,0.0017027496921664094,0.16606302779431348,0.7310947627516522,1.533930359925955,5.972343498511159,1.1328455104988517,1.3739434237148598,1.2078769034632224,1.6708962854742135,1.7742795923594346,1.6000230610666117,3.1621291712189405,0.8690946760472198,Relax
90.37743383858833,663.8319327731092,28.932510400881863,,,,,,,18.402975072672998,18.476747350923365,0.043584089545102817,0.027722340797611107,660.0,28.1694,0.04268090909090909,39.5,1.5721648421860015,640.0,689.2,0.0,29.411764705882355,605.0,735.0,7.0,85.9375,,,0.05128272123279228,0.015997342039963214,0.0007955469596604365,0.06807561023241594,3.205702616389779,0.7533200372014103,0.2349937368955919,-4.135332693044526,13.065033346108489,38.78435657124926,0.33686348056611987,1591.904411093774,2.968561621222456,3.908887096114154,460.53500968487003,0.44537815126050423,0.4576271186440678,0.7037037037037037,0.02631578947368421,51.330798479087434,51.30524950173766,51.35520108059068,44.06779661016949,0.47681605485073697,0.5231839451492631,9.023947247830293,9.452535498501307,0.5151381457437904,0.48486185425620965,27.836744682265845,27.00633185273687,0.5112308665771532,0.48876913342284684,20.691978861835324,20.232305695231297,1.3922079190248355,0.8495602506401214,1.4047879932827105,1.7625093598605797,-0.7445191226802823,-1.5439342205400068,-0.07893349375946504,0.0006436491747372627,0.05619938847710362,0.7218876731823536,1.715598108262491,6.050033519501382,1.1295674345558626,1.57552240576343,1.37580502803849,1.7153991716984878,1.871791850609714,1.6323225527046763,2.875050028506957,0.8690946760472198,Relax
90.31494144192285,664.3025210084033,28.714124151609543,,,,,,,17.884516549333668,17.95118083928059,0.04322446964076223,0.026922246994012883,661.0,29.651999999999997,0.044859304084720115,38.0,1.6055297929023058,640.6,689.2,0.0,26.89075630252101,605.0,735.0,7.0,85.9375,,,0.02681116270253619,0.018952038205118277,0.0007958980738371567,0.046559098981491624,1.4146849226641722,0.5758522670980871,0.40705337130025165,-3.965843796239215,12.693401701761323,38.358326130624974,0.3309164653988124,1529.6340557329042,3.0219106770490383,3.891557654122524,463.66174115145895,0.44537815126050423,0.45299145299145294,0.6981132075471698,0.02631578947368421,48.05633802816902,48.12638878538911,47.98559331616439,46.15384615384615,0.4355509630924941,0.564449036907506,8.381654774096626,9.54163167611992,0.5022160552124544,0.4977839447875456,27.183473092890242,27.06325874966832,0.49563001557996456,0.5043699844200353,20.11458856332916,20.29116444655449,1.3530547305816585,0.7533042627650186,1.3755150758742407,1.6856535964587698,-0.4924231355657156,-1.2923629461315107,-0.08829581098325487,0.00049492666491985,0.04470250607284426,0.7424570680790383,1.7623455840217621,6.039570389267462,1.115039720411963,1.434193710307498,1.4157301322881601,1.745714882512028,1.8789847394061605,1.6465212922847277,2.316075953264494,0.8690946760472198,Relax
90.42101601320375,663.6218487394958,27.502847802203387,,,,,,,17.647201727570277,17.721075189361798,0.04144355381674542,0.0265922554555579,661.0,26.686799999999998,0.0403733736762481,37.0,1.5584820883662027,640.6,687.0,0.0,26.05042016806723,605.0,735.0,7.4375,93.75,,,0.033531089992103136,0.014615579703942757,0.0007747543503682766,0.04892142404641417,2.294201849760202,0.685407071558067,0.29875621956703946,-4.2256672162077695,12.530692436314409,36.95644648358647,0.33906648578563114,1454.8397160292698,2.949274086121955,3.8697852584187835,435.97875971677763,0.42857142857142855,0.4406779661016949,0.6730769230769231,0.02702702702702703,50.73779795686721,50.73615392805932,50.738456267418265,44.06779661016949,0.479373027103516,0.5206269728964842,8.676522994958942,9.042161454026562,0.5066985270452362,0.49330147295476384,26.306618473159094,25.956516738611818,0.5038805534591608,0.4961194465408392,19.587243639348628,19.43581031192833,1.30315564937459,1.8856704585927142,1.3542216695627012,2.245990878670947,-1.6804085720983188,-2.6947125131999297,-0.027081094660740497,0.005788500665121079,0.40345617328374134,0.7191485363147434,1.7155981082624912,6.0786882214695925,1.150452924843919,1.4196654785978005,1.3521756702693433,1.757063027352513,1.9139014725245338,1.6643500704864764,2.781220670379918,0.9270343211170344,Relax
90.7811135293016,660.9166666666666,29.0486648569601,,,,,,,17.689668446522653,17.7572491521211,0.043952084010026635,0.02676535384671187,660.0,28.1694,0.04268090909090909,37.0,1.6421260208904789,637.0,685.4,0.0,25.0,597.0,735.0,7.5,101.5625,,,0.035283997492901134,0.010352969897429233,0.0007566299410479886,0.04639359733137836,3.4081039394949437,0.7605359256984534,0.22315514409198425,-4.570481853820544,12.5562712906839,39.079774993714096,0.3212984540648853,1541.5677555067614,3.1123710287073245,3.894932727701599,486.5230379953469,0.4083333333333333,0.42016806722689076,0.66,0.027777777777777776,48.31649831649833,48.29352816936463,48.34096971355731,46.21848739495798,0.4600945270959773,0.5399054729040228,8.520414169928516,9.229879629014762,0.48912398106684873,0.5108760189331513,27.331378254455732,27.93250035838515,0.48640560875513006,0.5135943912448702,20.243538412481826,20.801625588367948,1.3843088056805206,0.5460404964395269,1.5039241727155934,1.624227433230198,-0.10147604868454962,-1.1014760486845496,-0.2796806989608911,0.00044659440826630924,0.030950055016787076,0.7289822341761631,1.8382794848629476,6.103852862470183,1.105500450102634,1.1721194534872652,1.521515872219812,1.9300691136799826,1.9069894199394668,1.6401585798892862,2.7713921195012556,0.9209187460811358,Relax
91.00856033015798,659.375,29.163711334868363,,,,,,,18.010034551266557,18.085476518549495,0.044229325247193724,0.027313796475854493,660.0,28.1694,0.04268090909090909,34.5,1.6193034639579535,635.0,682.2,0.0,26.666666666666668,597.0,735.0,8.0,101.5625,,,0.042276039754299395,0.009814118262064367,0.0006913999775395232,0.052781557993903286,4.307675801881643,0.8009623315625248,0.18593839657400754,-4.623933291044217,12.78836308725642,39.373821516627565,0.3247935454234711,1581.8758623058552,3.0788789189027255,3.906142509205059,484.90891609673264,0.4,0.411764705882353,0.6326530612244898,0.02857142857142857,50.520547945205486,50.51784325160186,50.52245133211887,45.378151260504204,0.48845825021373607,0.511541749786264,8.938111126433514,9.146871281333752,0.4771129435635825,0.5228870564364173,27.196822547738655,28.471576425095584,0.47819564009174015,0.5218043599082597,20.242986281693472,21.145873336981698,1.440756206399686,0.5904284597824518,1.6064634262441029,1.685573173245812,-0.11296619082613191,-1.112966190826132,-0.366012984823161,0.000708522308404667,0.04238176756330967,0.7275331729386818,1.7757591278816134,6.078689945731401,1.1203951102106295,1.1469442128980976,1.26418674098745,1.4553870081345766,1.9063157683095593,1.635646864922726,2.8301799627971556,1.0360335893412778,Relax
91.23387182216557,657.4793388429752,31.310833900732003,,,,,,,18.327574853209576,18.400036536317398,0.047622536634888725,0.027875514514969002,659.0,28.1694,0.04274567526555387,39.0,1.708400273986537,633.0,682.0,0.0,28.09917355371901,575.0,735.0,8.066666666666666,125.0,,,0.03923559039676417,0.011110340076804405,0.0006058271126920444,0.050951757586260624,3.5314481938026554,0.770053718565819,0.21805607113738426,-4.49987906582568,13.010790608910266,41.71589920520231,0.31189045080652883,1705.1208686239424,3.206253982493096,3.9387252796339345,535.007071839842,0.39669421487603307,0.4083333333333333,0.5918367346938775,0.029411764705882353,48.71520342612419,48.592388093763375,48.82895889374051,46.666666666666664,0.46367966656743087,0.5363203334325692,8.861682219799235,9.530578826761218,0.4189038399340348,0.581096160065965,26.99969014588605,31.799889599254005,0.4228750292886964,0.5771249707113036,20.09368905575283,23.47408050699593,1.321973816134383,1.7495799172295157,1.3381452473289472,2.1905466683259736,-1.502065985065478,-2.4572497175465813,-0.012796521837758805,0.0053709304159706905,0.35393519268450235,0.81086654133391,1.7264543708202884,6.140855258039738,1.0842805214808144,1.5224856904041801,1.3532002509970549,1.6605958073713618,1.8547823425440504,1.6389628756193009,2.4260524039434883,0.9720716944931248,Relax
91.83068629241073,653.4214876033058,35.30456818083549,,,,,,,18.33666636369145,18.41348154263632,0.054030314047873805,0.02806253958826603,656.0,29.651999999999997,0.04520121951219512,39.0,1.9253536864662755,629.0,679.0,0.8264462809917356,27.27272727272727,565.0,735.0,8.066666666666666,132.8125,,,0.04048712963547623,0.01248053566035128,0.0007016995423612063,0.05366936483818872,3.2440217901942736,0.7543806370271668,0.23254487356017095,-4.383584995459451,13.020297664051471,48.18109512216246,0.2702366484414415,1970.822231730229,3.700460340103327,4.00161756262256,713.1689265692322,0.3884297520661157,0.4,0.5833333333333334,0.030303030303030304,49.837310195227765,49.84573230022931,49.82865185849234,47.5,0.4939278278972935,0.5060721721027065,9.1506991054043,9.26251141144014,0.39449948005794766,0.6055005199420523,30.262157313484874,37.49159588367454,0.4012663952224987,0.5987336047775015,22.35546308381637,27.307635191936892,1.43693828273112,1.7854688376782946,1.490843986063966,2.3032123503393036,-1.575635339120483,-2.365408594328297,-0.04501117738258167,0.005962409657882986,0.3723597503358297,0.8008213603682868,1.538820345220147,6.22349988613891,0.9844315708491719,1.1947912955122957,1.3107823825677924,1.6471091748219027,1.7966547444858814,1.600809360329367,2.258432346139387,0.8577103186704043,Relax
91.24764651470578,657.275,43.83313709470296,,,,,,,20.140264449625292,20.215781549864495,0.06668918960055223,0.03064206679034695,655.5,30.3933,0.04636659038901602,39.25,2.176393324146172,628.8,682.2,1.6666666666666667,29.166666666666668,565.0,815.0,8.0,132.8125,,,0.03748364655173415,0.008747741584247095,0.0007663274783039842,0.04699771561428522,4.284951286082179,0.7975631594387702,0.18613120807914693,-4.738959716584828,14.294716220895078,60.02948107796904,0.23812826571544815,2695.814469305212,4.199417473585232,4.137660109943188,1008.3554070763089,0.36666666666666664,0.37815126050420167,0.5555555555555556,0.03225806451612903,51.885830784913345,51.75377252302502,52.02028401950615,47.05882352941176,0.5547130723016368,0.44528692769836337,10.65164903283262,9.54338887326932,0.3928167558246563,0.6071832441753438,37.62353441328799,46.776150512225534,0.4015123058064743,0.5984876941935257,27.649484342990103,33.75710686602762,1.443096414545785,0.5678398888211087,1.4852055045198287,1.6222065503962542,-0.4851898114058706,-1.4462453302813507,-0.25873296579982613,0.0006781107829714744,0.033632333736089995,0.7888566078883987,1.4069136483226263,6.222399216546706,0.8837692265448911,1.4167825688561904,1.2219518635332987,1.5098167707734496,1.5910500663733147,1.543972773726728,2.205189031224373,0.9209187460811358,Relax
91.2683284054175,657.5583333333333,44.306380941765745,,,,,,,20.506404000751004,20.592031513604606,0.06738015274958989,0.03118568035903178,656.5,31.875899999999998,0.04855430312261995,43.25,2.160611921043939,626.8,683.6,1.6666666666666667,30.0,565.0,814.0,8.0,125.0,,,0.05130032632183767,0.006602786409128165,0.0006527807912302678,0.058555893522196104,7.76949656449835,0.8760915978917109,0.11276040739819508,-5.020263535842773,14.560765121676905,61.12593734654199,0.23820927340757803,2796.144434016828,4.197989380073343,4.153529710968343,1026.4241433112472,0.3333333333333333,0.3445378151260504,0.5365853658536586,0.0,49.37717987045341,49.349293460135776,49.40746850396294,49.57983193277311,0.5296257069203253,0.4703742930796746,10.597209418409506,9.98685576823823,0.38150157836180987,0.6184984216381901,37.754932789664245,48.072292087452134,0.3894561468130785,0.6105438531869214,27.728467298154904,34.71802525113508,1.689144300228491,0.6031870026600021,1.9511571973744408,1.7661604277813447,-0.49668054613376,-1.43101926934379,-0.8066988658198476,0.0015915107286932732,0.07541997345202156,0.7177830532008693,1.275542996827188,6.228689945731401,0.8787333330001856,1.2871668503233678,1.2114745013897978,1.3875566555076764,1.6078205436098227,1.4912866547724373,2.0899515828707753,1.0360335893412778,Relax
90.65854829040569,661.8151260504202,46.238505926128134,,,,,,,20.833276836081584,20.902290917723718,0.06986619692733567,0.03147899770803124,660.0,37.065,0.05615909090909091,49.5,2.2194543033214393,628.2,694.4,1.680672268907563,30.252100840336134,565.0,814.0,8.5,132.8125,,,0.055502076387769786,0.004374180690324271,0.00044673940431627017,0.060322996482410324,12.688565086152225,0.920081554701178,0.07251265595865658,-5.432036047492946,14.780151650256425,63.58288200650566,0.23245488697326036,2952.3576841527893,4.30190998787232,4.177139081962235,1094.1113406459756,0.3277310924369748,0.3389830508474576,0.525,0.0,52.65508684863525,52.623945575516565,52.679354231721355,48.30508474576271,0.5796934491848091,0.42030655081519097,11.263927750836666,9.591217492657176,0.3959277698210625,0.6040722301789374,40.00812431535802,49.41794080109047,0.40536550753453493,0.5946344924654652,29.389845862212425,35.595816650356085,1.6484583161573823,0.37317943264090925,1.7152463355961114,1.6281124922685284,-0.0041642899824427815,-1.0144287734625075,-0.7334904759111611,0.0005619221259489429,0.022872542466420124,0.6984152492108557,1.1816475172781002,6.190830893469142,0.8680386724874078,1.3055257407504768,1.1690430108467031,1.5190283476841293,1.6414953546660978,1.471089714365252,1.9589642366731883,0.7532153859075904,Relax
90.47576607808047,663.1680672268908,46.00429591726081,,,,,,,20.94848402751014,21.03298079985239,0.06937049322901322,0.03158849930019776,660.0,37.065,0.05615909090909091,50.0,2.1960680236740124,630.0,694.4,1.680672268907563,31.092436974789916,565.0,814.0,9.153846153846153,132.8125,,,0.056183696394148046,0.00393804353182915,0.00032896748970482806,0.06045070741568202,14.266905873448215,0.9294133815144232,0.06514470549946863,-5.537071244527381,14.872563352142079,63.479613600701704,0.2342888135030752,2965.9919965565077,4.2682362211325735,4.17914008475394,1083.7839442960599,0.31932773109243695,0.3305084745762712,0.5128205128205128,0.0,48.686167575607314,48.63612658485053,48.7406221609424,52.54237288135594,0.5466658942123863,0.4533341057876137,10.99883443708282,10.016012820504615,0.38161030968947746,0.6183896903105227,39.21428710311644,49.91894459910734,0.39020271868437795,0.6097972813156218,28.79873844441804,36.001538458163566,1.7137476361213433,0.2653689616780843,1.7522538897831779,1.6482506981261138,0.2645825537640043,-0.7622489891475484,-0.8919192018516053,0.00040456794792273807,0.015073593535433048,0.7086066374899342,1.2068258733083426,6.190830893469142,0.8661767629028717,1.0898081287202583,1.1332857384338273,1.5143483759939402,1.6929501320387812,1.4459365592687314,2.245912983406897,0.8111550309774052,Relax
89.94543199078278,667.4705882352941,50.177789591562465,,,,,,,21.8143165554106,21.8670736969357,0.07517603093827108,0.032682064108749465,662.0,42.9954,0.0649477341389728,58.0,2.3002228588782847,630.0,708.6,1.680672268907563,31.932773109243694,565.0,814.0,10.818181818181818,179.6875,,,0.04683182824479509,0.0037873460357187917,0.0002763479473017825,0.05089552222781567,12.365341799539843,0.9201561590265074,0.07441413055486663,-5.5760897596082115,15.462356095809222,68.44924079813406,0.22589521688647757,3325.019365240305,4.4268312263669785,4.228764288982122,1212.0529463451694,0.3025210084033613,0.3135593220338983,0.43243243243243246,0.0,53.7392138063279,53.48447790160119,54.00593865054899,50.0,0.6121776606354181,0.38782233936458194,12.12030153922374,9.64697375160224,0.4490304834958312,0.5509695165041689,45.86765614615467,50.80803760724338,0.4569792435682123,0.5430207564317878,33.546561595367635,36.56857112373383,1.636517963751895,1.4378157206808693,1.6820853128574453,2.3187143217636756,-1.1994465872223365,-2.1994465872223365,-0.057224893462175845,0.005498618159690875,0.2694182186050726,0.6874121914489182,1.1420974006078486,6.291671229603596,0.840046757019226,0.9832487419721502,1.1875239619327458,1.5807145368781808,1.7438215969054085,1.4486303086225722,2.102230194229401,0.7532153859075904,Relax
89.85197826589868,667.8151260504202,50.23925239419915,,,,,,,22.22534817938552,22.319191589239086,0.07522928192915186,0.033280689988006505,664.0,41.5128,0.06251927710843373,56.5,2.2604483848220256,630.0,711.0,2.5210084033613445,30.252100840336134,565.0,814.0,11.9,132.8125,,,0.04121754308090184,0.0033028548242008877,0.00030559808533944387,0.04482599599044217,12.479368690046575,0.9195008871568693,0.07368168294364556,-5.712968086248822,15.782051723352714,69.5383308557703,0.22695471014520502,3447.764527450818,4.406165438735344,4.244507707044613,1225.5895603361546,0.3277310924369748,0.3389830508474576,0.475,0.0,49.42252165543792,49.42701583761675,49.42131116987605,51.69491525423729,0.5462359319242382,0.4537640680757618,11.664651840672423,10.631552780751951,0.4280631712490807,0.5719368287509194,45.49652160008299,52.5894093948559,0.43385235865917776,0.5661476413408221,33.21142559625317,37.93860761170389,1.6984271425030928,0.43653018026844803,1.7716198130150724,1.8330271421752686,-0.014837785514359325,-1.0148377855143593,-0.3593285597746455,0.0005510094086751438,0.02562007921914125,0.69060196869109,1.1203051132793695,6.321165137202983,0.8508816933379185,1.1897644548925252,1.1951753201497932,1.7928665803606048,1.7006513540415122,1.4424834438883538,2.3864664533632736,0.7532153859075904,Relax
89.51936783391423,670.3389830508474,49.94718926222267,,,,,,,22.461743354644458,22.554897497438393,0.07451034554920702,0.03350803686280716,666.0,39.2889,0.05899234234234234,51.5,2.2236559501911946,633.2,711.6,2.5423728813559325,31.35593220338983,565.0,814.0,10.727272727272727,132.8125,,,0.04964733089128892,0.0030140919590517534,0.00029899916296302864,0.0529604220133037,16.471737281336363,0.9374421313866698,0.056912159013661395,-5.8044566686089825,15.94872096940618,69.05684291789778,0.23095062408757577,3460.050619005091,4.32992984518112,4.246052562336586,1196.0451406567602,0.3559322033898305,0.36752136752136755,0.5348837209302325,0.0,51.10896817743491,51.109451576580824,51.10269445194178,50.427350427350426,0.5607657123496527,0.43923428765034744,11.944916679607212,10.57159499269884,0.42533838281808006,0.5746616171819198,45.037472247383164,52.349533401486966,0.43219805091857705,0.5678019490814229,32.947343905970385,37.76395283893792,1.6851146398807035,0.5692334364392755,1.6617714016010452,1.854269052189299,-0.3619076119884497,-1.0923490802985283,-0.1618300362108313,0.000517720206519818,0.02331535604631078,0.7063783597685989,1.2790488307662928,6.35913086706678,0.8598618061158894,1.094431484077281,1.3464575019342522,1.6585025263577915,1.6846483346548236,1.425190981461107,2.134656825564367,0.758257285099186,Relax
89.5842833630289,669.8389830508474,50.15121924858227,,,,,,,22.36354634507249,22.459732444784503,0.07487055922031234,0.03338645093962062,666.0,40.0302,0.060105405405405404,53.5,2.242543220772873,633.2,711.6,2.5423728813559325,30.508474576271187,565.0,814.0,10.727272727272727,132.8125,,,0.054428336946781904,0.0032555709626835455,0.00022995758198850747,0.057913865491453956,16.7185226710331,0.9398153013083475,0.05621401602288061,-5.727387607741622,15.881429115342636,69.3428678278964,0.2290275786510461,3459.7223896069795,4.366286391752116,4.2460113620786215,1211.0832806480387,0.3559322033898305,0.36752136752136755,0.5348837209302325,0.0,49.975574010747465,49.96918304965759,49.98203726814111,52.13675213675214,0.5556353071861915,0.44436469281380836,11.838168835563646,10.58667021338138,0.42305468201465346,0.5769453179853465,45.10244149253747,52.67070428624764,0.42966241849769155,0.5703375815023086,32.97250725958731,37.98868697531044,1.728039788536774,0.46273095580614054,1.850492687316827,1.8440805779684126,0.6290423686070401,-0.09830321089197014,-0.5138571004769794,0.00016141686370060558,0.01579018236469326,0.69370689019956,1.0944369172576291,6.386631820438274,0.8423760463018399,0.8352395926784851,1.2539551209370976,1.7046050135281237,1.7311379803449136,1.4059713897006956,2.0889413121563796,0.8749122520375222,Relax
89.71450486333025,668.7983193277311,50.33221494786597,,,,,,,22.671941891962902,22.768109020138013,0.07525768754691156,0.033899519835445306,665.0,41.5128,0.062425263157894734,54.5,2.220022227814041,631.2,711.4,2.5210084033613445,31.932773109243694,565.0,814.0,9.916666666666666,132.8125,,,0.045132454965054795,0.0031569319281430307,0.0002338717989791407,0.04852325869217697,14.29630286377527,0.9301200327737089,0.0650601796587911,-5.75815463183608,16.09948428293419,69.60658157641535,0.2312925576622361,3520.563182983354,4.323528651796622,4.253582252899487,1203.7841991970024,0.36134453781512604,0.3728813559322034,0.5454545454545454,0.0,49.574669187145574,49.55602388943545,49.59521493097275,54.23728813559322,0.5498235895406733,0.4501764104593268,11.93805235442926,10.802223576099237,0.42180152960016415,0.5781984703998361,45.20686398837963,52.92840113861658,0.42830273365502225,0.571697266344978,33.061893818117476,38.197537101744814,1.6933326540644362,0.4806991211757232,1.7780333020348023,1.9336822146522978,0.12251347751951513,-0.8876464171290597,-0.17620304310771365,0.00020292391882125347,0.020473219941931953,0.7320951950761607,1.1763212729954258,6.342091397670822,0.8515910396150976,1.0138460727673817,1.2328928527123104,1.5816072878256624,1.7710635776575772,1.4280479914361912,2.2321265223831737,0.8111550309774052,Relax
90.01298076014754,666.5932203389831,50.47555679717881,,,,,,,23.093640668293062,23.19265727781636,0.07572167741446642,0.034644277744903015,663.5,40.771499999999996,0.06144913338357196,55.0,2.1856907502020837,629.4,708.6,2.5423728813559325,33.05084745762712,565.0,814.0,10.727272727272727,132.8125,,,0.03666415438520828,0.002794582855778071,0.00019596519271387428,0.03965470243370022,13.119723506999115,0.9245852858562759,0.0704729246285585,-5.8800724301044855,16.39968523487948,69.66015510289667,0.23542418489673353,3588.969952509643,4.247651958266904,4.26193993232014,1183.5683769439813,0.3813559322033898,0.39316239316239315,0.6086956521739131,0.0,50.32833020637898,50.311064311565204,50.34423874243353,53.84615384615385,0.5617968524632199,0.43820314753678,12.292238930765805,10.856231326785997,0.4321072008716385,0.5678927991283613,45.79100643673401,52.49496107695106,0.4389178942920234,0.5610821057079767,33.52547843372299,37.905004267848966,1.7047831684639785,0.326784337148444,1.8319662830290508,1.8507674498407232,0.4531077213458534,-0.5468922786541466,-0.44246613232527154,0.0003108141697613237,0.015797380177407602,0.6956716656922302,1.1666657519131258,6.412221227291273,0.8732033490256913,1.1175759565437355,1.2209606179936918,1.5165475496561112,1.7840079988395152,1.4341080704088613,2.4628026911624183,0.6999298016300177,Relax
89.41411373503203,671.1101694915254,54.47006296072537,,,,,,,24.760562798237647,24.8659802969302,0.08116411497980318,0.03689493010811888,664.0,48.925799999999995,0.07368343373493975,73.0,2.1998717640053935,629.4,717.6,4.23728813559322,36.440677966101696,565.0,814.0,10.727272727272727,132.8125,,,0.05008435186941221,0.003247225874773032,0.00033534230350333,0.05366692004768857,15.423735151443045,0.933244386391228,0.06050702875975626,-5.729954224137682,17.58290328881042,75.28309524526885,0.23355712502954526,4158.511690760274,4.281607764582215,4.325908036708344,1289.330740575702,0.3813559322033898,0.39316239316239315,0.6086956521739131,0.0,50.5934065934066,50.58041134983563,50.60265743577704,52.991452991452995,0.5569279669877736,0.4430720330122262,13.12226983098737,11.704331647315229,0.44776894818460794,0.5522310518153921,50.37608964657721,55.94456203804118,0.4534159106779588,0.5465840893220412,36.80994684590855,40.41525331442686,1.6661514296829718,0.3137984089045136,1.709987565910203,1.7485748797429788,0.6930823691705736,-0.14217458701923036,-0.3770315185233539,2.2189563597886287e-05,0.005584401214806607,0.6665750642743031,1.17599895228353,6.422773028120395,0.8575025276337671,0.8816280235698848,1.3409563788366887,1.6265892788667615,1.7994925423712629,1.4256903256320106,2.421141685927063,0.6416023181608497,Relax
89.62611263299594,669.6779661016949,54.572915444397914,,,,,,,24.63216575422449,24.737680653019495,0.08149128119307224,0.036782105730030754,661.0,46.701899999999995,0.07065340393343418,67.5,2.215514299023361,629.4,717.2,4.23728813559322,36.440677966101696,565.0,814.0,10.727272727272727,132.8125,,,0.05639646379553387,0.003566528840122784,0.0002607656522789232,0.06022375828793557,15.812703702570458,0.9364487604027792,0.05922129308288711,-5.6361624698852735,17.492181740577344,75.41669390017631,0.23194044761138025,4144.396932785409,4.311451539817304,4.32443145357709,1300.6216841753815,0.3813559322033898,0.3879310344827586,0.6,0.0,49.619686800894854,49.593640520820834,49.646969765114775,55.172413793103445,0.5459014776937271,0.45409852230627284,12.92434884640028,11.78763232638637,0.4419136301516926,0.5580863698483073,50.13444233121917,56.34017581593574,0.44722239161966715,0.5527776083803327,36.60943253429223,40.701128281858594,1.6822670558402288,0.5298287693333092,1.7802703968181266,1.9471814405068835,0.06176057109015076,-0.9517941494545179,-0.184971724168955,0.00029309867736474014,0.026174347790331332,0.6413484263422524,1.0828639316999706,6.422773028120397,0.8354546268470844,1.0024508198613997,1.308335087899989,1.609545777499451,1.7770592266740264,1.4109070824557874,2.22123819450162,0.6416023181608497,Relax
89.35501081018549,671.6440677966102,53.18609892024737,,,,,,,24.343692912444173,24.445739188174148,0.07918792329206335,0.036244931027688346,663.5,44.477999999999994,0.06703541823662396,65.5,2.184799944344489,632.0,717.2,4.23728813559322,33.89830508474576,565.0,814.0,11.8,195.3125,,,0.054271643334846506,0.004524013965717172,0.00020413286430796167,0.05899979016487164,11.996347435289815,0.9198616331208537,0.07667847551788008,-5.398355633704475,17.285747951075667,73.42807660850048,0.23541060517271625,3987.4954560913316,4.247896985211517,4.3076703111315835,1247.6596210205178,0.3898305084745763,0.40170940170940167,0.6382978723404256,0.0,50.95715587967183,50.99836605369573,50.912580297244304,52.991452991452995,0.5533056420906889,0.4466943579093113,12.85931837095253,11.554220008291344,0.4454302554851051,0.5545697445148949,49.00631065750566,54.6814772127076,0.4510957697803009,0.548904230219699,35.82583253202548,39.51938733181387,1.675548099027659,0.5851001736141308,1.7465862803493237,1.8768028921695215,0.2307864757702447,-0.5420087723611031,-0.27744561069627266,7.485825000813097e-05,0.019430409867159562,0.6720983759731975,1.1030468857359752,6.388874723035651,0.8386892904234189,1.031390587320789,1.1808663367042964,1.2839352161037227,1.7081650498734646,1.392823967766553,2.080416700367606,0.6999298016300177,Relax
89.14134339553294,673.2222222222222,53.07641061700268,,,,,,,23.775168152710407,23.877806121740043,0.07883936219723126,0.03531548330985207,665.0,42.9954,0.06465473684210526,63.0,2.2324305037965373,632.4,717.6,4.273504273504273,31.62393162393162,565.0,814.0,11.7,85.9375,,,0.04069122960873302,0.0033224780592475585,0.0001821592337689925,0.044195866901749564,12.247253069279369,0.9207021484428036,0.07517621651440065,-5.707044371086396,16.884158628540042,73.42687108478304,0.2299452282127695,3894.792442220945,4.348861717081143,4.297454428555755,1277.2932346626612,0.38461538461538464,0.396551724137931,0.6521739130434783,0.0,50.428571428571445,50.44061559687923,50.414519108470316,54.310344827586206,0.5620405673326215,0.43795943266737836,12.65821609795822,11.173921502280676,0.4398709381200258,0.5601290618799744,48.698732396132506,54.95397037804659,0.4460064795858756,0.5539935204141243,35.579467195088334,39.653470100675634,1.7158936557379332,0.3619709478866495,1.820744959538808,1.794414529184889,0.9209781963795525,0.1880596842822584,-0.5727418333091319,0.00017868764320497666,0.013375814248882668,0.6903159789653204,1.1174807729724925,6.355282134057846,0.823146237217177,1.0421049158548674,1.2344055706683659,1.3476292049337062,1.6873163154646522,1.3859992027183519,2.139434102989059,0.5872106597934534,Relax
88.73720607573509,676.3589743589744,50.33310789791477,,,,,,,23.684164650086643,23.76306552947916,0.07441774236176647,0.035017151465364285,668.0,42.9954,0.06436437125748502,60.0,2.1251797832663115,636.2,717.6,4.273504273504273,30.76923076923077,565.0,814.0,9.75,85.9375,,,0.04179238548770744,0.0044155237757827915,0.0002931311185929079,0.046501040382083136,9.464876107545908,0.8987408699743857,0.09495537604109378,-5.422628816451458,16.803024777675013,68.71708807424321,0.24452469172617902,3627.4554567070286,4.089566550276277,4.266572198190761,1124.0924192832556,0.4017094017094017,0.4137931034482759,0.6458333333333334,0.0,52.932761087267544,53.20173098542025,52.6798800384911,52.58620689655172,0.5851941784874517,0.41480582151254825,12.866876922514273,10.83292083941554,0.504272752438215,0.495727247561785,48.79749170711398,48.38225910907262,0.5088469018950185,0.49115309810498153,35.68439237709526,35.05848806216894,1.6782114113644957,0.7176111207375193,1.7535943087990669,2.030781860563202,0.14241852626197193,-0.8451112513979218,-0.11373570760824056,0.0005192574613512038,0.050741307607120124,0.7102916755035684,1.073919676077738,6.304000082775792,0.8557197956393003,1.0616418305332658,1.2804158907972898,1.3655538889311372,1.6677930578727476,1.4285605648621658,1.8180143104919322,0.704652791752144,Relax
88.19357631274718,680.3275862068965,45.53771029016243,,,,,,,21.52329375149267,21.59206778667453,0.06693497546388456,0.03163666179037925,670.0,37.8063,0.05642731343283582,54.25,2.1157407790805407,640.0,718.0,2.586206896551724,26.72413793103448,616.0,814.0,9.666666666666666,39.0625,,,0.05750122926041745,0.007013293457691172,0.0002802118105559295,0.06479473452866455,8.198891092651824,0.8874367597721923,0.10823863248623328,-4.959947865487323,15.267897551797166,61.95025501246819,0.24645415178233454,2971.475872703318,4.05754982323523,4.179942318258071,1005.4649851008709,0.4396551724137931,0.4473684210526316,0.6862745098039216,0.03225806451612903,46.83210137275607,47.01508565726525,46.64594728181506,54.385964912280706,0.4857341292187557,0.5142658707812441,10.653432030809963,10.961855714328408,0.489038547712165,0.5109614522878351,43.32261317974466,44.283013485850915,0.4888489112176723,0.5111510887823276,31.54635023863199,32.25792587946262,1.6840024404645946,0.6936854515585802,1.7825711609587527,1.9261233260844857,0.42565639141917977,-0.20818706408708554,-0.29305870578199616,0.0005588541391794977,0.04299453010685459,0.7740202034759021,1.2185716037470884,6.211260736432279,0.863349105502591,1.2482635990118622,1.1950146388415162,1.3346191691849019,1.745281445868987,1.4397528333778966,1.998172752887952,0.6503257840207181,Relax
88.87054194904404,675.2393162393163,39.38900808790608,,,,,,,21.00061575451933,21.091510119013524,0.05833340438065657,0.031100996712514227,669.0,32.6172,0.04875515695067264,46.0,1.8756120557764868,640.4,700.6,2.564102564102564,25.64102564102564,616.0,806.0,8.357142857142858,85.9375,,,0.050915511622683485,0.008465924532420928,0.00022146094691923623,0.05960289710202365,6.014170269023602,0.854245583658966,0.14203880925334234,-4.771706051118633,14.913949830619147,53.91137258921139,0.2766382882561534,2525.9394728037782,3.6148286135795105,4.109393049632304,779.5214889313097,0.452991452991453,0.4655172413793103,0.6666666666666666,0.030303030303030304,50.297458085451595,50.302196542298574,50.29139591575045,50.86206896551724,0.5170546726871127,0.48294532731288725,10.724210723972833,10.364445915264104,0.5481080420473039,0.45189195795269627,39.912917671677704,36.24079327755742,0.5459004648356481,0.454099535164352,29.223703501766302,26.653487919192546,1.5668509404880178,1.097444653803704,1.6613817896290204,1.6265674285801817,0.12527054113223102,0.4395518727715171,-0.5317231132596741,0.0002843358485595992,0.05055380730411993,0.819262220772675,1.4793847841859022,6.147891856224592,0.9320578030930693,0.8577799002279404,1.1885436550782784,1.3189099099938735,1.7917166702524892,1.4827709352019218,2.173549704213271,0.6459317257727988,Relax
88.41840053713783,678.5775862068965,38.72425391249598,,,,,,,20.474374227311564,20.563859346261214,0.05706680370767368,0.03017248822166222,670.5,33.3585,0.04975167785234899,44.0,1.8913522573422632,645.0,705.0,2.586206896551724,23.275862068965516,617.0,806.0,7.733333333333333,54.6875,,,0.043256133672326176,0.009143626118313647,0.00022121523594272196,0.05262097502658254,4.73074173337961,0.822032158288106,0.1737639052430055,-4.694698241523993,14.540844391107667,52.8348375697524,0.2752131937930326,2413.569872874219,3.6335467286936316,4.089629986128498,767.9114048505329,0.46551724137931033,0.4782608695652174,0.6727272727272727,0.029411764705882353,49.77553310886644,49.78410834769495,49.76725726082677,49.56521739130435,0.49425406571523384,0.5057459342847659,10.222738672435693,10.340899889580006,0.5463981702600491,0.45360182973995095,39.05485185718552,35.58424661891007,0.5427266990419347,0.4572733009580651,28.546329357306337,26.20279391555153,1.6295489802911918,1.1018426301343993,1.6295489802911918,1.9321496577314026,-0.5587921056241658,-0.7962805419604946,-0.2253685152812607,0.0009537734632759138,0.07496195035684325,0.8210908271358957,1.5459245067117746,6.153028947620527,0.9314268685978461,0.964697286737132,1.035143451224798,1.3904077139993598,1.780137529936857,1.4932831974010183,2.531223061969274,0.7685668356608486,Relax
88.86774461063125,675.1111111111111,37.88202598489561,,,,,,,20.272709700991864,20.357096902624612,0.05611228338776506,0.030028701005419156,669.0,32.6172,0.04875515695067264,42.0,1.868621735506931,640.4,697.2,2.564102564102564,23.931623931623932,617.0,806.0,7.3125,54.6875,,,0.03760436364784144,0.00945241840873188,0.0003419953333483319,0.047398777389921654,3.978279634035622,0.793361468767277,0.19942325370488853,-4.661484653949544,14.394641265117524,51.71851068839943,0.2783266778860721,2338.8196233899025,3.5929002839222317,4.075966839001759,743.2778069455411,0.47863247863247865,0.48695652173913045,0.6607142857142857,0.029411764705882353,48.75141884222475,48.70424013541123,48.80083044372176,49.56521739130435,0.4882116038092042,0.5117883961907957,10.05960497106686,10.299641192568417,0.5453834494192991,0.4546165505807009,38.19416214212756,34.87133960843714,0.5412716725073504,0.4587283274926496,27.928387654079167,25.71082393450868,1.4989254196910238,1.1710410882274975,1.6027303479064203,1.8863541706009699,-0.12317113931925583,-0.46441967325366296,-0.257801988721125,0.001539900671553065,0.11448654464539339,0.8394832163385493,1.371766260556981,6.020928155606872,0.9211281358222305,1.2577402006769223,1.063117732459519,1.3621184473242247,1.7202013827174178,1.515899802393342,2.255345718791648,0.704652791752144,Relax
88.6435657388098,676.9230769230769,37.00120078344007,,,,,,,20.148158125795742,20.235095019909533,0.05466086479371828,0.029764324504016438,670.0,28.1694,0.04204388059701492,40.0,1.8364557470922034,645.0,698.8,2.564102564102564,25.64102564102564,619.0,806.0,6.882352941176471,85.9375,,,0.031133547686760337,0.009038851347126379,0.00034358247998116207,0.04051598151386788,3.4444141728980067,0.7684263474180897,0.2230934808782195,-4.706223176022262,14.308372906532167,50.55749321257957,0.28301191371118056,2272.6138819558128,3.53342015495687,4.06349576514107,714.5634620056952,0.47863247863247865,0.48695652173913045,0.6785714285714286,0.029411764705882353,49.54389965792475,49.5399944365952,49.54916448339941,49.56521739130435,0.48581439796135073,0.5141856020386493,9.973225024599834,10.26030764857849,0.5327606962077965,0.46723930379220346,36.9021458596683,34.55852645718269,0.5292791883514018,0.47072081164859847,27.029924032815362,25.490838196646987,1.4852912230068287,1.0162611302379752,1.4852912230068287,1.7785996571037455,-0.24876608307669912,-0.5587780734580239,-0.21138477565482258,0.000902417698087041,0.07007902588544108,0.8169018447154568,1.4057124469769922,6.0167381983788975,0.9355936458929126,1.0827063186355397,1.0882690168127287,1.444239128328371,1.7255153478855247,1.566269151839931,2.3041459371881006,0.704652791752144,Relax
89.49018544187862,670.4661016949152,32.93445503212516,,,,,,,19.11324774380951,19.172218855223736,0.04912173031398305,0.028507403574158152,669.0,29.651999999999997,0.04432286995515695,41.75,1.7231218615262351,640.8,690.2,1.694915254237288,24.576271186440678,614.0,806.0,6.9411764705882355,93.75,,,0.041000123647496355,0.011220482742638852,0.0002658011347921958,0.0524864075249274,3.6540427526965633,0.7811569810340733,0.21377882906750478,-4.490014354622515,13.556805962921288,44.163375083791195,0.306969427431666,1880.916467460816,3.257653403359227,3.981339618682626,575.4758765821698,0.4830508474576271,0.48695652173913045,0.6785714285714286,0.058823529411764705,46.75324675324675,46.75821502522262,46.750974840851114,49.56521739130435,0.45374573019512415,0.5462542698048758,9.143020703586254,10.031845843835658,0.49001206516300766,0.5099879348369925,30.914743155110557,31.53858516872903,0.4868820488489911,0.5131179511510091,22.796010308085293,23.40213970430543,1.4150086110508846,1.367620221071117,1.5834970500917493,2.027491392342821,-0.5031642848068483,-1.2770278528453893,-0.1753526049042066,0.00199845045094723,0.18182084754949962,0.799878349368119,1.603866867384645,5.982313973450591,0.9928171760784171,1.1192458492305228,1.238949318542026,1.4209149298043684,1.7333396223291038,1.5694428232686335,2.25181286513945,0.758257285099186,Relax
90.18118875357017,665.4117647058823,34.34382774948856,,,,,,,19.268398647544064,19.338585208830118,0.05161289530952135,0.02895710546395413,667.0,32.6172,0.04890134932533732,47.0,1.7823913848630073,635.6,688.4,1.680672268907563,26.05042016806723,589.0,806.0,7.933333333333334,117.1875,,,0.04533191727611982,0.011121403880371158,0.00016163694505746127,0.05661495810154844,4.076096665829112,0.8007056579430724,0.19643932016028434,-4.498883749893522,13.674444739717645,46.27884107658864,0.29547941179182247,1988.1174992930912,3.3843305492449725,4.005412157923816,626.4915825566081,0.47058823529411764,0.4786324786324786,0.6785714285714286,0.05714285714285714,47.69585253456222,47.53868944539018,47.84755115662458,48.717948717948715,0.46226888838164804,0.5377311116183521,9.303064470754169,10.033703886163558,0.4918942331137775,0.5081057668862226,32.45774472159216,32.98826971788766,0.48951268138959164,0.5104873186104084,23.875219380762264,24.38135714696085,1.475119831454464,1.0036862897483267,1.5089496964491635,1.5540235380327374,0.19983329076503153,0.4712622875340413,-0.45509170340976157,0.0006537279841734139,0.049959487283505175,0.7923203847349529,1.6597629963216158,5.99655009112659,0.9780819831430807,1.1445350807172727,1.3458769252376652,1.5051608033949204,1.7266825289526515,1.5644609230786661,2.138048507428658,0.6373360957679611,Relax
90.68508976385372,661.7310924369748,36.47676239140721,,,,,,,20.192295896190757,20.271087603084048,0.055123240857662084,0.03051435262294847,662.0,35.5824,0.05374984894259819,47.0,1.806469288036161,632.0,688.0,2.5210084033613445,25.210084033613445,573.0,806.0,7.933333333333334,132.8125,,,0.047421685326244925,0.011614211875379627,0.0001621291530621547,0.05919802635468671,4.083073895592668,0.801068688373435,0.1961925521941008,-4.455525769097285,14.333823506167288,49.541307572763166,0.2893307465717304,2230.8963366683442,3.456252098503059,4.055449500299917,684.9089930437927,0.453781512605042,0.46153846153846156,0.6296296296296297,0.058823529411764705,51.79573512906847,51.75744377294974,51.8296064085524,47.008547008547005,0.5005196208846026,0.49948037911539733,10.144469252270245,10.13393216854056,0.5506145439437289,0.44938545605627117,36.76133752060435,33.210619080579164,0.5467423409025317,0.4532576590974684,26.965776390770298,24.552411296163054,1.420405601138031,1.1840534211122735,1.4446501589406138,1.9211603698601114,-0.6191292000952533,-1.2434719207396174,-0.09756020934268785,0.0017177230289965636,0.12914182366730456,0.8494492495270634,1.5421047923655136,6.040626666738661,0.9629421407364013,1.00872490424464,1.2094655949008504,1.532584785298355,1.6801804669513294,1.5935205214203851,2.037501291975827,0.7532153859075904,Relax
90.46937211426794,663.3613445378152,36.26613751670127,,,,,,,20.059868022615348,20.144618740595945,0.054670260507821776,0.03023973010756557,667.0,31.1346,0.04667856071964018,46.5,1.8078951205369393,632.0,688.0,2.5210084033613445,24.369747899159663,573.0,806.0,7.933333333333334,140.625,,,0.046559047832890214,0.014242370095548212,0.00036013901825685457,0.061161556946695284,3.269051956980344,0.7612469361018436,0.2328647406402849,-4.251533947553674,14.244396515893,49.37944368061041,0.2884681449233556,2209.734620415443,3.466587273494945,4.051310229886905,684.7126041418577,0.4789915966386555,0.4871794871794871,0.6842105263157895,0.08823529411764706,50.59490084985837,50.622180256871104,50.56699675530296,47.863247863247864,0.4957774361350379,0.5042225638649622,10.030082955916372,10.115149001188234,0.5471695983780741,0.45283040162192584,36.526425370686354,33.228748213651635,0.5432213000605792,0.45677869993942055,26.784158699340214,24.560801566342413,1.3801545268981046,2.47214983897147,1.6825143013627764,2.511583565419926,-1.2140884828551393,-1.919372707316584,-0.1646363213962463,0.012907090584860661,0.7609782620880021,0.8597837926608802,1.5841201044498108,6.094110095113454,0.9576446530104678,1.2874179906329022,1.2619292493507797,1.6316614214136342,1.6688677350039536,1.5500714058794245,1.930725571921656,0.7532153859075904,Relax
90.39326135151407,663.8823529411765,36.06025477000637,,,,,,,20.10776053911288,20.19315678767727,0.05431723649566793,0.030288138327566806,667.0,31.1346,0.04667856071964018,45.0,1.7933501197143897,633.6,688.0,2.5210084033613445,26.05042016806723,573.0,806.0,7.4375,132.8125,,,0.026803587086564756,0.01096371440218929,0.00037304132330189243,0.03814034281205594,2.4447542231866675,0.7027620915376854,0.2874571541271969,-4.513164149568458,14.278718098129758,48.94884793962808,0.29170692874612014,2195.7433032871995,3.428098209042971,4.04855167684999,671.2058318262231,0.46218487394957986,0.4655172413793103,0.6111111111111112,0.06060606060606061,50.396825396825406,50.423945427060936,50.37029381511409,45.689655172413794,0.48566338293858746,0.5143366170614128,9.950948071483818,10.240484430314874,0.5541616486427372,0.445838351357263,36.43851822430634,32.683697835981285,0.5487898457953262,0.4512101542046739,26.709426967874776,24.218707909395672,1.4327892257162291,2.0982294668653827,1.4912159299873005,2.4819039591489203,-1.2403385331659127,-2.232904255874176,-0.027845717159981076,0.008719941618961587,0.5552065464082077,0.7898253533808739,1.420032500751741,6.138186670725526,0.9590283091602595,1.0821452610638012,1.1052195565174798,1.625396116687033,1.6378653757676316,1.5788688654404586,1.8963637652421013,0.7532153859075904,Relax
90.60060488268518,662.3025210084033,31.946606573418066,,,,,,,17.99458487283779,18.06434368640369,0.048235671102047226,0.027169736339580496,667.0,29.651999999999997,0.044455772113943026,41.0,1.7753455719692859,633.6,687.0,0.8403361344537815,22.689075630252102,573.0,750.0,7.0,132.8125,,,0.03426829784407473,0.01420305091381672,0.00042808025699880365,0.04889942901489025,2.4127420264852075,0.7007913698468702,0.29045433044814867,-4.254298484366856,12.773419918340444,42.685684813081714,0.2992436451300841,1712.928816494879,3.341758517763311,3.9407094254983344,570.5810032427033,0.4789915966386555,0.47368421052631576,0.6296296296296297,0.0625,48.16428126944617,48.32345506050948,47.994586287043866,45.614035087719294,0.4301604334057421,0.5698395665942582,8.380889943157364,9.646087732703272,0.5316487433275139,0.46835125667248617,31.123945710056365,29.21245781168061,0.5233017920888461,0.47669820791115386,22.791876982840314,21.75332962957887,1.336100448523473,2.2251467289701794,1.5782836768961237,2.20070045935626,-1.11622718792872,-1.433024577266913,-0.22028056650978817,0.006387269465785856,0.4724576864598049,0.7928030294775761,1.7135072723283071,5.9816388515398895,1.0053556673858668,1.2092642572595138,1.2757762132019703,1.4202337246139929,1.7039568744576554,1.5987385653737611,1.8601263459202322,0.8111550309774052,Relax
91.08974031524878,658.725,27.460579079133502,,,,,,,17.588193136735963,17.657110084418044,0.04168747061237011,0.026700357716400565,662.0,25.9455,0.039192598187311176,37.25,1.5613075695522904,633.8,680.4,0.8333333333333334,21.666666666666668,573.0,717.0,6.315789473684211,125.0,,,0.04673545342383986,0.019705549678244973,0.0005911828958674941,0.06703218599795234,2.3716899141075998,0.697209150023356,0.29397146139388813,-3.926854973355298,12.485462276849372,36.74267757669428,0.33980817676632386,1441.2034773226487,2.9428367778438447,3.865695411275364,432.51081155661706,0.48333333333333334,0.4782608695652174,0.6181818181818182,0.06060606060606061,48.370927318295735,48.41228843650142,48.331462287104266,46.08695652173913,0.4442029772900141,0.555797022709986,8.32394951890149,9.311010431432095,0.5466551726385841,0.4533448273614158,27.166114869904234,24.73917052732532,0.5360437998597505,0.4639562001402498,20.090867735342496,18.69119409821533,1.2757903849142767,2.19147560076595,1.543705178920627,2.2203177670510907,-1.1329707094017412,-1.7568692648195583,-0.1912525113699743,0.00669901558586935,0.4969084455320409,0.7831238108911913,1.871802176901591,5.8931510915106475,1.0857006927054007,1.4468088123602296,1.2869056333999607,1.6573043389883153,1.7682769822162032,1.6633865683510678,2.133394772413072,0.8633613244510648,Relax
91.02597750234705,659.3083333333333,26.771926797034432,,,,,,,17.909670642449246,17.98044879736223,0.040606079801359156,0.027164332281227926,664.5,23.7216,0.035698419864559815,32.25,1.4948307722410032,638.2,680.0,0.8333333333333334,24.166666666666668,573.0,717.0,6.0,117.1875,,,0.021106403473351017,0.011344714064305967,0.0004033210843762571,0.03285443862203324,1.860461476041815,0.6424216744703831,0.34530232565586555,-4.479003364743052,12.714097273392333,35.68307039206466,0.3563061455669954,1425.2715597908395,2.806575223137633,3.860867729171287,400.5888849913789,0.5,0.49565217391304345,0.6666666666666666,0.05714285714285714,51.520681265206804,51.51850195663948,51.52142072928928,44.34782608695652,0.4814514016243122,0.5185485983756876,8.824321167534453,9.157982532621288,0.5620604383079747,0.43793956169202514,26.751844143240497,23.613986269599017,0.5529752005496198,0.44702479945038015,19.918958420711004,17.90934102093943,1.2339366146910427,2.17652010962617,1.455744401914333,2.1418097590319958,-1.2038550219473603,-1.707485499063493,-0.18478795390707478,0.006802555061221746,0.4799568572495264,0.8161970838995862,1.9328380674879602,5.850489295854284,1.1188082978456233,1.3173499845464038,1.2038295881909011,1.6725840231491589,1.8149324203646404,1.6910258220345808,2.6834608684584604,0.9209187460811358,Relax
90.87732977157734,660.2689075630252,27.274405174265983,,,,,,,18.24155249117069,18.31900787552854,0.04130802596010859,0.02762745948237683,665.0,26.686799999999998,0.04013052631578947,32.0,1.495180039498688,639.0,683.4,0.8403361344537815,25.210084033613445,573.0,717.0,5.95,117.1875,,,0.023954722998488987,0.012177960769727318,0.00047743331995546033,0.036610117088171766,1.967055359386362,0.6543197592292987,0.33263921938293534,-4.408127455206157,12.953494693396,36.49630378233611,0.35492620761408106,1485.2026213854156,2.8174870678677006,3.8787558170471645,411.3114557268122,0.4957983193277311,0.4912280701754386,0.6607142857142857,0.05555555555555555,49.60772480386241,49.61250888914559,49.604107085376356,45.614035087719294,0.4473194957341143,0.5526805042658857,8.66370758162053,9.63012545293758,0.5695381989812756,0.43046180101872455,27.54294098969467,23.945074470770805,0.5558640580827658,0.44413594191723405,20.41657938320756,18.249738459085872,1.2397443071792433,2.323254489821572,1.4818101339765937,2.3471149269382403,-1.5196159730741492,-2.3612983303335193,-0.1275462732332424,0.008758508071882718,0.6212260399503665,0.7603070542940902,1.897119984885881,5.893485700315747,1.1169637726887909,1.127787800915319,1.293377198821068,1.609750678517019,1.8270854436065005,1.6994776881638496,2.509281510812572,0.8690946760472198,Relax
91.01734244676122,659.325,27.601352573117612,,,,,,,18.72848906134738,18.8025596235636,0.041863045649895896,0.028405549708182425,664.5,27.428099999999997,0.04127629796839729,34.75,1.4737629118241264,636.6,683.2,0.8333333333333334,25.833333333333336,573.0,717.0,6.315789473684211,117.1875,,,0.03789442215976151,0.0158171171541261,0.0006418686030276769,0.054353407916915286,2.395785640993135,0.6971857628078627,0.2910050677651008,-4.146662561179503,13.295417413486199,36.66850116044631,0.36258415241220004,1531.5987659068282,2.7579804394295766,3.8921151177026863,404.52403577484665,0.49166666666666664,0.48695652173913045,0.6607142857142857,0.05405405405405406,51.49942329873126,51.467239394733,51.53088193852666,44.34782608695652,0.4721849544801151,0.527815045519885,9.138528977051328,9.661868086206427,0.5744419172108898,0.4255580827891102,27.79177082505701,23.920628164016996,0.5625547729102357,0.43744522708976435,20.68689485467668,18.242096188163483,1.1958205222680716,0.9905284835548898,1.2085369675428745,1.6753113192475038,-0.6643899408880429,-1.5758632711463862,-0.02876231279141899,0.0010231455615705679,0.09054925241468387,0.7368463368459537,1.930758344034711,5.9368603623259535,1.1271939694507283,1.150672975264533,1.2866349298487374,1.7792615018215434,1.8470612230453352,1.699760201705551,2.9169001831190506,0.9209187460811358,Relax
91.18494628164204,658.2436974789916,28.094262152151412,,,,,,,19.703952971722817,19.784272218243533,0.04268063979913467,0.029934130850302117,662.0,26.686799999999998,0.04031238670694864,37.0,1.4258185752102406,634.2,680.8,1.680672268907563,26.89075630252101,573.0,717.0,6.2631578947368425,117.1875,,,0.0568163339364317,0.023175017613505062,0.0007388778904414336,0.08073022944037819,2.451619881545308,0.7037801617842836,0.28706740677134507,-3.7646804075087137,13.989593046360618,37.23322948981653,0.3757287035814833,1636.385644847782,2.6614948245047576,3.9208557709673375,396.38419034697847,0.5042016806722689,0.5,0.6842105263157895,0.05405405405405406,48.74651810584958,48.73673778843558,48.75832236158518,44.73684210526316,0.4197280247964551,0.5802719752035449,9.065054532390507,10.658650834267798,0.5738275949508234,0.4261724050491765,28.204695915474463,24.306552749350583,0.5547579930902118,0.44524200690978827,20.94850931879874,18.767196702808334,1.1944218975339727,1.38551649742009,1.232703233970395,1.8871801462440176,-1.2366416150386303,-2.229975112245686,-0.027629650392257545,0.0016633400272503993,0.17380175640662912,0.7005413990824874,1.8803128665695,5.970336515674795,1.1373870581016996,1.3041578379252599,1.4961341666216128,1.9274905358022074,1.849927567056388,1.7030513929424347,2.5470219504209743,0.8690946760472198,Relax
91.04857046853712,659.0583333333333,28.896307179766954,,,,,,,20.92423306627425,21.01270632474927,0.043844840006221436,0.031748681426187746,662.0,28.9107,0.04367175226586102,39.0,1.3809971953687572,634.6,683.2,2.5,31.666666666666664,573.0,717.0,7.0588235294117645,117.1875,,,0.05072030546787866,0.027464860694607195,0.0010526648021830657,0.07923783096466892,1.8467344885473145,0.64010214376633,0.34661297968710686,-3.5948478843064717,14.858227133311665,38.25353486649413,0.3884144873190747,1785.6175204380772,2.574569262084501,3.958758548527658,393.9455001334141,0.49166666666666664,0.48695652173913045,0.6607142857142857,0.05555555555555555,49.973944762897354,49.97636620510919,49.97201322548713,46.08695652173913,0.4713729103088233,0.5286270896911768,10.201154803356035,10.802934315754607,0.5622360903114068,0.4377639096885932,28.683420041281934,25.309965320352926,0.5503249279804894,0.44967507201951057,21.52675247902767,19.458902003298853,1.1408661491014371,3.111317114196644,1.485166123321466,2.426218047655049,-2.0937002882780344,-2.430884425702459,-0.19753905185696036,0.01232870221568689,0.9570370990697438,0.6577918007221317,1.734601055388106,5.947236299807922,1.15103208243856,1.295108745688678,1.4296758743369786,1.8400624244794268,1.9234871089347203,1.7196743264253842,2.8751531925710645,0.9209187460811358,Relax
91.10010076123577,658.5833333333334,28.93707555605256,,,,,,,21.511966574033927,21.600670069314614,0.04393836602209676,0.032664000871619275,662.0,28.9107,0.04367175226586102,38.5,1.345161794318755,633.0,682.2,2.5,32.5,573.0,717.0,7.5,117.1875,,,0.0280733694351007,0.016157762729999955,0.0007565119727882353,0.04498764413788889,1.7374539968319473,0.6240239953231319,0.3591600102569448,-4.125354680399316,15.273980284185653,37.87426536860118,0.40328122897000684,1817.3823925280533,2.4796591761883686,3.9664164260933066,375.66107865058103,0.5166666666666667,0.5130434782608696,0.711864406779661,0.08108108108108109,49.06043676993397,49.10520542487022,49.015718748617395,47.82608695652174,0.4643265721186148,0.5356734278813852,10.409008484342715,11.180150388606783,0.5513985699486217,0.4486014300513786,28.12399651690351,25.36731749965736,0.5392162810521578,0.4607837189478423,21.205030508229875,19.602251909414477,1.241355784705609,1.7731616046902507,1.3787059284700625,1.8211022227514957,-1.2745101822321807,-1.4268503758067075,-0.2505042444460586,0.001424769083765282,0.1933555548546551,0.658063072021724,1.709521370991083,6.009817758177314,1.1656761670743776,1.375690075979652,1.303141294563577,1.6761542520573798,1.8777394711705437,1.7224298207928403,2.2848229335014696,0.9209187460811358,Relax
91.51886193490559,655.65,27.110929917809965,,,,,,,21.443300260230938,21.53182690488299,0.04134969864685421,0.03270540724507121,658.5,27.428099999999997,0.041652391799544414,35.75,1.2643077133089582,633.0,677.2,2.5,31.666666666666664,573.0,716.0,7.0588235294117645,117.1875,,,0.049975144991408045,0.038186922624740945,0.0010687120057369358,0.08923077962188593,1.3086978880835405,0.5600662148551987,0.42795684164766296,-3.2652621616476756,15.225300815777713,35.23628403877763,0.43209155650528375,1685.411127352838,2.3143243253534203,3.9336759668378534,326.19275714402215,0.5,0.5,0.7068965517241379,0.08333333333333333,49.08443540183111,49.10630538691193,49.0639448838713,49.137931034482754,0.4644723856866113,0.5355276143133886,10.377411910784966,11.142946389411023,0.563143796882716,0.43685620311728407,26.44233204416887,23.28945660438078,0.5476172934502326,0.45238270654976737,20.085910508366076,18.256013299247783,1.0909509721274209,2.122350368348376,1.3191457807750862,1.7753086184359603,-1.4105876193799478,-1.4272836407885703,-0.28506713855362986,0.0017477124493125446,0.28166409769299977,0.6849464478799407,1.717651497074333,5.940945570623228,1.1917919963572654,1.470361155228571,1.3280579169337403,1.6922482844686157,1.8563507606697656,1.7579216897540302,2.46308569093386,0.9209187460811358,Relax
91.55095208881511,655.4297520661157,26.845181580773176,,,,,,,21.45751616567025,21.547210559911584,0.04095813700270536,0.032738086878158296,658.0,26.686799999999998,0.04055744680851064,34.0,1.2510852315573515,634.0,677.0,2.479338842975207,31.40495867768595,573.0,716.0,7.117647058823529,117.1875,,,0.054746304526018905,0.025602296421984534,0.0012288959671968274,0.08157749691520028,2.1383357033163866,0.6710956648121679,0.31384018130144514,-3.665073227536011,15.236178702567866,34.936624795489905,0.43610906296062,1672.2718387116,2.293004399430008,3.9302769862085336,320.43933742917545,0.5289256198347108,0.5299145299145299,0.7419354838709677,0.07894736842105263,49.67418546365915,49.67728925024579,49.67207904101037,46.15384615384615,0.45430851930281807,0.545691480697182,10.269682884813038,11.255250875431766,0.5885740175932386,0.41142598240676165,26.802881665946657,22.409223246290818,0.5671180922490455,0.4328819077509545,20.296069227234142,17.73208897410297,1.1793457172447215,2.790572946426349,1.3893707243575366,2.402741261058663,-2.2902969331712395,-2.8551190102346826,-0.13685932740125487,0.010762742526932642,0.7844822920790112,0.6832923714748116,1.6502599069543553,5.96713996871202,1.209001453451493,1.0522278500433015,1.353152727259417,1.599407957477106,1.8366168894324746,1.758507318570647,2.8729043289230414,0.9148910065817646,Relax
92.34255023625987,649.9421487603306,32.219377585717254,,,,,,,24.251804056605767,24.351188721638678,0.04957268527232923,0.037313788777758955,654.0,28.1694,0.04307247706422018,36.0,1.3285352920761893,627.0,676.0,3.3057851239669422,30.57851239669421,557.0,716.0,7.5625,132.8125,,,0.04229019666829363,0.03360114055224218,0.0011616348509079309,0.07705297207144375,1.2585940826187711,0.5488457554769208,0.43607844900631604,-3.3931952675818895,17.218890675024085,42.2542723214087,0.40750650121360393,2285.733894029719,2.45394858001499,4.065995778242625,414.7592462507502,0.512396694214876,0.5128205128205129,0.7333333333333333,0.05128205128205128,50.95877277085331,50.91737235275189,50.997827401843395,48.717948717948715,0.5628524469381393,0.43714755306186065,12.919433606233763,11.38571270415307,0.4941238432234143,0.5058761567765858,29.702194129970493,30.053339136896433,0.5039132301989389,0.496086769801061,22.903406960977836,22.7248503521896,1.1037698506542695,3.119812089913381,1.3821565108195557,2.363114882578965,-2.4281164126290466,-2.6780490338036227,-0.18557132818001076,0.01105827931417905,0.8896450668457229,0.6825170941014598,1.5007047122976347,6.024327444237177,1.1011352095551226,1.4576233087517558,1.4650351872517287,1.6450196320082697,1.8633216379521678,1.7578354219105374,2.911572227453082,0.8577103186704043,Relax
91.71624086905764,654.1239669421487,34.89975411755167,,,,,,,24.760687927977017,24.853845888759047,0.05335342516296798,0.037853203948062755,658.0,28.1694,0.04281063829787234,39.0,1.4094824109518604,629.0,679.0,3.3057851239669422,33.057851239669425,558.0,747.0,7.117647058823529,132.8125,,,0.04641085306228122,0.042610599941326356,0.002175738684201055,0.09119719168780863,1.089185628134495,0.5089066034089895,0.46723587813091183,-3.1556522317448326,17.574322966506916,45.83565782238981,0.3834203282214531,2530.649184700056,2.6081037607959776,4.110202054523908,478.17660618052975,0.5041322314049587,0.5042735042735043,0.711864406779661,0.05263157894736842,51.99449793672628,51.89866976938147,52.090010407936006,47.863247863247864,0.5574207228391621,0.4425792771608377,13.12672557684314,11.696620211400722,0.5017353865104438,0.4982646134895563,32.46690084669928,32.35441047866275,0.5088778530212968,0.49112214697870316,24.76298220084922,24.327133018417417,1.233302046712058,1.9055953010313447,1.3262223489624867,1.876878327670354,-1.7725586749102344,-1.88238460502098,-0.2110320442069511,0.0019316082038219266,0.22495403598991126,0.6461060105873413,1.4830239875784417,6.085029741492932,1.0909510540422196,1.1406318255501997,1.4209023824897418,1.614648575455052,1.7811298128435695,1.7057976331133013,2.7005532846522136,0.8577103186704043,Relax
91.2720185074333,657.5166666666667,31.96531295784537,,,,,,,24.10045503249076,24.202029128352848,0.048615213238466,0.03665375534078846,660.5,25.9455,0.039281604844814536,34.5,1.326336490939764,636.6,679.2,2.5,31.666666666666664,558.0,747.0,7.0588235294117645,132.8125,,,0.05637373582498801,0.04225653452741232,0.0020316233844924593,0.10066189373689279,1.334083271509586,0.560030551107414,0.4197868027186262,-3.1639962737673946,17.113418915132645,41.91887227744076,0.40825093771290394,2253.700726466205,2.4494738593919267,4.059866354647209,410.71672743512033,0.5,0.5,0.7241379310344828,0.05405405405405406,50.3576537911302,50.35692144567143,50.356228006532675,50.0,0.5581099263588881,0.44189007364111166,12.785054834401144,11.37626878749899,0.44107745011770855,0.5589225498822915,27.839858151476218,31.339019625988215,0.45779695317013586,0.542203046829864,21.66235593158049,23.574919328000874,1.2508680788420652,2.516338267193724,1.4461588513943917,2.4224928243422275,-1.9611283541295776,-2.7690318757515886,-0.1120020961900862,0.01049523774307333,0.7015263786036965,0.705781454986175,1.3987168811184474,5.992318879259732,1.1137722477106178,1.2000595434420402,1.4175836274160194,1.617316875993993,1.7430299738510866,1.6914428593080508,2.4805340841426964,0.9209187460811358,Relax
91.17886824912829,658.05,30.859086073267157,,,,,,,23.517917360489,23.617359315066306,0.04689474367185952,0.035738800031135935,660.5,24.462899999999998,0.03703694171082513,32.5,1.3121521604252084,639.8,678.2,2.5,30.833333333333336,558.0,747.0,7.0588235294117645,140.625,,,0.052536919577704025,0.06494088770945915,0.001760064859184892,0.11923787214634807,0.8089960182366218,0.44060598056649475,0.5446330644826767,-2.734277842714092,16.69999492540266,40.44353247659385,0.4129212732608744,2121.853000614936,2.421769147670487,4.033685403177848,391.77959669849736,0.5,0.5,0.7241379310344828,0.05405405405405406,49.99999999999999,49.98507454274845,50.01288632079836,48.275862068965516,0.5424048132729649,0.4575951867270351,12.299235197388413,11.296842216646057,0.4507990884562339,0.5492009115437663,27.15442406119944,29.971929752517674,0.4641430332658691,0.5358569667341307,21.07882744054001,22.648788236433873,1.2834539951514763,2.1874598312443947,1.3807184243889294,2.0651450668798086,-2.237785641125825,-2.374799492189643,-0.18711350365619064,0.003064250210222233,0.31906268733289533,0.74472001559336,1.3506671834767396,5.817155962520951,1.1208699618931697,1.3630602199677682,1.4053255513093406,1.5859657131032576,1.705168324445493,1.6896829661830437,2.4665910423041613,1.0360335893412778,Relax
91.19559718461778,658.0083333333333,30.82247783770835,,,,,,,23.66343134867125,23.763487088716207,0.04684207824780591,0.03596220617571396,660.5,22.9803,0.03479227857683573,30.75,1.302536279863702,639.8,679.0,2.5,31.666666666666664,558.0,747.0,6.666666666666667,140.625,,,0.07437452243280224,0.033262470820447816,0.0008719198930194252,0.10850891314626947,2.2359891071916747,0.6854231627271554,0.30654136933074033,-3.4033255199294374,16.803322865070196,40.38724388636401,0.41605520080422026,2132.010120040894,2.403527219626229,4.035759371792632,388.2873600262356,0.49166666666666664,0.49572649572649574,0.7241379310344828,0.05128205128205128,49.975973089860624,49.961835181305396,49.98813928655264,48.717948717948715,0.5391460943948375,0.4608539056051625,12.338104131483169,11.407141682118803,0.4518994924989528,0.5481005075010471,27.149706796246942,29.900215544615556,0.4647735287784031,0.5352264712215967,21.087145286661013,22.629027497557225,1.2571684891135921,0.7964914242839738,1.2876816507532092,1.5372669710431892,-0.5550708176197006,-1.2287830819763848,-0.1866440583282474,0.00013986268211601844,0.030319382367210823,0.7646674193914871,1.3814750746839415,5.796055387723953,1.1050368736771208,1.2909304178231549,1.325672925331334,1.471815829662186,1.6848352961590474,1.6992702746840143,2.5612864144813554,1.0360335893412778,Relax
91.16629100709027,658.1333333333333,31.064836868006473,,,,,,,23.889275396955778,23.9882555653908,0.04720143365276511,0.036298534334920654,661.5,22.9803,0.03473968253968254,33.25,1.3003674808807755,638.8,679.0,2.5,31.666666666666664,558.0,747.0,7.0588235294117645,148.4375,,,0.06886203438032937,0.03381586147500517,0.001066180258245331,0.10374407611357987,2.0363826730017927,0.6637683515050887,0.32595462547647813,-3.3868253121595266,16.962258179123772,40.64284481478801,0.41734918548201644,2165.796466919796,2.396075120753027,4.042587750872092,389.5332371893589,0.475,0.48305084745762705,0.7017543859649122,0.05,49.1219743711438,49.095503175321234,49.14789345681436,50.0,0.5293390072592874,0.4706609927407122,12.342052956718371,11.6378983483317,0.4499935201968309,0.5500064798031693,27.263852845554453,30.141717977827547,0.46176549230984865,0.5382345076901514,21.161804544632865,22.846923650909698,1.2370002821103554,0.8911282316995317,1.2370002821103554,1.558009645221635,-0.8814541005317746,-1.4525665289598662,-0.1397719747930546,0.00033150780972924176,0.043112260443962845,0.7664916433803479,1.496642418288756,5.792802391677593,1.1391877170544034,1.422136388455605,1.3337583309543073,1.5420589252164723,1.6899121877882863,1.7039345460477793,2.6035284626666773,1.0935910109713487,Relax
91.53713357538616,655.5785123966942,31.83832911919104,,,,,,,24.295232728527903,24.39702965572672,0.048565242022339944,0.03705922672741098,658.0,26.686799999999998,0.04055744680851064,36.0,1.3104763998332025,634.0,679.0,2.479338842975207,33.88429752066116,558.0,747.0,7.117647058823529,140.625,,,0.07350806168282048,0.04372090259671421,0.0015655672095176178,0.11879453148905231,1.6813024735757602,0.6187832113264804,0.36803800687360244,-3.1299289709483347,17.251305110373664,41.79210208781999,0.41278864303409696,2264.9887283255257,2.4225472693477146,4.06203615505757,404.97337117259696,0.4628099173553719,0.47500000000000003,0.7017543859649122,0.05,49.83981693363844,49.82658006213204,49.851609615001955,49.166666666666664,0.5254055427708206,0.4745944572291794,12.504620994595854,11.88459917199531,0.4665964208346716,0.5334035791653284,28.547292024716533,30.522645936653703,0.47515831895376825,0.5248416810462319,22.03762042693053,23.16112705000897,1.2261813919537434,0.9339353810406488,1.2839699321817952,1.5766134799678402,-0.43520898000091535,-1.1107719144879233,-0.18665546489954868,0.00038930604255278146,0.05482959617263799,0.7506405472901827,1.628014298007036,5.9080883403837,1.1490845313560065,1.2509027183061714,1.2641651467176562,1.6693091906584263,1.7364504413361583,1.7117740513351383,2.7944062264273977,1.0864330703158454,Relax
91.87924122910287,653.2561983471074,33.39025030494676,,,,,,,24.931071644302282,25.03301881140836,0.05111356063583015,0.038164309358845405,655.0,31.1346,0.04753374045801526,43.0,1.3393026493739884,626.0,679.0,2.479338842975207,34.710743801652896,558.0,747.0,8.066666666666666,156.25,,,0.07251175920378734,0.035967406511991214,0.0010995292003760546,0.10957869491615461,2.0160408057114867,0.6617322761442864,0.32823357258919794,-3.325142125292129,17.70101735511726,43.90008669746357,0.4032114441391291,2441.2568702760136,2.4800883371131386,4.094583588467128,435.5043720665402,0.4628099173553719,0.47500000000000003,0.7192982456140351,0.04878048780487805,50.948389942655496,50.93350149746032,50.959729228760885,48.333333333333336,0.5390349524716103,0.4609650475283897,12.99725245690686,12.01924227536618,0.4673126645032623,0.5326873354967376,30.010218215839057,32.04066813726798,0.47734436053175056,0.5226556394682492,23.125113716378237,24.197795349540513,1.218678301734937,0.9457861572912938,1.218678301734937,1.5505980735801193,-0.7107448049141887,-1.2515456397943856,-0.1490541024666806,0.00032462590091693615,0.048452309996808635,0.6826739681607266,1.6314168191528755,5.966314634248301,1.1422315247314043,1.205117931350087,1.2642583770018543,1.5583744562113213,1.7701374091049202,1.727198472243869,2.6899376443452607,0.9148910065817646,Relax
91.77883834898807,653.7768595041322,33.59649971929263,,,,,,,25.263775120383993,25.365826224588513,0.051388328037144736,0.038642810238872206,658.0,29.651999999999997,0.04506382978723404,43.0,1.3298289570423467,626.0,679.0,2.479338842975207,35.53719008264463,558.0,747.0,8.066666666666666,140.625,,,0.07187494552114512,0.029142015043233657,0.0007462299733550635,0.10176319053773385,2.4663684173697322,0.7062961090483287,0.2863708860663894,-3.535574330186035,17.936347733806098,43.95961628751619,0.40801875103945634,2477.0671543714316,2.4508677541226476,4.100907890620139,430.95682417071265,0.47107438016528924,0.4789915966386555,0.7192982456140351,0.05,48.84632128863735,48.87183519268668,48.820057832909995,49.57983193277311,0.5157525035578593,0.4842474964421408,12.88312034857885,12.483434401388967,0.4533299943203606,0.5466700056796394,29.59791511707445,32.50248121094933,0.46224123623346325,0.5377587637665368,22.825548944039774,24.619579802688506,1.2372567898768505,0.5653329520358055,1.2660916526126285,1.284000850677312,0.22456825613101028,-0.15135682337045253,-0.46832097262296285,6.376637007921255e-05,0.010905228505284642,0.6829118175528079,1.5950491749820006,5.977430154644552,1.1253445218617428,1.3308216278712757,1.2643432457271722,1.5627053330270027,1.7455374948461773,1.707518052484849,2.3484615132844815,0.9148910065817646,Relax
91.89109403896832,653.1239669421487,33.390510190754775,,,,,,,25.140107398338614,25.243818057894014,0.051124306993487474,0.0384920913498883,657.0,29.651999999999997,0.0451324200913242,42.0,1.328176911167905,626.0,678.0,2.479338842975207,35.53719008264463,558.0,747.0,7.5625,140.625,,,0.061954174427421314,0.03202070823751963,0.0009496116794197001,0.09492449434436065,1.9348158687766854,0.6526679426141387,0.3373281939365099,-3.4413724530598166,17.85007493177628,43.77545477977895,0.4077644657622542,2454.82525648124,2.452396135427472,4.096990692837498,429.4190245140398,0.4628099173553719,0.47058823529411764,0.6785714285714286,0.05128205128205128,50.764525993883794,50.72913654376675,50.79726590489363,48.739495798319325,0.5357646717561277,0.4642353282438721,13.066410847550095,12.162934464590196,0.45932738007305235,0.5406726199269477,29.668243422970324,32.18828627578438,0.47022607188908305,0.5297739281109171,22.92308618229226,24.331283855992524,1.2188010283221848,0.6801682544190131,1.2188010283221848,1.3140401670905875,-0.032986279506568295,-0.2976098650609593,-0.3599770892721918,0.00015287878064536571,0.017626145104926133,0.6667932145158102,1.504077396776274,6.033255671191359,1.1334764594017206,1.3220779809065222,1.0003069245424887,1.448077491350973,1.7912753798699323,1.7148610445168166,2.88961612148604,0.9720716944931248,Relax
91.86683336948356,653.2231404958678,33.30427590247879,,,,,,,25.64355019623193,25.748785019336133,0.050984531682691465,0.039256953109110114,657.0,29.651999999999997,0.0451324200913242,42.0,1.2987388894137026,627.0,677.0,3.3057851239669422,35.53719008264463,558.0,747.0,8.066666666666666,156.25,,,0.0704263256270138,0.02683944961319962,0.0013555724084218877,0.09862134764863531,2.6239854632629345,0.7141083275187665,0.27214644955798284,-3.6178824733035304,18.207140494487167,43.56486478778044,0.41793175723557185,2491.884946848525,2.392735136029251,4.103498096543502,416.956730696343,0.47107438016528924,0.4789915966386555,0.6842105263157895,0.05,49.10519423832386,49.09827774771024,49.11219176048764,50.42016806722689,0.5035419649985428,0.4964580350014575,12.92105961260937,12.829849649033566,0.4498333487873114,0.5501666512126887,29.218787840691103,32.31346284597602,0.45782075175364134,0.5421792482463585,22.59083159593647,24.58419129354349,1.1851640470871752,0.723846137241112,1.2292934274732634,1.5470871157077313,-0.5556793382590826,-1.573206327830344,-0.06096513902012969,0.000362987305240303,0.041789751777368746,0.7011989326260912,1.5564453822935902,6.0001978199516905,1.1303216106493956,1.5231369306027094,1.2568166209759457,1.4553431332368165,1.7874108576293335,1.7149563528281175,2.5926843486616717,0.9720716944931248,Relax
91.75845077713777,653.9586776859504,32.405348502527296,,,,,,,24.42829643398546,24.529167169245813,0.04955259347149342,0.03735449542534647,657.0,28.1694,0.04287579908675799,38.0,1.3265496671083414,631.0,677.0,1.6528925619834711,32.231404958677686,558.0,747.0,7.5625,148.4375,,,0.06522943281883868,0.030583764665484944,0.0006820002118751347,0.09649519769619876,2.1328124098617858,0.6759863120256426,0.31694597654251694,-3.4872859773114255,17.344740442232144,42.54107217888205,0.4077175198899266,2318.0676664592593,2.452678512000109,4.07209621921704,417.3582944423586,0.47107438016528924,0.4789915966386555,0.6842105263157895,0.05128205128205128,49.24277191372189,49.243658158802184,49.241420305932365,50.42016806722689,0.5076317222695472,0.49236827773045294,12.35861214366917,12.171395036841798,0.4484913328666071,0.551508667133393,28.48954142211389,31.59254424205983,0.45692205124415075,0.5430779487558494,21.958930581428483,23.939838228665675,1.2399613892363992,0.8465267761778623,1.3010373957833172,1.5504821506269861,-0.7267916061344124,-1.234023464427505,-0.20533152421954992,0.000771754015604691,0.05467315951581079,0.7509196257062634,1.5910887737659036,5.990732968482874,1.1242552004829678,1.310045980421155,1.123236502422687,1.5781354828380523,1.7709368707116262,1.7089288129545184,2.4816147047669714,0.9148910065817646,Relax
92.33269250201018,649.844262295082,33.47776380354585,,,,,,,24.29671950104369,24.385271375465486,0.05151659519976531,0.03738852662210782,653.0,29.651999999999997,0.04540888208269525,39.5,1.377871765861551,625.0,675.0,1.639344262295082,31.147540983606557,558.0,747.0,7.625,132.8125,,,0.049782527121052564,0.026236071997786475,0.0004044213579724145,0.07642302047681146,1.8974840107639852,0.651407479192186,0.3433006420591177,-3.6406200213180027,17.242990750665854,43.79201327864757,0.3937473858748877,2372.2332000733463,2.5396994008685243,4.082127489648483,444.87419954643076,0.4672131147540984,0.47058823529411764,0.6785714285714286,0.05,47.84403669724771,47.74290403071521,47.94094530554605,50.42016806722689,0.4981800363992722,0.5018199636007279,12.17665115429252,12.221054237121551,0.4438314283083392,0.5561685716916609,29.174534663621138,32.65864287073811,0.4511329345456144,0.5488670654543857,22.3542423957083,24.657059038184986,1.2537985355331054,1.3213315098004355,1.323768775705429,1.814549056337996,-0.9151519064352662,-1.58151725995483,-0.12857142436065047,0.0015454020678122573,0.14429052965487824,0.7576039087649034,1.6850753266397205,6.0717702267475495,1.0766428910179175,1.5278789836403188,1.232796012769302,1.4690014955353525,1.7868656939222034,1.6676852768412007,2.563381649259885,0.9657584814636809,Relax
92.60600590652174,648.016393442623,33.29804888597106,,,,,,,23.821130976335603,23.920178325620327,0.05138457795654418,0.036760074617533244,652.0,28.1694,0.04320460122699386,40.75,1.397836606458779,625.0,672.8,1.639344262295082,31.147540983606557,558.0,747.0,7.625,132.8125,,,0.06041357176862246,0.0349740441709875,0.0003910126546253432,0.0957786285942353,1.7273830693774375,0.630762547504868,0.3651549900464174,-3.353149087725049,16.91412030123761,44.1178268348306,0.3833851645630939,2344.301144585352,2.60834297315495,4.076983509556601,460.2976944619891,0.4426229508196721,0.44999999999999996,0.6296296296296297,0.024390243902439025,49.97671169073125,49.965566963189914,49.98611122685453,48.333333333333336,0.5178339960093794,0.4821660039906205,12.171517297910452,11.744857030490692,0.47204455688334374,0.5279554431166563,30.311372997752866,32.05625230152766,0.47791240071430885,0.5220875992856913,23.096808939139567,24.140681207102087,1.2901630659095427,1.3853201302519418,1.2901630659095427,1.7748617250716054,-0.95072910870811,-1.2840023987650975,-0.1501179412776505,0.0018152780309150147,0.14416204406788158,0.7789386645734129,1.669656772427155,6.075788464417,1.0946346990219213,1.2605013697330514,1.0337123230909318,1.6822561451835636,1.7851721532073033,1.6627451947944225,2.6974101714057612,0.8521398365856008,Relax
92.55085692858535,648.3636363636364,33.51019745291474,,,,,,,24.2371959324231,24.338576715301386,0.05168426415901039,0.03738210253177988,653.0,29.651999999999997,0.04540888208269525,41.0,1.3825938258842378,625.0,673.0,1.6528925619834711,33.88429752066116,558.0,747.0,8.066666666666666,132.8125,,,0.0515225472860312,0.03463801745613817,0.00029113448837182597,0.0864516992305412,1.487456588740212,0.5959691682708949,0.4006632346666638,-3.3628034297162297,17.209972639818616,44.336650983674666,0.3881658234889133,2397.1374546929924,2.576218563014633,4.086663047668007,456.88361314417466,0.45454545454545453,0.46218487394957986,0.6727272727272727,0.023255813953488372,50.297755382501144,50.28261744006816,50.31039699016768,48.739495798319325,0.5213283588441406,0.4786716411558595,12.42625304369271,11.907027795565513,0.4653795790885153,0.5346204209114845,30.245902396559643,32.41795811993665,0.47270581563762754,0.5272941843623721,23.121703835229084,24.420291967852638,1.2303813188546822,1.7724177220330848,1.3176427931953811,1.7747636827653723,-1.3680810326749935,-1.3515273145631843,-0.24209189860410438,0.0017648424978367642,0.1915521268421307,0.7541534934144609,1.7509374747077997,6.049784596811193,1.1186326447412434,1.6486354619456542,1.1910583265658754,1.7214056856426558,1.812751122901407,1.6729307901233779,2.8963962035924657,0.8577103186704043,Relax
92.09450258591879,651.6475409836065,35.340825110954896,,,,,,,24.285321894183987,24.382910173725058,0.05423303686163064,0.03726757237129655,653.5,31.1346,0.04764284621270084,43.25,1.455233958394373,625.2,677.0,1.639344262295082,35.24590163934426,558.0,747.0,8.133333333333333,132.8125,,,0.044301245261639186,0.028990354207749917,0.0003888823438854865,0.07368048181327458,1.5281374261303868,0.6012616119138582,0.39346043204791986,-3.5407921178496755,17.241321128903447,46.89380990827573,0.3676673139296522,2540.01295806284,2.719850152878522,4.111806042172608,510.17654419232025,0.4344262295081967,0.44166666666666665,0.6226415094339622,0.023809523809523808,51.10509697789807,51.147014036629855,51.06140144905391,50.0,0.5403780670655661,0.45962193293443376,12.675928631333749,11.69045194450012,0.4377733624466867,0.5622266375533134,31.027028506350458,35.16181038825524,0.4499947147887439,0.5500052852112559,23.699743296083934,26.201331802470275,1.214008877876662,0.9518654902920023,1.2292093136263584,1.543743820891681,-0.4910897853038918,-0.9690322563871598,-0.1695599215716569,0.0006530083406548953,0.06000345148465578,0.8193662141557998,1.6037072377251158,6.092181907039952,1.0869676119067424,1.237670868165834,1.1814901480960223,1.7317840352801024,1.8301637008372738,1.6982870697965984,2.3031075172131596,0.7953305141465608,Relax
91.52436387686669,655.6166666666667,30.252212456999192,,,,,,,21.38482930419946,21.47285743267266,0.04614314125174648,0.03261788540691887,657.0,28.1694,0.04287579908675799,38.25,1.4146576541089526,629.0,677.0,0.8333333333333334,34.166666666666664,580.0,747.0,6.666666666666667,109.375,,,0.039445174013029785,0.050950154062882794,0.0006500454483359548,0.09104537352424853,0.7741914570924843,0.4332474291241627,0.5596127742758176,-2.976907495512621,15.183603102094796,39.904372232003716,0.38049973606444537,1903.46632733599,2.6281227165703727,3.986515308432104,419.49434861363585,0.44166666666666665,0.4491525423728814,0.6226415094339622,0.023809523809523808,50.93780848963476,50.902210187170915,50.97310535369522,47.45762711864407,0.45538404998162446,0.5446159500183755,10.247364274596233,11.20646000138812,0.4878177894313173,0.5121822105686828,27.870791339885596,28.55832476387344,0.48371510332750306,0.5162848966724971,20.997493713390096,21.692886611532117,1.1411780873705009,2.212582288038111,1.3629169975099533,2.034088397356253,-1.9511320304136994,-2.3966083933017055,-0.19665697701963214,0.0024974405685480737,0.35154310813635725,0.7791964221837384,1.7016083722337574,6.027316637094895,1.151556550994232,1.3469362084784688,1.202993167463865,1.7258738155511024,1.8556326365144267,1.738532741405385,2.9094133661486916,0.9209187460811358,Relax
91.7423810765571,654.0333333333333,27.82808367272814,,,,,,,20.558994841858468,20.645677085983355,0.04254841803077541,0.031434169780120993,657.0,28.1694,0.04287579908675799,37.0,1.3535721900211621,629.0,675.2,0.8333333333333334,32.5,580.0,732.0,7.0588235294117645,109.375,,,0.022425735433161422,0.021017717798547712,0.000294644923687797,0.04373809815539693,1.0669919373791859,0.5127277220304621,0.48053570422458564,-3.862389492284703,14.59869826968655,36.70945622102428,0.39768222612149634,1683.6117829704137,2.514570514636198,3.933212066513378,369.2340648868641,0.4666666666666667,0.4745762711864407,0.6785714285714286,0.022222222222222223,50.30800821355235,50.3093324299973,50.30603240577827,47.45762711864407,0.4493220406377986,0.5506779593622012,9.785842419761662,10.833485440044724,0.4791842234192514,0.5208157765807484,25.411435947017633,26.49232151310864,0.47510631292145594,0.524893687078544,19.25491870605777,20.23866974301399,1.100312388272279,0.715042310399026,1.1224131808636049,1.457833543471792,-0.06459002296058358,-1.057728235624632,-0.030908370413762886,0.00040960288533723496,0.046078734413284146,0.6762197130876704,1.7578579175523736,5.948068512058839,1.1730020908021632,1.2684282083882017,1.3069420717964713,1.8191899128024607,1.859298899508285,1.753064454909395,3.061041173010541,1.0360335893412778,Relax
91.77299916125376,653.8925619834711,27.91409490230475,,,,,,,20.494918069284072,20.57899822798056,0.042689115192918126,0.031342944178958464,657.0,28.1694,0.04287579908675799,37.0,1.362000804684351,629.0,675.0,0.8264462809917356,30.57851239669421,580.0,732.0,7.117647058823529,109.375,,,0.029452985082459207,0.020657189089606228,0.0003761076706463313,0.05048628184271177,1.425798299792813,0.5833859022183282,0.40916439744885497,-3.879691880229235,14.551549197030997,36.809064751758626,0.39532515414795394,1682.7278695410846,2.5295632962069017,3.9329839975879066,372.44343665500736,0.4628099173553719,0.47058823529411764,0.6785714285714286,0.022222222222222223,49.15859255481897,49.16557314146755,49.15284660383904,48.739495798319325,0.44372582085110607,0.5562741791488941,9.6940595168364,10.854074090853992,0.4772609583960948,0.5227390416039053,25.42920234042287,26.61320943120148,0.47272767508528546,0.5272723249147145,19.243429028971608,20.323309777183677,1.0781137285076299,1.9560266332327707,1.2940133735435406,1.8678712307129057,-1.3698139952993316,-1.8628978573264838,-0.2066206321429597,0.0024667923575913938,0.2976671047056441,0.6380464559340293,1.5769147207285406,6.033255671191359,1.1758180310239938,1.6849002878417803,1.4333194164007723,1.6708525067763045,1.8449489686212484,1.733262643222087,2.7363714582580267,0.9720716944931248,Relax
91.72147893419799,654.2892561983471,28.40875393739546,,,,,,,21.88968554669832,21.981388549794367,0.043419257871450324,0.033455670163201466,658.0,29.651999999999997,0.04506382978723404,38.0,1.2978146203512013,629.0,677.0,1.6528925619834711,33.057851239669425,580.0,732.0,6.722222222222222,109.375,,,0.03674784307201443,0.020228879992086612,0.0005222054356141601,0.057498928499715204,1.8166029501578889,0.63910483257434,0.3518131645216103,-3.9006439930480803,15.543188903455924,37.21557637132414,0.4176527792656324,1817.2502922403364,2.3943334023978506,3.966384857331886,356.4259903813983,0.4793388429752066,0.48305084745762705,0.7192982456140351,0.022222222222222223,49.831649831649834,49.837916534051466,49.82554960779504,48.30508474576271,0.4443903372232561,0.5556096627767441,10.361531959021075,11.585814275957249,0.47548323887762156,0.5245167611223789,25.66210960991293,26.952833895875845,0.4708651097415076,0.5291348902584925,19.569174920892817,20.744714356380623,1.0881333771540311,2.0062970502866415,1.347679258826419,1.9839469060601114,-1.3796552259846706,-2.127032099070812,-0.18286468489659186,0.0031404709491266256,0.3545941003401566,0.6229836367866821,1.8325814637483102,6.005074600660639,1.2467409159047484,1.273620742343723,1.3897902367782284,1.894285816223177,1.9220379408447927,1.7499989269854124,3.010053191692557,0.8577103186704043,Relax
89.25071125358441,672.8305084745763,49.28710673530689,,,,,,,50.47526262192339,50.69232591691843,0.07325337676356164,0.07501928343939039,675.0,45.9606,0.06808977777777778,62.75,0.9764606299224992,633.0,714.6,8.47457627118644,51.69491525423729,425.0,796.0,13.11111111111111,226.5625,,,0.03936895885541806,0.017269751359161638,0.00590824453385749,0.06254695474843719,2.279648272673755,0.6294304656998787,0.27610858799793353,-4.05879878419635,35.844887409971584,60.04130430638286,0.59700380969507,6761.253376740804,1.6750311870049326,4.536997321309605,402.2842288865794,0.5084745762711864,0.5213675213675214,0.8032786885245902,0.022727272727272728,49.899742194213715,49.719040158462064,50.05264494460666,46.15384615384615,0.5625002096703311,0.4374997903296688,26.88368945328542,23.709175439057343,0.5126047519427217,0.48739524805727824,42.987425086509326,41.91705508791642,0.525715381509291,0.47428461849070913,35.85143981898734,34.05263945161534,0.983114280706502,1.9356504515392885,1.2536755807191415,1.029002603752799,-0.38353430491035745,0.9046244046552929,-0.6160710482554718,0.00038710083908543924,0.16518289110903,0.8355782387113742,1.7715567619105352,6.267987752641663,1.0756935953859788,1.629654054926797,1.3070332624668388,1.708668462148071,1.6891066705386037,1.730131665636111,2.3468459624294855,0.9915672189758585,Stress
89.3272126555786,672.2735042735043,49.94904712970939,,,,,,,50.811772325874955,51.03141505326725,0.07429869958014644,0.07558199453477636,675.0,50.4084,0.07467911111111111,65.0,0.9830211552033142,630.4,714.8,8.547008547008547,52.991452991452995,425.0,796.0,11.7,242.1875,,,0.03805820741138372,0.017889475423104623,0.00455983348797724,0.060507516322465586,2.1274076802850668,0.6289831367157479,0.2956570771764187,-4.02354270424443,36.08465963771053,61.03140827559157,0.5912473701207702,6918.721944951704,1.6913394469657201,4.54699598714721,412.89931328151255,0.5128205128205128,0.5258620689655172,0.819672131147541,0.022727272727272728,49.5311167945439,49.36846749351169,49.66979732369805,47.41379310344828,0.5625674055821004,0.43743259441789956,27.06554042063209,23.866294224282075,0.5038244209918367,0.4961755790081634,43.32045390791131,42.99036019056459,0.519040684229022,0.4809593157709777,36.119282973560935,34.76903125853868,0.916142640580847,2.3978786466131163,1.3356263134980877,1.0529054383623673,-0.28703844666489786,1.294813219034978,-0.6179045801734169,0.0006649609736898171,0.2983201341447131,0.8628931245377056,1.9183221925364844,6.284643992976728,1.0854068465449433,1.777559409452442,1.2866368821631533,1.8195001836017888,1.6706571796752585,1.7243975771315228,2.1635454059919947,0.9395370556695254,Stress
89.06955971397102,674.025641025641,50.106345791667586,,,,,,,50.79140912968757,51.01075745675459,0.07433893125404328,0.07535530703609447,677.0,50.4084,0.07445849335302807,65.0,0.9865122202797959,632.2,715.8,8.547008547008547,53.84615384615385,425.0,796.0,11.7,242.1875,,,0.04114177306616193,0.01965137328908101,0.004445791859989109,0.06523893821523205,2.0935825939972217,0.6306321683291299,0.3012215377302506,-3.9296080556238446,36.07005251113342,61.28603856702096,0.5885525211698593,6944.775281140369,1.699083707962564,4.548628307373125,416.5204386191627,0.5042735042735043,0.5172413793103449,0.8166666666666667,0.022727272727272728,50.5245250921463,50.32891282415767,50.68639679892348,47.41379310344828,0.5674061747083573,0.4325938252916429,27.17079634300481,23.724414135800203,0.4997049064313382,0.5002950935686619,43.32298346735772,43.348559684555035,0.5171232873701458,0.48287671262985404,36.160289479109494,34.94242015668338,0.9398229300302654,2.6445811802621373,1.2999873432231341,1.3094351711117596,-1.2436601717718059,-0.005479764179328495,-0.49642747669871534,0.0009317019346685994,0.3304877941517661,0.8774143537407766,1.7193043900126324,6.284643992976728,1.074811539978074,1.6332719088315975,1.2892670501462307,1.7281724182636629,1.700946040249286,1.729289379989885,2.2962160584815603,0.8220949237108347,Stress
89.08013335498029,673.7863247863248,49.34202046724633,,,,,,,50.31290024471341,50.53108874282477,0.07323096158547589,0.07467189284476639,678.0,51.891,0.0765353982300885,65.0,0.9807031641438898,632.2,715.6,6.837606837606838,52.13675213675214,425.0,796.0,11.7,328.125,,,0.04640677753056655,0.020051648414730495,0.006004108419162552,0.0724625343644596,2.3143622195407563,0.640424433641221,0.27671745945122705,-3.909443913410515,35.730875510790604,59.8955321798917,0.5965532688394123,6723.38465396129,1.6762962374600492,4.534558068504046,401.61062093527903,0.5128205128205128,0.5258620689655172,0.8524590163934426,0.022222222222222223,50.15983725661144,49.96334007271626,50.327577120833226,47.41379310344828,0.5675910380362416,0.43240896196375844,26.919202779073334,23.49588308064054,0.5071197279069452,0.4928802720930549,42.65300964560474,42.04991728035136,0.5229916332581026,0.47700836674189734,35.66456722076493,34.06062290258006,0.9079255144865918,1.815779912035046,1.2432026121382695,0.7466210531492256,0.5151180126700492,2.1293820601545974,-0.7734811392601526,0.0008164137940970912,0.197071025160293,0.7879631802482083,1.6691571471357227,6.301738010070745,1.0618871668867573,1.358964666474118,1.42307279578032,1.8201275579747331,1.741666220895932,1.7154810764777904,2.069434290434366,0.88081598969018,Stress
89.20319561754826,673.042735042735,49.31240893744368,,,,,,,50.87721866720256,51.08648266072618,0.07326787196404784,0.07559285022810937,676.0,48.925799999999995,0.07237544378698224,65.0,0.9692434104939069,630.4,713.4000000000001,8.547008547008547,52.991452991452995,425.0,796.0,10.636363636363637,242.1875,,,0.03446492978269284,0.014507308588608187,0.0048233700432129805,0.05379560841451401,2.3756942628046325,0.6406643738858474,0.2696745889892032,-4.233102715947731,36.12359831636846,59.41364003483463,0.6080017702195816,6742.594434822071,1.6447320533932772,4.535797147731869,390.87807269625034,0.5128205128205128,0.5258620689655172,0.8688524590163934,0.022222222222222223,48.22190611664295,48.107184985164494,48.319161925704876,48.275862068965516,0.5532279819492781,0.44677201805072186,26.874507073335923,24.150794387870917,0.4960018628797097,0.5039981371202904,41.84348174489037,42.17942220625991,0.5114519710039156,0.4885480289960843,35.16472731992782,34.36833227856095,0.9224204115283369,1.585325431778919,1.1808770416633094,0.8058454189388071,0.3705148003605512,1.6010467361139606,-0.7365644398347116,0.0005154455234491071,0.1352339594122368,0.7608615975547859,1.7531446331002751,6.312379997231741,1.0921800117901317,1.1575773052065028,1.4052338882082083,1.9929398871627442,1.7934554992788778,1.721089271346513,2.011380608545258,0.9395370556695254,Stress
89.46373789255682,671.008547008547,50.871456620905654,,,,,,,51.36062492905872,51.57702788158166,0.07581342569732973,0.07654243028353634,674.0,51.891,0.07698961424332344,71.0,0.9904758108214469,628.2,711.0,10.256410256410255,53.84615384615385,425.0,796.0,10.636363636363637,242.1875,,,0.03157402427795649,0.013047150126300066,0.004129865863188626,0.048751040267445186,2.4199939429155863,0.6476584726139862,0.26762813787611933,-4.339185550188497,36.470466168514015,61.81459073864281,0.5899976968660062,7082.428281704478,1.6949218705630118,4.557152295410856,419.08360705131,0.5042735042735043,0.5130434782608696,0.8305084745762712,0.022727272727272728,51.31358300726664,51.03691809846964,51.56107736231762,46.95652173913044,0.5696638540121178,0.43033614598788233,27.529904688790936,23.927608212744722,0.5163727461848158,0.48362725381518434,44.41939656927307,42.98791500651733,0.5301357854681196,0.4698642145318805,36.95252659665007,34.788584847548535,0.8991208754544524,2.9242965631188413,1.2869730092438734,1.299339013096295,-1.4517817441181293,0.11692062293935801,-0.4957712894073805,0.001093064385881175,0.39905189075510805,0.7927770643682166,1.7346010553881064,6.308190040003767,1.099737831707369,1.4467435663982622,1.2376009043384326,1.4752704956227445,1.8138408281020684,1.726788578846739,2.312251080148644,0.9982581216488708,Stress
89.05275708120764,674.2820512820513,52.89121010244326,,,,,,,51.87833911147809,52.10257729440685,0.07844078008880431,0.07693863274699188,680.0,56.3388,0.08285117647058823,76.0,1.0195239671954162,628.2,718.0,11.965811965811966,54.700854700854705,425.0,796.0,11.7,320.3125,,,0.03490474204869511,0.018068893764453833,0.002877246117150816,0.05585088193029976,1.931758662357168,0.624963131150824,0.32352029439755803,-4.013563395706672,36.84208572217131,65.38881174672906,0.563431032588144,7568.285850389623,1.7748401173546624,4.585967636751724,464.21874525698615,0.49572649572649574,0.5086206896551724,0.8305084745762712,0.023255813953488372,50.46473482777473,50.27307273228034,50.625136813005035,47.41379310344828,0.5604520208329329,0.4395479791670671,27.581657420955622,24.42610862599067,0.5079977784191835,0.4920022215808162,46.60519741007447,45.86558923656343,0.5206374862028063,0.4793625137971938,38.29355201413789,36.7442992763902,0.9819017333571679,1.4687890774342818,1.2166413489989063,0.8890297078535039,0.3342214766649274,1.3699177455654374,-0.7230487999799691,0.000411634485379315,0.11220159602521108,0.7570174717926998,1.6971434928532059,6.370114078446816,1.0981785591447277,1.3539234661942912,1.388045124285618,1.679940159541497,1.8434222483450111,1.7102477242172667,2.295999692899504,0.9395370556695254,Stress
88.59579994397684,678.034188034188,56.016920415410254,,,,,,,51.28924065431805,51.501962816120354,0.08261666064040087,0.07564403323528567,683.0,59.303999999999995,0.08682869692532942,85.0,1.092176832816771,628.2,722.8,11.11111111111111,52.991452991452995,425.0,796.0,11.7,257.8125,,,0.045940966964626836,0.021420761854595887,0.0018901457192001807,0.06925187453842291,2.1446934183048243,0.6633895078051278,0.3093167079933849,-3.8433946471535894,36.417387151696126,70.00953458303897,0.5201775353684307,8009.69255396762,1.9224205814496031,4.610585956298477,538.3510807205674,0.48717948717948717,0.5,0.8275862068965517,0.023255813953488372,51.6319639842431,51.30777077584185,51.92678878695526,45.689655172413794,0.5664366143641775,0.4335633856358228,27.41365892492598,23.983780751383524,0.5298818388459892,0.47011816115401084,50.96202867676145,48.00215167763499,0.5376689011769558,0.4623310988230443,40.91843754655858,37.943565362345105,0.9840811419962916,2.3298814408997037,1.2850445491173448,1.321381308065185,-1.0405845052039915,-0.08290215352788799,-0.48440403090476203,0.0007931801295138777,0.2543322455737241,0.7692769669400441,1.6094379124341003,6.38301813831286,1.016072229798414,1.612990827307281,1.2567084701559472,1.6548955034813866,1.8339508819542925,1.7145178384464173,2.286457840295656,0.8220949237108347,Stress
87.66221435292427,684.7739130434783,57.36235406935753,,,,,,,51.57017021632128,51.78895060184464,0.08376831093697845,0.07530977631305727,690.0,57.8214,0.0837991304347826,82.0,1.112316554875421,631.4,732.2,11.304347826086957,52.17391304347826,425.0,796.0,11.5,257.8125,,,0.042470958060877514,0.018958776676029764,0.001595656856993702,0.06302539159390098,2.2401739725419634,0.6738705938478844,0.3008117236016415,-3.9654883055432975,36.620318161099476,72.42171543989161,0.5056538351607194,8331.83754666711,1.9776375268312865,4.627710903489797,572.8956088457057,0.48695652173913045,0.5,0.8070175438596491,0.023255813953488372,51.560263383910645,51.329699237044046,51.746811958338576,45.614035087719294,0.5662129223137334,0.4337870776862668,27.560472528926258,24.123208815160204,0.507738863296322,0.4922611367036783,51.60467067425419,50.81203432119606,0.5196487540220064,0.4803512459779936,41.36799294996029,39.77305642893332,1.0674805039204407,2.6869077603931286,1.3301071306735857,1.5441998126209104,-1.9104172098929784,-0.7593167938267507,-0.4203200477875726,0.0010301112837990652,0.3163993878606243,0.7479510855798015,1.6168180197317232,6.391014724800981,0.9812184721052973,1.5197281121878963,1.274481454404145,1.645957174051659,1.8609647888604297,1.7250798635416762,2.4729262162267243,0.8333640062019239,Stress
86.51629974751636,693.6666666666666,49.914203676043655,,,,,,,30.97858238156939,31.096087473048424,0.07195704518410907,0.04465917690759643,699.0,49.6671,0.07105450643776824,66.75,1.6112487996138891,643.0,738.8,8.771929824561402,50.0,573.0,796.0,10.363636363636363,148.4375,,,0.03393368727240424,0.01697434309583675,0.0014513419968728391,0.05235937236511383,1.9991163770412452,0.6480919411290287,0.32418920107503946,-4.076052304616854,21.988254320562593,66.86259957458316,0.32885730528672275,4618.743896414805,3.0408325554091737,4.371493991788893,813.2718781027202,0.47368421052631576,0.48672566371681414,0.8181818181818182,0.0,52.28828828828828,52.25927326155237,52.31290232786389,45.13274336283185,0.47432291618638356,0.5256770838136164,15.15352976325035,15.952776292187245,0.5296243072323419,0.4703756927676582,48.65945183406157,45.857005670668144,0.5242208743155832,0.4757791256844169,36.03728428362126,34.331880523125015,1.2240268972597164,1.4443877238446525,1.2810387836279926,1.883361856886987,-1.5681720694592425,-2.3593745644054076,-0.08299072796344556,0.001401406887155666,0.15973831128906107,0.6880532247449205,1.9560625205193316,6.315174663211636,1.0580009276453148,1.5381304417256723,1.0206591427717235,1.5109491342808237,2.00576187105126,1.675520831084332,2.5224094515547355,0.7791892121415933,Stress
86.25038171495522,695.0175438596491,54.152191705233506,,,,,,,36.408085263665974,36.537913478541164,0.07791485579559547,0.05238441185452748,702.5,51.149699999999996,0.07281096085409253,62.5,1.4873671964088577,655.0,741.2,9.649122807017543,47.368421052631575,458.0,796.0,10.363636363636363,265.625,,,0.020883875283698436,0.015138267999552096,0.0012567784194377997,0.03727892170268833,1.3795419188190048,0.5602059912101056,0.4060811661958671,-4.190529436489677,25.836206391083813,68.60640100262876,0.37658594553143604,5568.564512099149,2.655436326995171,4.452713365311146,728.7197179471133,0.4649122807017544,0.4778761061946903,0.7962962962962963,0.0,47.042735042735046,46.37639019239103,47.58019715517434,46.902654867256636,0.32491471222469237,0.6750852877753077,14.74000872261808,21.246743447946493,0.4967444615157385,0.5032555384842614,48.35386061295314,48.669727987287956,0.47536960772208053,0.5246303922779196,35.744675780595344,37.55107541402415,1.2976949656970986,1.4034760063162937,1.3871905294641378,1.9829706248189587,-1.8349109309302651,-2.834910930930265,-0.07549677181972912,0.002090143859887261,0.17998519275391733,0.7218585955893011,1.7243181884325227,6.350262382509882,1.0233461338273715,1.7179232911580449,1.1932394100248238,1.524923651534717,1.890703514594078,1.6821236624598923,2.4885839247099533,0.8391268438447929,Stress
86.54868173420358,693.6052631578947,51.383448046194566,,,,,,,30.110269321015227,30.24435879528698,0.07408168705677405,0.04341124688692107,700.0,54.856199999999994,0.07836599999999999,71.25,1.7065090816152844,643.6,741.2,8.771929824561402,45.614035087719294,573.0,796.0,11.4,148.4375,,,0.016114328237083163,0.012049432674157276,0.0007037544397592657,0.028867515350999705,1.3373516142086899,0.5582166681527412,0.41740456453035174,-4.418737701136616,21.385991196786424,69.01512549730198,0.3098739738960914,4636.85524827903,3.2271183908311234,4.373193648416383,890.8799229514449,0.4649122807017544,0.4778761061946903,0.7962962962962963,0.0,50.09324878776575,50.10963202328958,50.07732575777041,46.902654867256636,0.4477447315249539,0.5522552684750464,14.310179942963678,15.892776885832669,0.5372887388360849,0.46271126116391503,50.58807469466385,46.946078069370756,0.5294438216878875,0.4705561783121124,37.174820452242194,35.04650198834622,1.2641556692177063,0.38879685838518707,1.2641556692177063,1.2601017734919675,0.4328296617547833,0.06443374304683491,-0.5104267707886737,8.173791222371395e-05,0.005594785882299255,0.739639059591819,1.6094379124341005,6.3568842027043,1.0323639903563684,1.0799575577092764,1.2248204621846053,1.531242713254439,1.884528258220261,1.6463973503762117,2.320247999286273,0.7791892121415933,Stress
86.13067592116164,696.780701754386,47.85352998731176,,,,,,,31.804435600931598,31.946084379874605,0.06867803581072779,0.045644828452988076,700.0,48.1845,0.068835,63.5,1.5046181164085823,655.6,741.2,10.526315789473683,49.122807017543856,573.0,796.0,11.4,125.0,,,0.036909090723485555,0.025804353399263832,0.001334907430075358,0.06404835155282475,1.4303435607318309,0.5762691752190419,0.40288864230926136,-3.6572120648833764,22.589292897366978,63.520573257236414,0.35562167875733947,4507.823654235714,2.8119770523954917,4.360937028096655,714.4735774174222,0.49122807017543857,0.504424778761062,0.8245614035087719,0.024390243902439025,50.06997900629811,50.078167563235596,50.06141434933195,47.78761061946903,0.4706391839162918,0.5293608160837081,15.496975511369952,16.435344100878623,0.5223302983025923,0.47766970169740797,45.907856766913326,43.9013885201426,0.5165270060771241,0.48347299392287596,34.2614036703944,33.14703945837995,1.276124390430955,0.2966639166869063,1.372144501868557,1.3285461134181178,0.16889088552312703,-0.8082116434039011,-0.6469622222255361,0.00027686896688552373,0.013282852092756968,0.6771971108272257,1.6003054288708278,6.381049882547839,1.1162820645471054,1.194758851835232,1.0537587916339244,1.4305819546604583,1.9479692535291393,1.7204136782029378,2.512565622786265,0.8391268438447929,Stress
86.55313900556786,693.1929824561404,49.28190125214568,,,,,,,28.677949347208596,28.77879748315564,0.07109405677698682,0.041370801599283503,693.0,54.1149,0.07808787878787879,73.5,1.7184597355787783,643.0,738.8,8.771929824561402,44.73684210526316,573.0,796.0,11.4,109.375,,,0.01618144447333025,0.012531283953965118,0.0007390622019701036,0.029451790629265468,1.291283840728081,0.5494214147119182,0.4254846203311357,-4.379527044935614,20.3496828547337,66.26158809037027,0.3071113059798683,4236.13076947121,3.2561484404144725,4.333939468286555,863.0302668793813,0.5,0.5089285714285715,0.8245614035087719,0.024390243902439025,47.336377473363775,47.4291161830478,47.244006729680294,49.107142857142854,0.43628811844965243,0.5637118815503473,13.45395587072548,15.292972242177123,0.5144276570048302,0.4855723429951698,47.525204585890144,46.17307641177039,0.507681436993003,0.49231856300699695,34.926021813986644,34.393516724283856,1.2369999821974702,1.5528998471431954,1.30860113887892,2.013449905769068,-1.8249598532879094,-2.8390082569663484,-0.04610803253871876,0.002153633700656124,0.2148743792141992,0.6655636350990317,1.5132940518811984,6.398593742196961,1.0466602479736067,0.9530143614682802,1.0253482427197083,1.4381836960007632,1.921943129467914,1.704779668729799,2.1436799223294583,0.8990644755479922,Stress
86.6503045526949,692.5263157894736,48.729924030732775,,,,,,,29.822928757015426,29.955389819976485,0.07036544737679912,0.04306396461341337,692.0,54.856199999999994,0.07927196531791907,74.25,1.6339751346275722,641.8,738.8,8.771929824561402,48.24561403508772,573.0,783.0,11.4,117.1875,,,0.011415151624779948,0.009710301453095866,0.0006127793963124119,0.021738232474188223,1.1755712919850225,0.5251186653898469,0.4466923179989812,-4.634567951527868,21.181659274791844,65.88239375740734,0.32150712909411144,4384.087574243048,3.1103509362844655,4.348849330764438,819.669460432055,0.49122807017543857,0.5,0.8035714285714286,0.025,50.310559006211186,50.315005257170164,50.304093822667625,46.42857142857143,0.4633394028038963,0.5366605971961037,14.418335301176167,15.517271483276765,0.5281458338251579,0.47185416617484216,47.87913541863979,45.2556979701962,0.5220744259352627,0.47792557406473746,35.357460325181655,33.82945397915354,1.2172226456665736,1.6378172873787447,1.4256155532362358,2.0203261570612767,-2.033683993271733,-3.033683993271733,-0.13688830957643053,0.0035949521468659727,0.27505659999176335,0.6531509396253958,1.6094379124341005,6.321796483406051,1.094406699448328,0.8976098453251711,1.1303845199881764,1.3464770349545359,1.9848659960557948,1.6847350614148888,3.1821426889001008,0.8990644755479922,Stress
87.03566810818916,689.7017543859649,50.19623964771663,,,,,,,30.1584312166818,30.2772690560391,0.07277963167196215,0.04372677178925197,684.5,61.527899999999995,0.08988736303871438,81.0,1.664418128617749,637.2,738.8,8.771929824561402,49.122807017543856,573.0,783.0,10.363636363636363,117.1875,,,0.009525927670133003,0.007502666539476654,0.00025192087788642153,0.01728051508749608,1.2696722718530258,0.5512525304888521,0.4341691495588271,-4.892496783031855,21.409262265334863,67.52840040261225,0.31704086188463415,4541.904908801074,3.1541675544771994,4.3642081473718655,851.9835582226584,0.5,0.5089285714285715,0.7894736842105263,0.02564102564102564,48.02464661109097,47.95933601319323,48.09169394926421,48.214285714285715,0.44164550434435723,0.5583544956556428,14.235111269573654,16.005858302509115,0.523919624342138,0.4760803756578616,48.8786041874112,46.593635977737485,0.5163981722943026,0.4836018277056974,35.99830787805695,34.83643504741776,1.216895944357242,2.777688196105869,1.2178555720711604,2.528532968320678,-2.2428956313000814,-2.957907107024007,-0.02814092017707427,0.014689745623942844,0.9156400681232668,0.7423789029678973,1.5860905484371093,6.27921093101769,1.0728204878899565,1.4378620551868686,0.9668807212631172,1.400896467418192,1.8983979919043683,1.6818240317017716,2.6536026722640513,0.6593139487351943,Stress
87.28775280642849,690.5043478260869,69.19719773164982,,,,,,,87.37166026546514,87.71864912040525,0.10021254456905765,0.12653310662059858,691.0,59.303999999999995,0.08582344428364688,77.5,0.7919867554468457,637.6,743.4,13.91304347826087,52.17391304347826,352.0,942.0,10.454545454545455,335.9375,,,0.015437593476654804,0.0097388993087827,0.0006343675177380204,0.02581086030317552,1.5851476627069065,0.5981045689808142,0.37731788845428443,-4.631627175025338,62.026451629561926,73.00036686970358,0.849673149455143,14224.986156947461,1.1769231505564872,4.860021962395209,343.66328707228377,0.4956521739130435,0.504424778761062,0.7719298245614035,0.05263157894736842,53.25847644209599,53.26805584702882,53.313088173284086,46.017699115044245,0.49774088944147354,0.5022591105585265,43.77946542524651,43.97771962038106,0.5833299649334044,0.41667003506659583,55.754790180736556,47.12172466085425,0.547427374808979,0.45257262519102076,50.12603226377643,45.576840379858545,0.6123627930563899,3.643294931335297,1.1546187423464818,1.3712255976353807,-2.4039392701502393,-1.1423704210672734,-0.44054643959073864,0.0033895616315749895,0.7032553580450166,0.9158264681347639,1.5696316620336805,6.3248439380667465,0.8994165915069018,1.2590431603039325,1.2098629858033425,1.2998106310987596,1.5167812459568693,1.8366214341139393,2.249937141682587,0.7738380057589294,Stress
87.01543063006294,691.2894736842105,69.54793644269652,,,,,,,92.11031285645095,92.52058488962652,0.10060609786525822,0.13324419995223022,691.0,59.303999999999995,0.08582344428364688,79.5,0.7550504855095141,637.2,743.8,15.789473684210526,52.63157894736842,352.0,942.0,12.666666666666666,335.9375,,,0.013487053033392265,0.009912817040605421,0.0005215610368049113,0.023921431110802596,1.360567130226036,0.5638062777649492,0.4143906355221752,-4.613926708612805,65.42193297480051,74.00009449630075,0.8840790463865008,15209.170159014753,1.1311205757984009,4.889075628735862,334.8121179831671,0.5175438596491229,0.5181818181818182,0.7719298245614035,0.05555555555555555,49.927641099855286,50.33843549951542,49.573873549805455,46.36363636363636,0.44816616200440795,0.551833837995592,43.7968626567181,48.599033647065156,0.5745242224911251,0.4254757775088748,56.09012994589834,48.269154831151525,0.5190902393022435,0.4809097606977568,50.3203132736631,48.434375083933155,0.4993352647620135,3.3546836181532784,1.086066998640021,1.2152433045925117,-1.8169879770370532,-0.7684291305529336,-0.4614937440736659,0.0027407468180691455,0.6321974086439379,0.923598994906794,1.603866867384645,6.361184421964588,0.9255430674138108,1.0206524148664926,1.1632562887590714,1.302180501813124,1.5323602571883446,1.8333662581647925,2.3214989773947976,0.8391268438447929,Stress
87.30228257737382,688.7652173913043,69.51490190293829,,,,,,,91.84698373410328,92.25092558468548,0.10092684727348127,0.13335020615874504,684.0,66.717,0.09753947368421052,84.0,0.7568555773609693,635.6,743.4,16.52173913043478,52.17391304347826,352.0,942.0,12.777777777777779,335.9375,,,0.01610477722672256,0.025535121753267997,0.014752654947593412,0.056392553927583966,0.6306912252987971,0.2855833989608518,0.45281016685392034,-3.6677004508003783,65.23125505166665,73.90596064239602,0.8826250884863928,15145.550853921519,1.1329838830152592,4.887255183501769,334.9370490663791,0.5130434782608696,0.5178571428571428,0.7586206896551724,0.05714285714285714,49.373588005750676,49.76207945975191,49.05261663262267,46.42857142857143,0.44663295514454265,0.5533670448554576,43.59518119022846,48.52547000223751,0.5720723621293227,0.42792763787067756,55.89911726587974,48.346454961773745,0.5171420251652586,0.4828579748347414,50.12609666687315,48.43604518490785,0.612996692722276,4.41304838514521,1.3889077971951145,1.9846762050185929,-2.4211754499287075,-1.6951016594325101,-0.36499844193213504,0.009860404324432191,1.4478146957062519,0.9331531627769047,1.6582280766035327,6.297493963912604,0.923484278073593,1.0897486538597145,1.116360464280024,1.3895381145933534,1.5151256496246703,1.8080011617203269,2.2928507042781003,0.7738380057589294,Stress
87.53764823291829,687.1478260869566,69.88489828561347,,,,,,,92.3888141630584,92.79670332400357,0.10170285873358746,0.1344526034364065,683.0,65.2344,0.09551156661786236,85.5,0.7564216395533833,633.8,743.6,18.26086956521739,53.91304347826087,352.0,942.0,14.375,335.9375,,,0.007793632236099969,0.02446722003284237,0.017036192274106285,0.049297044543048625,0.3185336227670561,0.15809532413843153,0.4963222493282813,-3.710421015139395,65.61717819215916,74.46008971529562,0.8812395800629831,15349.384945686657,1.1347651905609244,4.893061087817604,337.9788715798439,0.5130434782608696,0.5178571428571428,0.7586206896551724,0.05555555555555555,49.9498696611189,50.35122269579616,49.60159513869461,47.32142857142857,0.44769384288267344,0.5523061571173268,43.90441145412091,48.76492283511832,0.5712308376655201,0.42876916233447987,56.27679776611344,48.75681484266424,0.5172301206031815,0.4827698793968183,50.47115667359316,48.76086900741664,0.5806626835135485,2.982961990863279,1.1015882826264705,1.235834737441229,-1.4325514067978364,-0.6800942315618524,-0.4549955865257582,0.002484791827827243,0.5165056804012356,0.9237978517838665,1.6361061595162616,6.391014724800981,0.9315974703767721,1.281624370298454,1.0935666621782187,1.3894508107534844,1.4991498919097002,1.831999308412518,2.268210956469997,0.8333640062019239,Stress
