PPG_Rate_Mean,HRV_MeanNN,HRV_SDNN,HRV_SDANN1,HRV_SDNNI1,HRV_SDANN2,HRV_SDNNI2,HRV_SDANN5,HRV_SDNNI5,HRV_RMSSD,HRV_SDSD,HRV_CVNN,HRV_CVSD,HRV_MedianNN,HRV_MadNN,HRV_MCVNN,HRV_IQRNN,HRV_SDRMSSD,HRV_Prc20NN,HRV_Prc80NN,HRV_pNN50,HRV_pNN20,HRV_MinNN,HRV_MaxNN,HRV_HTI,HRV_TINN,HRV_ULF,HRV_VLF,HRV_LF,HRV_HF,HRV_VHF,HRV_TP,HRV_LFHF,HRV_LFn,HRV_HFn,HRV_LnHF,HRV_SD1,HRV_SD2,HRV_SD1SD2,HRV_S,HRV_CSI,HRV_CVI,HRV_CSI_Modified,HRV_PIP,HRV_IALS,HRV_PSS,HRV_PAS,HRV_GI,HRV_SI,HRV_AI,HRV_PI,HRV_C1d,HRV_C1a,HRV_SD1d,HRV_SD1a,HRV_C2d,HRV_C2a,HRV_SD2d,HRV_SD2a,HRV_Cd,HRV_Ca,HRV_SDNNd,HRV_SDNNa,HRV_DFA_alpha1,HRV_MFDFA_alpha1_Width,HRV_MFDFA_alpha1_Peak,HRV_MFDFA_alpha1_Mean,HRV_MFDFA_alpha1_Max,HRV_MFDFA_alpha1_Delta,HRV_MFDFA_alpha1_Asymmetry,HRV_MFDFA_alpha1_Fluctuation,HRV_MFDFA_alpha1_Increment,HRV_DFA_alpha2,HRV_MFDFA_alpha2_Width,HRV_MFDFA_alpha2_Peak,HRV_MFDFA_alpha2_Mean,HRV_MFDFA_alpha2_Max,HRV_MFDFA_alpha2_Delta,HRV_MFDFA_alpha2_Asymmetry,HRV_MFDFA_alpha2_Fluctuation,HRV_MFDFA_alpha2_Increment,HRV_ApEn,HRV_SampEn,HRV_ShanEn,HRV_FuzzyEn,HRV_MSEn,HRV_CMSEn,HRV_RCMSEn,HRV_CD,HRV_HFD,HRV_KFD,HRV_LZC,Labels
106.18274606980572,566.9,68.25379004945519,,,,,,,106.01245345604347,106.39586101420986,0.12039828902708624,0.18700379865239633,559.5,22.238999999999997,0.03974798927613941,30.0,0.6438280392949837,540.8,582.2,24.285714285714285,32.857142857142854,367.0,1148.0,6.363636363636363,234.375,,,0.058465669831842065,0.1474004980243131,0.039497642270882545,0.2453638101270377,0.3966449952034653,0.23828155342701648,0.6007426194922394,-1.9146019205059255,75.2332348133292,60.91890444156857,1.2349735357682026,14398.315733671607,0.809733950596731,4.8652818027269635,197.31242063798425,0.6214285714285714,0.625,0.8588235294117647,0.28125,50.02287631538813,50.305740708603686,49.71928308028852,49.26470588235294,0.47034415566541693,0.5296558443345832,51.59618848971953,54.75283726352267,0.5351621835072341,0.4648378164927659,44.56509051524474,41.53390934801354,0.4960130382759301,0.5039869617240699,48.208992725935595,48.59495248549382,0.48395273884619994,3.3618736579645874,1.4888586193766224,1.5368487665498856,-0.7012761856996281,-0.44694327308359444,-0.48572517826195816,0.00963830422508258,1.0792959330585101,-0.06370144372114475,3.20194445501492,0.7172308189513922,0.5162755253866586,-1.217238384715893,-0.14479825458916418,-0.5627603933759673,0.00411106091624946,0.6746177980351977,0.6437079908725956,0.7205980286943819,6.206722191973028,0.5778290562773775,0.8739739546819681,1.132916825159036,1.1277514981263044,0.8268918716451269,1.8932458754822181,1.9241087701736006,0.967545552299674,Relax
106.19586515248372,566.4785714285714,64.86260718545118,,,,,,,97.82850947544408,98.1823197292323,0.11450143122250452,0.17269586955202154,557.0,22.9803,0.041257271095152606,31.0,0.6630235657605755,540.0,583.6,24.285714285714285,34.285714285714285,449.0,1148.0,5.6,140.625,,,0.06545793520864787,0.13741937815267805,0.038886338839594844,0.24176365220092078,0.4763370063858219,0.270751763603605,0.5684037980964728,-1.9847178745482432,69.42538407316592,59.6915725089338,1.1630684392302664,13019.106622944066,0.8597946313991744,4.821551293730268,205.28997433182334,0.6142857142857143,0.6204379562043796,0.8705882352941177,0.23529411764705882,50.01647446457991,50.093101562833674,49.88150010914706,48.175182481751825,0.49669845928099793,0.5033015407190022,48.92881549258316,49.252970189256274,0.49419937244331325,0.5058006275566869,41.962766734949106,42.45244441180686,0.4956362512398732,0.5043637487601268,45.57906744087135,45.97860974954179,0.5255342241571282,2.432150130273519,1.323137595624411,1.0797764047084155,0.23406273721152537,0.6535178351464171,-0.6000601023295494,0.006589491110238589,0.6024171110886589,1.9228320742671214,1.943403048189288,1.9228320742671214,1.576389694647704,-1.0521109470138228,2.0993505091599634,-0.6782658414281101,0.0061666736188923975,0.22175299918182556,0.6881389416161934,0.7976779682024103,6.136904781181476,0.6297660536772908,0.8166880411585129,1.0479302571660738,1.206772440598471,0.851421253661456,1.8888899627744606,2.0190566462489583,1.0184690024207095,Relax
106.15927621086836,566.3571428571429,62.89194472428458,,,,,,,94.34499677919432,94.68169900664822,0.11104644042628126,0.1665821610428453,556.5,21.4977,0.03863018867924528,28.5,0.6666166396876065,541.8,579.6,20.0,29.28571428571429,449.0,1148.0,4.827586206896552,125.0,,,0.057188571187966955,0.10597838111131778,0.03475358521645694,0.19792053751574168,0.5396248799828062,0.28894712951867585,0.5354592425906723,-2.2445201574510834,66.95007142186454,58.30500108835649,1.1482732213726767,12263.282281039426,0.8708728736219878,4.7955768351002455,203.10497537740056,0.5928571428571429,0.5925925925925926,0.8375,0.17647058823529413,48.80149812734082,48.886313616154624,48.715546558005904,49.629629629629626,0.48681415671706924,0.5131858432829305,46.71467509857279,47.963301188195594,0.49189462915049315,0.5081053708495069,40.89232917513292,41.56068534740284,0.4890052839054525,0.5109947160945476,43.90013357002826,44.87632353154272,0.5207786436543792,3.2970106555382452,1.3781162840936898,1.4978529787178458,-1.2292240569976105,-0.8774358698571686,-0.46368325518662634,0.005302796743388614,0.8438871107724829,0.7942613144234598,6.1612629709555415,1.4519510721999493,3.064877978468537,-8.46621253849829,-7.838336850656227,-0.23821488972764274,0.007278583610318932,2.0633349085302277,0.6403712993410955,0.6878701234591015,6.045499556309119,0.5657512690140233,0.8662083592767587,1.0391432680766532,1.0491577390762754,0.76439926603212,1.8531079370883554,1.9621674160966318,0.967545552299674,Relax
106.82290384143971,562.5957446808511,63.36695609400898,,,,,,,94.17275159438182,94.50691503109579,0.11263319478172686,0.1673897331872001,553.0,20.7564,0.037534177215189875,30.0,0.6728799469186301,539.0,579.0,19.858156028368796,30.49645390070922,431.0,1148.0,4.548387096774194,132.8125,,,0.03749796474143851,0.09181805048340996,0.025934920786055665,0.15525093601090414,0.408394259560257,0.24153132795801513,0.5914170493436578,-2.387946372324929,66.82648048750869,59.130783984266934,1.1301470399122286,12414.01022604157,0.8848406133751089,4.8008822087614185,209.28527667995928,0.5957446808510638,0.5955882352941176,0.8518518518518519,0.21212121212121213,48.879006855660556,48.70420795388823,48.98094272203798,50.73529411764706,0.48589430819005613,0.5141056918099439,46.58410819894105,47.91738243652657,0.48200737596590437,0.5179926240340957,41.052582183432385,42.557433083617354,0.48418752204564103,0.515812477954359,43.90554430033932,45.31672235629423,0.7056734307884325,2.0615146636156063,1.2829452477003047,1.0516303345516682,0.12229262014051123,0.711063609587135,-0.612206290467487,0.0027487661792866647,0.3360066584640643,0.8831532918994132,1.3890915849618664,0.2549912624992414,0.22151895818227796,1.0,3.427455500674947,-0.5240965424305571,0.0036298491143765157,0.22808117799523622,0.6442828307018442,0.6931471805599455,6.0432078243045275,0.5917309903622644,0.7749194259132266,0.9568714252764593,0.9390869711686263,0.7586768973649041,1.8771740382763882,1.804648969673072,0.9114320875402716,Relax
106.78127504323453,562.95,61.27920827578041,,,,,,,92.37848327755695,92.71236334359777,0.1088537317271168,0.16409713700605194,553.0,22.238999999999997,0.04021518987341772,30.25,0.6633493655840093,538.6,576.0,16.428571428571427,26.42857142857143,449.0,1148.0,4.827586206896552,125.0,,,0.042489716663968134,0.11109003454634535,0.028088947698547362,0.18166869890886084,0.38248000225656575,0.23388573221017167,0.6114979367033214,-2.197414284412361,65.55754082008907,57.04513410991131,1.1492223104213681,11748.735651391797,0.8701536603769422,4.776961242172222,198.55212900973154,0.5857142857142857,0.5851851851851851,0.8481012658227848,0.18181818181818182,49.714169048591266,49.82323269511635,49.559762694823476,50.37037037037037,0.4885052723158736,0.5114947276841264,45.82034071445132,46.886117039209935,0.48954355473503575,0.5104564452649641,39.912990985572996,40.75660040046685,0.4889526693413905,0.5110473306586096,42.968305020112425,43.928398828194425,0.5064874749236808,2.8816089384894323,1.3153137845210032,1.352582766846388,-0.6768175639577318,-0.46150693916355745,-0.4870666064962579,0.005180979659927327,0.6946694468107262,0.08438792983629659,5.359892000129361,1.1179541222969906,1.9981981273191614,-5.637901899759232,-5.146891867840072,-0.33577206313095,0.006152059216875557,1.6733026315523951,0.6248389648671506,0.6586868419453383,5.983263531150569,0.535854291526458,0.8584232845125033,0.9375625414228154,0.8827673059345049,0.7126579378857056,1.8609335837307512,1.8017725528619695,0.9166221021786385,Relax
107.21599476879302,560.418439716312,61.13137562757405,,,,,,,89.9452611314237,90.2640579309527,0.10908166344155129,0.1604966124543558,553.0,20.7564,0.037534177215189875,30.0,0.6796508771957626,536.0,575.0,14.893617021276595,27.659574468085108,440.0,1148.0,4.7,132.8125,,,0.05237144726399792,0.12082108641308752,0.029981570286792707,0.20317410396387814,0.4334628070214486,0.25776635034801937,0.5946677458194575,-2.113444452314887,63.826327460392,57.87047658899315,1.1029169141581192,11603.97508648325,0.906686611804591,4.7715768976713155,209.88154536796443,0.5531914893617021,0.5514705882352942,0.8133333333333334,0.14705882352941177,48.708093102711935,48.507293667325804,48.8357624582166,52.20588235294118,0.488543828871264,0.5114561711287358,44.61405237214781,45.64824848696888,0.4644984329707969,0.535501567029203,39.44111514901197,42.348441487728714,0.4776956523921463,0.5223043476078537,42.107096986507926,44.02926916477061,0.6320552463146658,2.9625484749167343,1.311315694151631,1.3986778049609279,-0.7843212201540712,-0.20998955308622058,-0.4705111624167594,0.003254853964048407,0.6299927970718656,2.3042453014692734,3.01634016535465,-0.7120948638853766,0.7960752187919484,1.208116784586974,-4.169073644335921,0.0,0.015160209866731618,0.9051703107570968,0.6403394976530272,0.6779723825407101,6.01584406153911,0.5813742569078671,0.7571127728040016,0.9463681616053004,0.8782359519684082,0.730310526926017,1.8603251070555114,1.7248477962101072,0.9114320875402716,Relax
107.0099221711854,561.8297872340426,61.42765285239546,,,,,,,90.17043386197686,90.49399967616371,0.10933498765669115,0.16049422068896887,553.0,20.7564,0.037534177215189875,28.0,0.6812394065489611,539.0,575.0,14.184397163120568,26.24113475177305,426.0,1148.0,4.147058823529412,132.8125,,,0.048945438404137086,0.07885233556688334,0.022080269555625462,0.1498780435266459,0.6207227478077815,0.3265684369267562,0.5261099872368207,-2.540178345632775,63.98892082770858,57.888064675373506,1.1053905703455047,11637.071131504108,0.9046576177028872,4.772813798911166,209.4755147306162,0.5602836879432624,0.5588235294117647,0.8289473684210527,0.14285714285714285,49.71011380717201,49.90519348026932,49.480112544455174,50.73529411764706,0.475851248222128,0.5241487517778721,44.140920508178716,46.32688049194665,0.5004490177111066,0.4995509822888934,40.95141861849029,40.91465929215827,0.4869218801099428,0.513078119890057,42.57604696408642,43.70462905178638,0.373108490393495,3.0322542751493975,1.2639968567861275,1.3017530549888634,-1.05074657758842,-0.9083263420078415,-0.4875484722662727,0.006848956899907909,0.7565214979458527,0.2823291435454475,4.335869918100515,0.9573008245685386,1.6273134026913167,-5.103806788883755,-4.486405001056051,-0.34547216803582026,0.004160617670957539,0.9144839302766862,0.6518669562906712,0.6686447296940494,5.977475908814166,0.556200178878729,0.659875125161594,0.927145643782185,0.8396322517450934,0.6987738612754091,1.8734004157286641,1.8660041371148215,0.9114320875402716,Relax
108.03460790575431,556.5352112676056,57.28337696222337,,,,,,,86.08201597997868,86.38856577028004,0.10292857631011437,0.15467487813378766,550.0,18.5325,0.03369545454545454,24.0,0.6654511550420309,536.0,570.0,11.267605633802818,23.943661971830984,441.0,1148.0,4.057142857142857,117.1875,,,0.054699760759234384,0.03211046668322502,0.022116320204505477,0.10892654764696488,1.7034869439568232,0.5021710679431282,0.2947900890726499,-3.438573237095797,61.08594067314506,53.19528216467635,1.1483338030624903,10208.55459238358,0.8708269297072863,4.715934365565893,185.2955369695115,0.5774647887323944,0.5797101449275363,0.825,0.14705882352941177,50.410429744084986,50.598617439967896,50.12763810422021,50.72463768115942,0.47888356530178233,0.5211164346982178,42.272500348504174,44.097133045779096,0.5189854862360951,0.4810145137639048,38.32222560064703,36.893699592107154,0.4961787098990816,0.5038212901009184,40.34573868887006,40.65527156747198,0.46789173895249997,2.790960829424057,1.2673091694959169,1.276383542277309,-0.8205589948674259,-0.6661263000054125,-0.4967486563459707,0.005506021340801224,0.622391066861891,-1.0866746771266207,4.52801887880178,-0.31585515643968076,0.6307288853942983,-1.4875851039024806,-1.3943733501425384,-0.29094962561541543,0.04291924676494336,2.3413705219732313,0.6843522900030985,0.6890403986072918,5.837817940590325,0.5703052040247998,0.6954202691145627,0.9995326690571955,0.9274401713253134,0.6391209585030007,1.925822128869199,1.6860136002966026,0.9566563047224574,Relax
108.88617498209784,551.5804195804196,26.90918807098449,,,,,,,37.10187725405074,37.2124301617833,0.04878561151872283,0.0672646742650395,549.0,16.3086,0.029706010928961746,21.0,0.7252783433767244,535.4,566.2,9.79020979020979,23.076923076923077,449.0,653.0,3.763157894736842,109.375,,,0.04794373491410255,0.012468707740154041,0.006617095781693419,0.06702953843595001,3.8451246041885527,0.7152627935804022,0.1860181053173818,-4.384533154158572,26.31316171182779,25.58697788366299,1.0283809925293468,2115.1535531668655,0.9724022587586508,4.0323120111633255,99.52334035552614,0.5804195804195804,0.5827338129496402,0.8395061728395061,0.1111111111111111,53.064066852367695,53.03044737266824,53.1146082345499,48.201438848920866,0.5671560853327876,0.4328439146672124,19.82744712701229,17.321326992881527,0.49765896400229426,0.5023410359977059,18.050320155208823,18.13503183105894,0.5333991188448076,0.4666008811551921,18.959716734170975,17.732847322241387,0.6748111397971421,2.4523823862898904,1.1865681915330704,1.2350938598457157,-0.7819026069630048,-0.3710585320675135,-0.48021284584984414,0.0014736422606257571,0.3755217418644655,1.0316540275657933,4.6080457027042305,1.5046274051947146,1.7767488440550143,-5.07962203270964,-1.9575601983169455,-0.4409464540031351,0.00048140887505058533,0.7388121172715051,0.7810944040365251,1.2173285955074915,5.7861954426810795,0.9410978867839422,1.277348464902648,1.318700570670519,1.7513078278191394,1.4886980526487277,1.8378168198156108,2.255652972368865,1.0514496368695536,Relax
109.03031056983953,550.4791666666666,22.05554613662095,,,,,,,29.13400435556722,29.236165504169257,0.04006608691510448,0.05292480827563966,549.0,14.0847,0.0256551912568306,19.25,0.7570379226776752,536.0,564.0,6.25,18.055555555555554,449.0,641.0,3.6923076923076925,109.375,,,0.05452290462186538,0.032805769179154856,0.03172686161001904,0.11905553541103928,1.6619913504881278,0.45796194552084485,0.27555013772264286,-3.417150889450423,20.673090883890296,23.479536492471695,0.8804726997280702,1524.9120837554553,1.1357535563667622,3.890214915847546,106.66786829267161,0.5833333333333334,0.5857142857142857,0.8170731707317073,0.15151515151515152,49.6369073045707,49.68258710799576,49.59528023491583,50.0,0.4079026504197666,0.5920973495802334,13.203445986389044,15.907633919015373,0.5582696567866965,0.4417303432133034,17.543309734439823,15.60515675867496,0.4926047615794809,0.5073952384205193,15.525764109279518,15.757121157816666,0.706231010003259,2.906474240785973,1.2626716234820923,1.2858683962388995,-1.2076831400223202,-0.356482307081063,-0.4920189305546591,0.001834048207187249,0.4889991791856301,0.8724135478862465,3.860517435727845,1.3831185525843424,2.0015107914070667,-3.344441273155425,-2.2012068524650017,-0.33981622952931045,0.0027253128423986865,0.8043541424993148,0.8186035039198551,1.3485540331370438,5.6616573600667675,1.010098543788933,1.2342602608286652,1.2400077506346578,1.5851033381712838,1.5453443353987146,1.8014975714720112,2.6305168678738333,1.0456140627103372,Relax
108.86949577660046,551.5314685314685,24.96922167242743,,,,,,,31.891983186206776,31.990440336134956,0.0452725240481954,0.05782441257816848,549.0,14.825999999999999,0.027005464480874316,20.0,0.7829309806994559,536.4,564.0,7.6923076923076925,18.181818181818183,464.0,678.0,3.864864864864865,93.75,,,0.05679735568709838,0.014865837106990359,0.005644388727267471,0.07730758152135621,3.820663127029057,0.734693215974013,0.1922946859084406,-4.208689510159332,22.62065729482468,25.08367975220338,0.9018077697646277,1782.568961870402,1.1088837704968992,3.958016450269952,111.25954152624004,0.5734265734265734,0.572463768115942,0.7974683544303798,0.18181818181818182,52.78688524590164,52.48244568486405,53.12170923898112,51.449275362318836,0.6043149527792395,0.39568504722076053,17.59271286923341,14.235606143382288,0.4619191131779,0.5380808868221001,17.048030504408985,18.399881679832575,0.5258163210370592,0.4741836789629406,17.322512666737325,16.45004753946538,0.792732783712503,2.3137215043442896,1.2383731216268767,1.4224258906544007,-0.9402203905778421,-0.8775557475922772,-0.42045163228074645,0.001474128823961771,0.3365286843105764,1.367491396512781,1.7860412667521457,1.7758617281354234,0.8828410947593506,1.8165361963950648,0.20445316692417648,-1.0,0.003873767628787992,0.32247245729591684,0.791650092433279,1.3508639241403901,5.7358229355631085,0.9658765718969656,1.2399326301351974,1.3051996303647448,1.6377034765666274,1.4844760220980753,1.8160602747820052,2.3955907012604536,1.001380606542432,Relax
108.9098537104835,551.1468531468531,23.12152769270403,,,,,,,27.749127635063456,27.84605998409287,0.041951664172059235,0.05034797436767674,549.0,14.825999999999999,0.027005464480874316,20.0,0.8332343991775782,536.8,564.0,6.293706293706294,17.482517482517483,464.0,649.0,3.864864864864865,93.75,,,0.05665134829872429,0.032757150789033254,0.023300940263832406,0.11270943935158996,1.729434548919638,0.5026317992941478,0.29063360600037585,-3.418633996031306,19.690137844079434,25.347746269342597,0.7768003369946194,1567.970835162586,1.2873320882801402,3.902308090347359,130.52386855243176,0.5594405594405595,0.5547445255474452,0.8157894736842105,0.21875,50.85895117540687,50.74844979368495,50.97401290335581,54.01459854014598,0.5824751696511862,0.4175248303488138,15.028224037806213,12.72360290648784,0.39724677136300224,0.6027532286369977,15.976054715903404,19.67927632433246,0.4669583008248407,0.5330416991751592,15.509381709404728,16.570515797213705,0.6749376036943018,2.8899662583807904,1.2464126472693704,1.3853725023219432,-1.2445353485145088,-0.7565855417137475,-0.45191644378213947,0.002515301567204803,0.5255999276441052,0.7825289581829022,3.2670094894708814,1.3846129941938694,2.169646507230884,-2.963721263814506,-3.4864402032522293,-0.2597088359960176,0.00446587182919782,0.7853381385644034,0.8132740090964008,1.3737155789130306,5.743831656036721,0.9847236783853714,1.39686288378552,1.3836075840834483,1.71424188593166,1.5727861293550631,1.7541115862608616,2.4078502165893005,0.9513115762153104,Relax
108.89138099789463,551.3566433566433,28.786343983236318,,,,,,,40.31976064650619,40.460480650334574,0.05221002472734506,0.07312827574007388,549.0,16.3086,0.029706010928961746,21.0,0.7139512616558831,535.4,564.6,9.79020979020979,20.97902097902098,442.0,705.0,4.085714285714285,117.1875,,,0.0523945935807161,0.05223577421775946,0.03428092281802072,0.1389112906164963,1.0030404328323834,0.3771802374607988,0.37603692245557646,-2.9519876889826655,28.609880237918667,28.728608715797225,0.9958672388540253,2582.144289060538,1.004149911739973,4.1189506167504195,115.39131962552001,0.5734265734265734,0.572463768115942,0.8354430379746836,0.26666666666666666,49.03618532296245,48.85703566549772,49.22187969292898,52.17391304347826,0.5782791199365813,0.42172088006341873,21.757366079638505,18.5801884881537,0.3541392179180504,0.6458607820819494,17.0962793768726,23.087879725373234,0.4657506075938796,0.5342493924061203,19.566115445528318,20.95559107337013,0.6640706358619012,2.3458141015614355,1.2507440012166187,1.222710417198917,-0.39812698236376143,-0.16518357584528487,-0.5119504712666882,0.0023699992166057297,0.40004955741196147,1.207207234318576,2.753103556766107,1.3344139126135448,1.5472158055294398,-3.6324404806562463,-1.8547133025381313,-0.42270472631045536,0.001762094058683367,0.24780594925896626,0.8532668819356561,1.3492072924575544,5.835868435468402,0.8803643062741822,1.2066378591827855,1.3658737180157199,1.5460583638846317,1.4185107329657687,1.8531373231885913,2.460991083492532,0.9513115762153104,Relax
108.89734403245939,551.6736111111111,28.758174237424832,,,,,,,39.94760554540396,40.08509489890562,0.05212896476868589,0.07241166650140571,549.0,16.3086,0.029706010928961746,22.25,0.7198973216239117,535.6,567.0,10.416666666666668,22.22222222222222,442.0,649.0,4.0,117.1875,,,0.05161090158210675,0.058700634707983895,0.03873845402678671,0.14904999031687735,0.879222206690844,0.34626571576679066,0.3938318585810539,-2.8353047394640583,28.34444242752245,28.248865019051156,1.0033834070291616,2515.4679855373033,0.996628001813206,4.10758890437531,112.61443958971171,0.5833333333333334,0.5827338129496402,0.8395061728395061,0.28125,51.13449523183162,50.903915455134495,51.37046152884367,53.956834532374096,0.6219122615588889,0.37808773844111115,22.35445886139755,17.429940243770442,0.36340239468020585,0.6365976053197941,17.02922547788648,22.53894084662973,0.49310333984811794,0.5068966601518821,19.871038616069033,20.147042852355312,0.6976602902458853,2.2937952221562137,1.2317427486174664,1.246561812476942,-0.5295187795343423,-0.3259642657929187,-0.4935395000755363,0.0018531123581718145,0.3598611923735984,1.1008229593918117,0.5988698604606428,0.7399338305953282,1.0393687608256497,1.018711292769979,-1.729380457496411,0.0,0.00111958670915214,0.04770731979137383,0.8602673245438539,1.438289656238271,5.820079192796862,0.9043048917539563,1.3201377572640598,1.3738487719437056,1.59862052273157,1.5227170685603906,1.8285546481371406,2.7071261553696626,0.9460317710236384,Relax
108.83502203925646,551.6433566433567,26.424595242387774,,,,,,,35.87674518501396,36.00251936267092,0.0479015924404063,0.06503612298227794,549.0,14.825999999999999,0.027005464480874316,20.0,0.7365382535711619,536.4,565.2,9.090909090909092,20.97902097902098,442.0,649.0,4.085714285714285,117.1875,,,0.05409854441865008,0.04244742561270976,0.030113099210198547,0.1266590692415584,1.274483520207918,0.42711939020707473,0.33513135590595544,-3.1594890132296207,25.45762558114458,27.37671395705126,0.9299007039735537,2189.520853142125,1.0753836358300466,4.047319195759142,117.76188076885185,0.5804195804195804,0.5797101449275363,0.825,0.24242424242424243,50.76530612244898,50.672583683079,50.85422778999883,53.62318840579711,0.5836771094356967,0.41632289056430344,19.449972196373864,16.426604437111564,0.3870106398375239,0.6129893601624763,17.03110281676785,21.434225060190236,0.47821314459352776,0.5217868554064723,18.280589180809162,19.095278700037614,0.7236879528734969,2.7814994533962607,1.2823129389435195,1.543265442560527,-1.5453154128306856,-1.392472874344178,-0.4061827952910867,0.001958959834136984,0.4839038742962013,0.8172007931016565,1.6842151089573294,0.8726505797264107,0.93067793208975,-1.6903283042566457,-0.59855239346233,-0.4655463532806904,0.000690091131241707,0.08870414627291044,0.8447905642587736,1.3030954172649167,5.797338540333247,0.9263298207334717,1.2691010922990795,1.3467131229252778,1.5251744457661922,1.4598213984211907,1.7852715476772605,2.927910854542419,1.001380606542432,Relax
108.9305296509109,551.7361111111111,31.345354907566037,,,,,,,45.14653685732484,45.29363797806806,0.05681222286582139,0.0818263223090595,548.5,15.5673,0.02838158614402917,20.25,0.694302533251349,535.6,567.0,12.5,24.305555555555554,442.0,679.0,4.363636363636363,117.1875,,,0.05332268031808239,0.031211559764175847,0.02726200300667945,0.11179624308893768,1.7084272853061753,0.47696307894409656,0.27918254586914876,-3.4669667475247796,32.027438558900464,28.910208535894203,1.1078245429857756,2908.8632423867894,0.902670017857548,4.170693413720741,104.38551382144422,0.5972222222222222,0.5942028985507246,0.8292682926829268,0.24242424242424243,52.155936207914934,51.80914099056666,52.51859854138369,55.79710144927537,0.6511267257705925,0.3488732742294073,25.850327592116088,18.922004479471163,0.3408090062927469,0.6591909937072532,16.877447116409247,23.47236537764567,0.5118398307512213,0.4881601692487786,21.82988384974722,21.31893747285293,0.6213868529181846,3.0096415299715464,1.2792482628225128,1.5513322424755474,-1.592008750027249,-1.4354894123002702,-0.4095958847778104,0.0027357062791357975,0.6095817383116605,1.1091382986133145,3.463989906904093,1.0762314672493014,2.662240757769082,-3.92048255446597,-4.562697565873412,-0.04214378992308876,0.004265410958782336,0.8427555523961638,0.8193176027808438,1.1691021664226546,5.802965349416928,0.8585755128516739,1.4322447262559885,1.2641596929032675,1.460505960572457,1.406182891401248,1.8518627745869252,2.728266767158932,0.9958229168669877,Relax
107.9623871663759,556.9295774647887,43.46852580880114,,,,,,,54.97123683739183,55.15115546696586,0.07805030935271055,0.09870410741628698,550.0,17.049899999999997,0.030999818181818177,22.5,0.7907503689135394,538.0,572.6,17.6056338028169,29.577464788732392,442.0,797.0,4.580645161290323,117.1875,,,0.05458340225325148,0.04676157938965191,0.039276005807209725,0.14062098745011312,1.1672702882514379,0.3881597138735465,0.332536275257213,-3.062693366437735,38.99775602096509,45.29454487396261,0.860981297626037,5549.264056019755,1.1614654148205958,4.451205500723665,210.43218940458829,0.5845070422535211,0.5808823529411764,0.810126582278481,0.24242424242424243,52.219321148825074,51.902028017326074,52.536761373703754,55.88235294117647,0.5686504145944766,0.43134958540552343,29.416346281811215,25.620095349437825,0.5995826003727927,0.4004173996272075,35.07279774816221,28.66172802634063,0.5864099720554758,0.413590027944524,32.3683685907625,27.183487075522574,0.7832111367334914,2.330423578209154,1.0670194547549614,1.8735499462097844,-1.4434644139151889,-2.2937184546586202,-0.15391249084657296,0.00458301286857878,0.49019165096241274,2.190624519636468,5.543407756358736,5.275218230643656,2.503514352464288,8.418505793918197,6.279416880340316,-1.0,0.007641790326360494,1.9312205377036644,0.7574119121597853,0.9441132374734544,5.887024701628868,0.7075476369242478,1.1787933963433062,1.1952711124761612,1.2474501687397925,1.1720585027600405,1.8832089281823916,2.3429210300815746,0.9063059728949598,Relax
107.788570652003,557.2535211267606,42.98019280237512,,,,,,,50.56811991534834,50.74815741735194,0.07712861592237163,0.09074526763527693,550.0,17.7912,0.03234763636363636,27.0,0.8499464262132841,536.4,575.0,18.30985915492958,30.985915492957744,442.0,797.0,5.2592592592592595,117.1875,,,0.046005416642965785,0.05413567555168916,0.0396849788660059,0.13982607106066086,0.8498169861949808,0.3290188753355389,0.38716439031032657,-2.916261873278219,35.88436624253194,49.28517186903258,0.7280966035360265,5556.1175899303835,1.373444121485343,4.451741538553193,270.7617183196704,0.5633802816901409,0.5620437956204379,0.8051948051948052,0.25,49.733397964129914,49.621835906319475,49.84301814549622,59.12408759124088,0.5824615316344758,0.41753846836552444,27.38677991815968,23.18758904488101,0.484181704391601,0.5158182956083989,34.29418314388889,35.39685252467354,0.5182317957307798,0.4817682042692201,31.033262089186717,29.921576281738346,0.6961636700799753,2.6220993367845677,1.269054139504214,1.8095087098450233,-1.3174048113216372,-1.9219955540671658,-0.2938847843180652,0.004642664786876307,0.6116594045659567,1.0003115064567902,1.2496030378341174,-0.03890729980114749,0.5858942191159112,1.0,-3.169869812593559,0.0,0.0029687273842969476,0.2020027617717721,0.7568847773263299,0.986626370696052,6.012442810182787,0.7576593779187842,1.2531728690250372,1.236095071372855,1.3638120795117348,1.2244397618381928,1.795398950211307,2.3424597308257114,0.9063059728949598,Relax
107.60068920605933,558.3732394366198,44.20593476971445,,,,,,,51.93251212489953,52.116581768551306,0.07916915003719875,0.09300680701907872,550.0,18.5325,0.03369545454545454,31.75,0.8512188792908306,536.4,576.6,19.718309859154928,32.3943661971831,442.0,797.0,5.916666666666667,148.4375,,,0.06132357474613131,0.05652515743815748,0.029529719562710416,0.1473784517469992,1.0848899414959372,0.41609593545875967,0.3835374626895441,-2.873069475538347,36.85198838080582,49.633771737186855,0.7424780968881194,5746.297110917449,1.3468410774556296,4.466358187290549,267.3952104187981,0.5774647887323944,0.5797101449275363,0.825,0.3125,50.54385558898403,50.37338112592923,50.7120500123312,57.971014492753625,0.5918611531128789,0.4081388468871212,28.35174471829606,23.543652465761795,0.48780752926021,0.5121924707397898,34.66582407826889,35.521710795423154,0.5247858853667419,0.47521411463325813,31.666550077304883,30.133830732768224,0.8070368587348102,1.8821637510020317,1.3217100854449364,1.5496216673578869,-0.4654132802607265,-1.0684191465048478,-0.37890980166225485,0.003025943085883045,0.3216574926159845,1.7791013274379073,3.0824769126130938,2.627317440712259,3.2502797468516578,-4.390512393917099,-5.390512393917099,-0.29790203664127424,0.01907911057233015,1.1584753968952284,0.7497570969987044,0.9808292530117262,6.0036744123106995,0.7555593156475592,1.2761665911525109,1.240861342256768,1.47306421188608,1.2423724373207186,1.7997462060570588,2.8039831760401985,0.8559556410674619,Relax
107.51936346380745,558.9366197183099,45.23292198217853,,,,,,,56.00227958886081,56.19777819056756,0.0809267462292501,0.10019432904053516,551.5,20.0151,0.036292112420670895,31.75,0.8076978707698111,538.2,576.6,21.12676056338028,35.2112676056338,442.0,797.0,5.916666666666667,148.4375,,,0.0680864766193339,0.04968906698179111,0.01774636564213782,0.13552190924326282,1.3702506558290708,0.5024019879849698,0.3666496971541249,-3.001970350324409,39.73783004616779,49.823090271628,0.7975785891546091,6219.91832338398,1.2537949408345412,4.500754791768922,249.87175407723933,0.6056338028169014,0.6086956521739131,0.8571428571428571,0.3125,51.02127659574468,50.8296906799498,51.20295367541292,57.971014492753625,0.6035295288232794,0.3964704711767208,30.873474514078076,25.023132155210764,0.4769703733614046,0.5230296266385958,34.40934162768592,36.032451109576115,0.5261813000352167,0.47381869996478354,32.68925067833635,31.020111829433624,0.658123594819901,2.0789832906452737,0.6254479388176102,1.5359763606441075,-1.1472501722539867,-1.8239724132571258,-0.06203187109604528,0.00293586705284268,0.34268001483800375,-0.676848603716582,5.760159802730284,0.8602758421076269,-0.41212657249545326,0.012941081187880954,4.805524544347847,-0.7208970685153506,0.0165284215732916,2.667561624180119,0.7720130995854722,0.9021443187986502,6.0466312113959795,0.7537999239389349,1.2817061482433874,1.2172607126097492,1.3929305511295378,1.2457624478715337,1.8351095861633242,2.4911910679906395,0.9063059728949598,Relax
107.30373886562604,559.4893617021277,43.93479210656184,,,,,,,50.96062906093011,51.14280833909952,0.07852659069852473,0.09108417880528275,551.0,17.7912,0.03228892921960073,26.0,0.8621320599090728,539.0,575.0,17.73049645390071,29.78723404255319,442.0,797.0,5.222222222222222,132.8125,,,0.05073548373867882,0.040722823387734114,0.026198184653528026,0.11765649177994095,1.2458734320950977,0.4312170367409223,0.3461162471502221,-3.2009665725096013,36.16342658550118,50.68726941329095,0.7134617233103229,5758.618961613672,1.4016168875327966,4.4672884528877175,284.17653117037275,0.6170212765957447,0.6148148148148148,0.8554216867469879,0.3870967741935484,50.489476260401375,50.3646594504119,50.60002412740492,57.77777777777777,0.6001215695119066,0.39987843048809324,28.015347797773558,22.86864272631598,0.4805628422706511,0.5194371577293486,35.137753323641704,36.53132316167108,0.5208934247924087,0.4791065752075912,31.77673221764086,30.475501571642187,0.8659211322404549,1.868217813645956,0.8635791965378203,1.6907641664298418,-0.9799520063831366,-1.7614202611159548,-0.05723312140048966,0.0021551169161185537,0.2851603138215885,1.9337718514113278,1.8731647611216085,0.5873141359100051,1.5238965164708094,2.32396025936265,-0.19209915250619503,0.0,0.001729619585454121,0.21288315400851868,0.7355106811688699,0.9707789171582248,5.978580126413487,0.7215681750687933,1.2089865452684392,1.2163711760230487,1.3378696755648496,1.1952116010715923,1.809556033617389,2.354742618721245,0.860796971565812,Relax
107.05111601677785,561.0992907801418,43.68103625218664,,,,,,,53.314498162185814,53.50579446293615,0.0778490313032714,0.09501793896060419,554.0,19.273799999999998,0.03479025270758122,31.0,0.8193087763727303,541.0,582.0,17.02127659574468,28.368794326241137,426.0,797.0,6.130434782608695,171.875,,,0.05737557072541688,0.03986099850350742,0.013123365443149914,0.11035993467207421,1.4393912064287184,0.5198949319415949,0.36119084903367527,-3.2223569142476327,37.83431009751578,49.08871800479794,0.7707333097152353,5834.684563364994,1.2974656569202547,4.472987492006767,254.76370301387317,0.5957446808510638,0.5925925925925926,0.825,0.3793103448275862,50.206862983694336,50.029261734247356,50.37061766933852,58.51851851851851,0.622371155523055,0.3776288444769451,29.847755178717094,23.24981627528554,0.44843716000771777,0.5515628399922823,32.87248130103132,36.45685406707385,0.5132554692987743,0.48674453070122564,31.396564430645014,30.57495842435809,0.7818437573680344,2.1897959446285595,0.7555603306550425,1.6715168953471875,-1.285350868342304,-1.8749011996720508,-0.08171601927616473,0.003110034759602111,0.35882464309389195,1.1709596818274024,3.231246072482895,1.6745613932461074,2.2626634687377223,-1.5352313333381922,-0.8404773323384047,-0.31799526798659555,0.01107665272536993,0.9095285520349848,0.7269565562525502,0.9609228858949233,5.986930743214248,0.6864529308702717,1.2417719890370915,1.2708403510564648,1.3944724438339677,1.2150742678512758,1.7844065745269604,2.289873441790853,0.860796971565812,Relax
106.63381958275554,563.8214285714286,46.09737392560001,,,,,,,54.59102358552281,54.77287156135068,0.08175881864298476,0.09682325080095261,555.0,21.4977,0.03873459459459459,32.25,0.8444130719290036,539.8,584.0,18.571428571428573,29.28571428571429,442.0,797.0,6.666666666666667,156.25,,,0.05576330074072298,0.04229465947261259,0.017324362010714738,0.11538232222405032,1.3184478001727817,0.48329154471723457,0.36656100048397783,-3.163094454503101,38.730268906090856,50.8947483975611,0.7609875306495636,6192.6046814871315,1.3140819786448015,4.4988434667146935,267.5194867075857,0.5857142857142857,0.582089552238806,0.8205128205128205,0.3333333333333333,52.14302628463179,51.775137408739766,52.51596303611882,58.95522388059702,0.659339279894748,0.34066072010525156,31.457816244910433,22.611799536102154,0.4505203808179057,0.5494796191820945,34.1609699239021,37.72669543319827,0.5271278652650487,0.47287213473495104,32.83722026177227,31.10142301061298,0.7603615791722799,2.4587681644395953,0.7916757770652199,1.8049638640208387,-1.5476202525707503,-2.1780566578282734,-0.08788791004760359,0.0038285298901009884,0.4750300298274607,0.7016159874890099,1.5146506699846534,-0.8130346824956435,-0.0557093475033168,1.0298191419160316,-0.9757362799468705,0.0,0.006852249584227094,0.3420446948320946,0.7516278625960773,0.9273405680607401,5.945250028424552,0.6862098684148502,1.1697873413914741,1.1990795433193364,1.3397307089215005,1.257061934387907,1.7758540755691705,2.323737852377429,0.8656986520576031,Relax
106.03784634996497,566.0,45.468464840634645,,,,,,,52.32658924911926,52.49753557824574,0.08033297675023789,0.09244980432706583,557.0,23.7216,0.04258815080789946,36.25,0.8689361468634219,543.8,585.4,18.571428571428573,30.714285714285715,442.0,797.0,7.0,164.0625,,,0.06969651751887254,0.045568760287672476,0.015096469371772172,0.1303617471783172,1.5294802201965376,0.5346393326835146,0.34955622545730836,-3.0885328786479906,37.1213634029596,51.47913099454273,0.7210953775986393,6003.506684092096,1.3867791017190498,4.4853751084599445,285.5607321515571,0.5785714285714286,0.5746268656716418,0.8181818181818182,0.39285714285714285,47.68115942028986,47.42721817061611,47.93187165298484,61.940298507462686,0.6161558834657586,0.38384411653424133,29.14879369567536,23.006615305735153,0.41326290118574543,0.5867370988142546,33.0936307757401,39.43237920836475,0.48270360899979853,0.5172963910002012,31.18365414631563,32.28170439938359,0.9161001608172364,2.425542456475031,1.4949732972290437,1.8827321628142486,-1.027953827122536,-1.5356753746415286,-0.3401351975719596,0.0036138029903695582,0.4993504997639514,0.44718647232578856,4.811051488262705,1.634348213225718,2.4717463793987773,-2.529643526844172,-2.785572825966808,-0.32594279686758293,0.025042684153183045,2.421072467505556,0.7107949791702528,0.9221558513265532,6.00951047429848,0.7121096376232906,1.0770526095053548,1.2468526236761153,1.4772724495039615,1.2788167921041296,1.7333706029719531,2.5388830451929527,0.8656986520576031,Relax
106.19502245884343,565.2571428571429,44.92205422514406,,,,,,,52.21262561278924,52.39778119036373,0.07947189132026092,0.09236968744680668,556.5,24.462899999999998,0.04395849056603773,35.5,0.8603676543349433,541.0,585.0,17.857142857142858,30.714285714285715,442.0,797.0,7.368421052631579,164.0625,,,0.06887784701311987,0.03951930270070763,0.010127363889745486,0.11852451360357298,1.7428912532883976,0.5811274386958843,0.3334272506098376,-3.2309660504709945,37.05082639883512,51.24073444271419,0.7230736795987376,5964.349958297001,1.382984927006249,4.48253322772369,283.4606535320147,0.5642857142857143,0.5597014925373135,0.8133333333333334,0.35714285714285715,48.94968246213973,48.67468811223612,49.21834228504976,60.447761194029844,0.620590284375198,0.37940971562480214,29.1897837994883,22.823519524347265,0.4261897070439637,0.5738102929560362,33.45159455495202,38.81499308205349,0.492939465415023,0.5070605345849772,31.393093639603002,31.83957232311798,0.7998277381908229,3.0238049639606364,1.4647023063779565,1.9386526395186576,-1.7547185448171874,-2.01818349978685,-0.34326028338814807,0.003893037846844243,0.69582954211853,2.63203429303632,2.4358493014525138,4.373063272030469,3.1697597565307323,-4.767925362718799,-5.767925362718799,-0.9939975206110653,0.020570051865805957,1.2607560483293012,0.7647336464093661,1.05115813004142,6.050477170680691,0.7407515231648624,1.0960434997068846,1.319021024040212,1.5689543439653628,1.3063986098611766,1.7290443812781089,2.347521470071153,0.8147752019365676,Relax
105.90064277729974,567.2517985611511,45.493285621032136,,,,,,,54.22677823973013,54.42159290828142,0.0801994559319636,0.09559560388751126,559.0,23.7216,0.042435778175313056,35.5,0.8389450212201753,543.0,585.8,19.424460431654676,32.37410071942446,442.0,797.0,7.722222222222222,164.0625,,,0.0609853103030442,0.035353047395094886,0.009955982864773798,0.10629434056291288,1.7250368722529335,0.5737399562392371,0.3325957638748446,-3.3423706839875043,38.48187738841951,51.014109400006255,0.7543379241746557,6167.319295502384,1.3256658162774073,4.497066543337851,270.510643917697,0.5611510791366906,0.5597014925373135,0.8,0.3103448275862069,50.87310826542492,50.85349565773997,50.897271489383385,57.46268656716418,0.6260229919047793,0.37397700809522044,30.449012065523956,23.534258302921153,0.4543714295322805,0.5456285704677194,34.38712100931249,37.682426495207366,0.5166268815789078,0.48337311842109226,32.47781109523488,31.415176113109087,0.869456421859343,2.660102904999806,1.4959777193864723,1.9680426801635318,-1.3188280811836925,-1.8558976927922637,-0.3225388349113157,0.004718518660057829,0.613116200785511,-0.17563950219526797,5.444213517353036,0.8269529781423185,1.2838755708023275,-4.4606738652685305,-2.8584689682802047,-0.41607188233826586,0.004745383058933838,1.651958146773151,0.7173594000390531,0.9855351440491386,6.082874393095128,0.7242970502150062,1.0955877928746371,1.3002683631901937,1.5280125728774978,1.3633936692204813,1.753496062877461,2.076217311750138,0.8706618578151052,Relax
105.97826527184164,566.6690647482014,43.536156635906806,,,,,,,52.03183250859899,52.22137177793394,0.07682818658056097,0.09182049232159736,559.0,23.7216,0.042435778175313056,33.5,0.8367215709481661,543.6,585.0,16.546762589928058,31.654676258992804,442.0,797.0,6.95,164.0625,,,0.04536461056115325,0.034884544963519996,0.012276542578787877,0.09252569810346112,1.3004214504902565,0.49029201066310346,0.37702547161019545,-3.355711385576827,36.926086107040874,49.53095585231657,0.745515314042013,5745.923768483379,1.341354069010641,4.466329969844899,265.754196697965,0.5899280575539568,0.5864661654135338,0.8076923076923077,0.3,49.93782641134047,49.760114068747505,50.10997363291817,57.14285714285714,0.6424095779277266,0.3575904220722735,29.596433993126418,22.081385627738037,0.430311592482246,0.5696884075177541,32.49138558727011,37.38482914583761,0.5060817134072985,0.4939182865927017,31.077636995837963,30.701897673469183,0.8672283871526509,2.1329820163473108,1.314377258743181,1.7386991550915039,-1.1308879673941235,-1.7408474869245187,-0.3010663507257479,0.0021356030477514653,0.3491455128522403,1.8849457247728258,1.8894347399251115,2.4036790278636087,1.458961657901053,2.020574176212854,0.3505464833384946,-1.0,0.0030261392942595327,0.3286226033317291,0.8116574706234942,1.1913101892817044,6.047948112719061,0.7619255042351376,1.146723790803038,1.25466991922345,1.4414211114360236,1.3557880705060936,1.754665736293794,2.346044888677303,0.9218772612159938,Relax
106.27404333597126,565.5285714285715,43.20528925406281,,,,,,,48.381056403359324,48.54893363767997,0.07639806622841834,0.08555015404640798,558.0,23.7216,0.04251182795698925,35.0,0.8930207909032525,541.0,585.0,13.571428571428571,30.0,454.0,797.0,7.368421052631579,148.4375,,,0.07211641215272996,0.04527562431700019,0.011455482017724151,0.1288475184874543,1.5928308718131035,0.5597035394961979,0.3513891834976132,-3.0949864858654323,34.32928019457919,50.19646263241073,0.6838983943146134,5413.618945814895,1.4622055093464228,4.440457793322024,293.59017684325124,0.5785714285714286,0.5777777777777777,0.8076923076923077,0.26666666666666666,51.556999729217445,51.321564881700574,51.77590865007999,57.03703703703704,0.6713404495314436,0.3286595504685565,28.1319355377736,19.683455128536288,0.44153862114206766,0.5584613788579323,33.35473248511023,37.51195385012274,0.5147841056431108,0.48521589435688917,30.854043302740056,29.95484174095099,1.0152237049268338,2.1099260790046968,0.9474058531506198,1.8902597452858978,-1.0211088423715644,-1.6612548440849952,-0.053134158813732076,0.0023903737837344128,0.360618908196637,0.7725921013174495,4.138512212611333,1.6319199848051609,2.508989030122412,-2.845805181458612,-3.1634041651126723,-0.28807141304439104,0.011424694918010235,1.5049664208975908,0.8136844992826107,1.1585104302491787,6.052552128219642,0.740117912159151,1.2987017346201355,1.2610563043422736,1.5673109984397584,1.3593883725754592,1.728965759582794,2.1706796817743754,0.8656986520576031,Relax
105.80981339786993,567.5428571428571,46.01006637253791,,,,,,,48.60226184155536,48.7776495648383,0.08106888456699693,0.08563628496045297,558.0,23.7216,0.04251182795698925,36.25,0.9466651268727354,541.0,585.4,15.0,32.142857142857146,452.0,797.0,7.368421052631579,156.25,,,0.06955344230389482,0.039067117745093645,0.0069164314019301435,0.1155369914509186,1.7803576592908466,0.6020015012546167,0.3381351483580027,-3.2424741441978764,34.491006777638205,55.301479865557056,0.6236904846215506,5992.285504305779,1.6033593980623102,4.484562607241764,354.6725898767781,0.5785714285714286,0.5777777777777777,0.8205128205128205,0.23333333333333334,50.3489273714138,50.198030755253164,50.49513131781609,57.77777777777777,0.6407141312590796,0.3592858687409204,27.608416066141125,20.674233070261113,0.4499164415526182,0.5500835584473819,37.093916090990795,41.01579042704342,0.5033503915266078,0.49664960847339223,32.69696659207567,32.47860047322409,0.8679211204068952,2.649326332172946,1.4215848169211838,1.828752410853263,-1.5031002921711032,-1.7459977752076923,-0.3463127818617478,0.0025176695465507514,0.5056487079779767,1.4380028897691848,1.3990069047332567,2.0084734255273893,1.308969973160761,2.1773931727935008,0.3071892636300726,-1.0,0.0007414411786492189,0.11608292074127437,0.7380714186435857,1.0181907213575354,6.106906703037049,0.7268689529137906,1.3162003645748752,1.3700049657792785,1.6932424838117193,1.3244501325412035,1.7206318034565826,2.4304055639569855,0.8147752019365676,Relax
105.75616656289475,568.0571428571428,46.49866887992972,,,,,,,47.79347055130156,47.96021641382634,0.08185561869014889,0.08413496978651819,558.0,25.2042,0.045168817204301076,38.75,0.9729083982302142,541.0,587.4,15.0,32.857142857142854,452.0,797.0,7.368421052631579,140.625,,,0.06497484457541879,0.03137603813670127,0.004754019510539869,0.10110490222265993,2.070842860794978,0.642647815754046,0.3103315214884722,-3.4617107940552345,33.91299425339096,56.14504086378493,0.6040247496776828,5981.738333664419,1.655561300316942,4.483797521209555,371.8062274351825,0.5714285714285714,0.5703703703703704,0.8311688311688312,0.23333333333333334,51.37877211238293,51.20347354931526,51.542794884759694,57.03703703703704,0.6469389554843057,0.353061044515694,27.2805472978378,20.15330734895514,0.4643989802632627,0.5356010197367371,38.26106292921,41.08961763174624,0.5132040407413171,0.48679595925868313,33.22752772433222,32.36133861743485,0.9898377370532248,1.7354042910491496,1.3373639249716467,1.4015048496616223,-0.8309392021022681,-0.8752636772258162,-0.46303977982490824,0.0010969188268645012,0.1633041044204869,0.026801154847909778,3.429523684954857,0.708984894532869,0.5987223200141267,-1.8956989636438202,-0.004218589077016333,-0.5321509879061219,0.0019970405320570398,0.5956528080678105,0.7452769185351564,1.095059887063742,6.163151724329387,0.7519409745477608,1.1875232921536856,1.387467686844158,1.6958378840075745,1.347802175016901,1.6787188154982222,2.229167805943811,0.6620048515734611,Relax
105.78135164115767,568.0642857142857,46.370607583765434,,,,,,,48.561686647726134,48.732888075180355,0.08162915492118801,0.08548625194182825,558.0,23.7216,0.04251182795698925,37.25,0.9548804991092027,542.0,587.4,14.285714285714285,30.714285714285715,452.0,797.0,6.666666666666667,140.625,,,0.0502884675322074,0.021408472550915554,0.0041292262712367845,0.07582616635435974,2.3489983889605783,0.6632073062640861,0.28233621162999284,-3.8439685217132533,34.45935562476506,55.54403964334959,0.6203970011189301,6013.045456593486,1.6118711054315684,4.486064596939354,358.1193303202431,0.5857142857142857,0.5851851851851851,0.8354430379746836,0.23333333333333334,51.20849933598939,50.98335578901627,51.42328322034023,57.03703703703704,0.6605347854604251,0.33946521453957507,28.00879778968009,20.079100822872334,0.45821101666852804,0.5417889833314722,37.598474592881814,40.883921634187836,0.5144486764555501,0.48555132354444985,33.15220992132174,32.20764923155278,1.0694621780376983,1.3906717961974406,1.423882775345901,1.4063335165164568,-0.10544757300330687,-0.3821146285104824,-0.5126192670890641,0.0010285960789379461,0.1316621430857567,1.3284398313796504,4.31509478207856,1.95430303837058,2.240146635551895,-3.3325795461850483,-1.2601310639514485,-0.43375728422734067,0.0014584608739351766,0.8784354178233832,0.7395663103573056,0.9932517730102831,6.084605564169745,0.718702600916804,1.21822678782919,1.1898689344456364,1.6662088154131625,1.2990965231762026,1.6777186648340154,2.3068529011697603,0.7129283016944966,Relax
105.53483144467899,568.8705035971223,44.648682492267085,,,,,,,43.16323919021028,43.31473837944936,0.07848654871353213,0.07587533352015516,558.0,22.238999999999997,0.03985483870967742,34.0,1.0344145464966337,543.0,585.0,10.071942446043165,25.899280575539567,452.0,798.0,6.318181818181818,140.625,,,0.0531370792009407,0.019234200512839205,0.0038358106173841684,0.07620709033116407,2.762635190657946,0.6972721169385844,0.2523938445787056,-3.9510653078299334,30.62814523342985,52.98732031779884,0.5780278196695602,5098.501217416647,1.7300205387548089,4.414412637301084,366.6766097734879,0.5827338129496403,0.5851851851851851,0.8481012658227848,0.27586206896551724,48.46567541917114,48.658084040745756,48.243141628821405,57.03703703703704,0.5473759543840406,0.45262404561595937,22.663195669547672,20.60853412623316,0.44171986272048475,0.5582801372795153,35.21643754620916,39.59114346687864,0.4681856437165933,0.5318143562834067,29.61264857626091,31.560816844998516,0.9365138000782349,1.6969901292035947,1.36136898348177,1.2414482543896153,-0.3185938855968331,-0.23920219493515238,-0.5706667216434747,0.0021509011717289615,0.1931496957584768,1.3073758578164287,3.2110443441065746,1.7682404652040056,2.9128980298697162,-2.931669451166261,-3.970338956292214,-0.1435248342905727,0.016302657322260567,1.153257531585751,0.7460236876146316,1.0409189724350913,6.00949503381297,0.6724055554186489,1.2149608955101725,1.2004522300300142,1.5316810750597065,1.283384075467124,1.6516821384046008,1.9357758341441573,0.7170156476124396,Relax
106.47874798562394,564.1631205673759,37.43520575865054,,,,,,,40.98588607243788,41.13269330321267,0.06635528696204415,0.07264899916041762,555.0,19.273799999999998,0.03472756756756756,29.0,0.9133682188177678,542.0,581.0,9.219858156028367,24.822695035460992,452.0,709.0,5.875,140.625,,,0.06251484606623857,0.01610822355232558,0.004195519354006014,0.08281858897257016,3.880927394828287,0.754840753045717,0.19450009656238754,-4.128425357747689,29.08520636316817,42.11529835583778,0.69060905415945,3848.237823875407,1.4479972337129494,4.292232013869439,243.9313420649945,0.624113475177305,0.625,0.8588235294117647,0.2857142857142857,49.605003291639235,49.5133233691861,49.69414058476298,55.88235294117647,0.663050965651549,0.33694903434845097,23.683691988097006,16.883327947710075,0.35701103486941244,0.6429889651305875,25.16405939985382,33.77082276347234,0.4558400955739408,0.5441599044260589,24.435089028550948,26.697520790438478,1.0870280580231222,1.1184737586059192,1.320378092850377,1.0365179452902957,0.1912786840148062,0.5009512205962263,-0.7537924071762653,0.001734434899342742,0.09584448748507952,1.4251766204280778,3.5077707587762723,1.9761234972457804,3.0698250228366826,-3.6000174741026036,-4.381543520143541,-0.18820609988423154,0.007995255615918724,1.024563003285102,0.8187150649062982,1.2252635271348173,5.966797831574035,0.7804573585053426,1.0884183682202102,1.2979539195106549,1.5149084791347773,1.4771360670389566,1.673516600525184,2.0490919892317527,0.8101618555913525,Relax
106.59787869166574,562.9716312056737,34.56793379138933,,,,,,,36.53657658527176,36.66594497717002,0.06140262115403187,0.06489949858934124,557.0,19.273799999999998,0.03460287253141831,25.0,0.9461185754694924,543.0,579.0,7.801418439716312,24.113475177304963,452.0,709.0,6.130434782608695,140.625,,,0.05909424847501716,0.0263736634759922,0.005813565608790883,0.09128147755980025,2.2406537691970754,0.6473848808626415,0.28892678099688196,-3.635389362365902,25.926738331969748,41.017812226343324,0.6320848656896072,3340.9521057986776,1.58206603935849,4.230840359818289,259.57155092832494,0.6099290780141844,0.6102941176470589,0.8433734939759037,0.2413793103448276,49.07238995998545,48.83676225127739,49.312544551177965,55.88235294117647,0.6556137600393817,0.3443862399606183,20.99391826974057,15.215715087090413,0.37170322246442417,0.6282967775355757,25.007521779923277,32.51284014450634,0.4527583580277364,0.5472416419722637,23.088100288783874,25.383092402953327,1.017442155363009,1.8455442600826584,1.3900126209919486,1.2715463831572789,-0.64727724586281,-0.3071788986380892,-0.5641904073486506,0.0019679788755396243,0.19671159292889184,0.8885253031786486,3.4059889522210804,-2.5174636490424316,-0.8144691729318915,0.7498482865516825,-5.091836628385693,0.0,0.028443777956914426,1.6354925172787924,0.8872376208464674,1.4336257358256628,5.979516689614129,0.8422835275484969,1.238643018754159,1.4665542308150825,1.9151402337996712,1.4770689862910102,1.6336375522755218,2.259102725572941,0.860796971565812,Relax
106.54377877952389,563.5531914893617,36.684645587554726,,,,,,,41.20445537629569,41.34812661429559,0.06509526721089864,0.07311546806682137,558.0,22.238999999999997,0.03985483870967742,31.0,0.890307741057023,542.0,581.0,11.347517730496454,26.95035460992908,452.0,709.0,5.875,140.625,,,0.06386797153437863,0.022898057633122956,0.0060208694410920855,0.09278689860859368,2.7892309713637484,0.6883296294210156,0.24678115096523118,-3.7767031915336027,29.237540718328372,42.54681811554715,0.6871851295419106,3908.029191309382,1.4552119319965746,4.298927909014984,247.6585495609289,0.5957446808510638,0.5955882352941176,0.8271604938271605,0.16129032258064516,48.70353014682912,48.64451874966837,48.77327180847085,56.61764705882353,0.6474023214819115,0.35259767851808854,23.527345180088243,17.36303026962416,0.36246609011246195,0.637533909887538,25.61537854507785,33.971813518707194,0.4538737389693875,0.5461262610306128,24.593531560459716,26.977388067543732,1.0374039043970855,0.9754094724132596,1.2921913567751564,1.2610502336528704,0.0943404557584735,-0.39170923190667173,-0.5319262053558285,0.0007512678414935601,0.06341667955199837,1.2160835925698332,4.12547775136486,1.774326518673637,2.1580860476389505,-3.695595742763061,-1.9211894814789776,-0.4069781605685906,0.0009033213279513773,0.765331636493121,0.8450832134929396,1.2856967901666168,5.997474625611571,0.8280469749087963,0.963761268651996,1.2281175851345174,1.637666766602668,1.5091870229887725,1.69456253187472,2.32800145255384,0.9114320875402716,Relax
106.32877751244504,564.5390070921986,41.22473559310451,,,,,,,52.137661189256605,52.32148772836015,0.07302371505813739,0.09235439984529122,558.0,22.238999999999997,0.03985483870967742,29.0,0.7906901585681256,543.0,581.0,15.602836879432624,31.20567375886525,452.0,723.0,6.130434782608695,140.625,,,0.06035354255239043,0.016073974293276956,0.0045376418345561345,0.08096515868022353,3.7547367845196624,0.7454261010067326,0.19852952251674114,-4.130553818466439,36.99687877449218,44.64749998467784,0.8286439058668188,5189.3397478817715,1.2067909905810879,4.422082214998612,215.52080293391393,0.624113475177305,0.6277372262773723,0.872093023255814,0.2,48.97404202719407,48.70673515397135,49.246386005607235,57.66423357664233,0.6200143470137978,0.3799856529862022,29.133592072560493,22.807451767242824,0.35440991374938513,0.6455900862506151,26.579700111001067,35.87365045393427,0.462548164206793,0.5374518357932069,27.885898273510122,30.059097233667597,0.8033047919724319,1.760453770115301,1.2181715055917115,1.4242763342076137,-0.8382930698619617,-1.3447369229846675,-0.3829251684340434,0.0013276085331892287,0.2073847004399271,1.3435594923786969,1.7626107668564006,-0.010366942479354435,0.8709384409488459,1.8673481933398683,-2.2058966038396113,0.0,0.00189184713340088,0.15354701596822123,0.7611080203464509,1.0796298377558196,6.039022785540106,0.7774649709841055,1.0622393270975818,1.2779106161697151,1.555897053406919,1.497159314913452,1.7858229411465647,2.8167146016027518,1.0127023194891906,Relax
106.89529922668363,561.7234042553191,37.811771859903764,,,,,,,46.45689246110697,46.622213937959614,0.06731386225580384,0.08270421369160363,557.0,20.7564,0.03726463195691203,27.0,0.8139109151900168,542.0,576.0,13.47517730496454,30.49645390070922,452.0,709.0,5.875,140.625,,,0.05600644859321696,0.014413138393858382,0.0038500487543118994,0.07426963574138724,3.8857913566612257,0.7540961798740451,0.19406502065051284,-4.2396150999111475,32.96688362946121,42.222805000095065,0.780783835403332,4372.953399706407,1.280764220078182,4.347744959280534,216.30983166183964,0.6382978723404256,0.6423357664233577,0.8636363636363636,0.22580645161290322,49.29116684841876,49.17113473428543,49.42342553050146,55.47445255474452,0.6081733155940348,0.39182668440596524,25.710200086526136,20.636630141501357,0.3925027693421956,0.6074972306578044,26.452604833020054,32.90934456387938,0.47418835671218346,0.5258116432878167,26.08404388645599,27.467211937337755,0.8709264728852216,1.06614437195263,1.1562602224379246,1.1632961870843488,-0.022456981353993655,-0.5576794359950621,-0.49340055171558234,0.0008792641371125352,0.07792360608370945,1.1252512133440673,4.185411485949385,1.6268356448949501,2.848559759116934,-5.726323239697528,-5.982486339671228,-0.20809940233514265,0.0028373719929851026,0.9984029832841884,0.830591497637799,1.2579631882224753,5.9599784803789255,0.8282228382276958,1.0537985203883682,1.2304050390843373,1.608266453112226,1.5151446142253266,1.738852086978632,3.100049021247282,0.9114320875402716,Relax
106.99340383667091,561.7659574468086,38.950451729981324,,,,,,,48.70816886607127,48.87390491567114,0.06933572818653645,0.08670544774098964,556.0,20.7564,0.03733165467625899,29.0,0.7996698015291868,542.0,576.0,14.184397163120568,30.49645390070922,452.0,709.0,5.64,140.625,,,0.0546925900730616,0.018799595447786754,0.005334587788260346,0.0788267733091087,2.9092429262620363,0.6938326634098276,0.23849251540547833,-3.9739199281125117,34.5590695889376,42.13304308532686,0.820236732460776,4574.406360532527,1.2191602258532361,4.367304851845558,205.4677212951649,0.6028368794326241,0.6086956521739131,0.8452380952380952,0.14285714285714285,51.719645648775405,51.4853268787559,51.96166765100095,52.89855072463768,0.6340697520382479,0.36593024796175194,27.524024822798776,20.909448485582374,0.39443378619372715,0.6055662138062728,26.461221103484174,32.787148356368746,0.4908359405789298,0.5091640594210701,26.99785329182229,27.49729198770087,0.7800399167454551,1.8680251541384338,1.2077093932055405,1.270438029039306,-0.5851976808115946,-0.6913384608457656,-0.46641981201655863,0.001101841402748754,0.2220111944496509,0.784706723656409,2.42540812744641,0.388554285131792,-0.062170136601982784,1.0,5.298970613798466,-0.6858344649847941,0.00886272112731538,0.5946580648756226,0.8776531151862015,1.3341449022964795,6.011362256959327,0.8528927752840936,1.141562421926959,1.2776924613835512,1.6161680073385576,1.5198536247859664,1.7896650827713363,2.6824281204958673,0.9620672035147312,Relax
106.78434350290622,562.1347517730496,36.14439689004488,,,,,,,42.93366977093852,43.06977297706585,0.0642984565107219,0.07637611735534919,556.0,20.7564,0.03733165467625899,29.0,0.8418660012732186,542.0,579.0,12.056737588652481,27.659574468085108,452.0,690.0,5.875,140.625,,,0.059185609111139015,0.02357186962626535,0.010105035825612188,0.09286251456301656,2.5108576472521493,0.6373466127817983,0.2538362194604311,-3.747701242894608,30.454928536248378,39.73402579346063,0.7664697429491427,3801.6315814287614,1.3046829430634845,4.286940136771798,207.36122284789047,0.574468085106383,0.5797101449275363,0.825,0.15151515151515152,47.4694589877836,47.555990879108315,47.37588196818096,51.449275362318836,0.508986212615573,0.4910137873844269,21.73665140697824,21.349439363858693,0.45005682330821933,0.5499431766917807,26.656077633818217,29.466019937128454,0.4718762913104562,0.5281237086895436,24.321065860778315,25.72979685196067,0.8753776073144174,1.6472535019683008,1.2614944815604674,1.420561569194886,-0.5070664510367564,-0.9742111595948102,-0.4034349676935883,0.0010278580286955286,0.1864672437196226,0.9207564031975383,4.262481087409283,1.6531036850364833,3.0519969469021797,-4.502013912757555,-5.449956295189043,-0.1718124413506929,0.019532018960067943,1.8102265983424137,0.8692331349773394,1.2847145683019703,5.950439629542426,0.8745266664256511,0.945262251457412,1.2752726166511064,1.580651067880155,1.5661209904444573,1.7457810773480447,2.208973328316158,0.8101618555913525,Relax
106.78329786607185,562.2340425531914,34.53810283024332,,,,,,,41.34540914228395,41.49377793597246,0.06143011667063145,0.07353771919346626,558.0,20.7564,0.03719784946236559,27.0,0.8353552074278835,543.0,579.0,11.347517730496454,24.822695035460992,452.0,690.0,5.64,140.625,,,0.05632369314150555,0.017565150019168495,0.009655335394509355,0.0835441785551834,3.2065591856625555,0.6741785497873091,0.21024983814481094,-4.0418384524998805,29.34053175557487,39.24307075473386,0.7476614645920783,3617.269251262651,1.337503733117497,4.26535094661545,209.95101453380244,0.574468085106383,0.5797101449275363,0.825,0.14285714285714285,50.18552875695734,50.1380150264452,50.23351161281916,50.0,0.5461052473236894,0.45389475267631046,21.682386844639026,19.767260920940632,0.4707366623953302,0.52926333760467,26.92476957849569,28.549525134508997,0.4977610641073317,0.5022389358926685,24.44452000076564,24.554225600927712,0.8805160172473119,0.6322979259859653,0.8655419539483553,1.0342764110925367,0.9912674853034162,0.31604462359893226,-0.23314089733717314,0.0015758578819471568,0.06799058937443601,1.2587267404545948,1.8255106631286862,-0.5218019590618623,0.39095337250248074,1.0,-4.3455320418862975,0.0,0.0023381500416170776,0.27984766395401073,0.8623945709756753,1.349544818911149,5.957506738920792,0.8626289198347629,0.9095905252883245,1.3702155133020284,1.6631114598895607,1.5481323063914898,1.7163318264109206,2.7003795565088944,0.8101618555913525,Relax
106.70252836516863,562.4255319148937,35.33335818469428,,,,,,,42.18733730127357,42.33345579986224,0.06282317601122157,0.0750096411121986,558.0,20.7564,0.03719784946236559,28.0,0.8375346832715992,543.0,579.0,12.056737588652481,24.822695035460992,452.0,690.0,5.64,140.625,,,0.05249600850348907,0.012139290360901894,0.0070984631072427955,0.07173376197163375,4.324470948694636,0.7318173069502193,0.16922701427121903,-4.411307949680254,29.934273667143568,39.47383121084761,0.7583321088660246,3712.1701758074933,1.3186834479359637,4.276597987185363,208.21395137745114,0.5957446808510638,0.6014492753623188,0.8554216867469879,0.14705882352941177,48.58774038461539,48.42925141677899,48.74532004310838,50.0,0.5231530533615875,0.47684694663841265,21.6539992484815,20.6734633366288,0.46358601116909265,0.5364139888309072,26.876607005181974,28.910747938292605,0.48533783010839454,0.5146621698916053,24.40540603600188,25.131886446130792,0.8714054454383737,1.4349827449176153,1.2700846420207639,1.1530699025255542,0.03420381122688099,-0.09316285821967174,-0.5815443529963336,0.0013779401424741371,0.15228932931342204,1.4219713050320664,4.623057726895752,2.3603726440392094,3.7335001684799423,-6.109183534563531,-7.29423543973823,-0.20298282964276376,0.033545505768846046,2.404882862338094,0.8278301118104059,1.197458123304742,5.980521721174953,0.8643844727238412,1.2288379939974432,1.339420698447406,1.619479675063404,1.5346422868937313,1.7189386288007502,2.9771990710246934,0.8101618555913525,Relax
106.85533028887943,562.1843971631206,35.4137993356261,,,,,,,43.09159679433699,43.24459224549275,0.0629932091931584,0.0766502894989342,556.0,19.273799999999998,0.03466510791366906,28.0,0.8218261092677844,543.0,581.0,12.76595744680851,24.822695035460992,452.0,690.0,5.035714285714286,132.8125,,,0.05223538036542345,0.012215838482101839,0.006262664685165405,0.0707138835326907,4.276037248033089,0.738686347798665,0.17275021356244016,-4.405021932985088,30.57854442643511,39.671290692911924,0.7707978211028708,3811.0356528694056,1.297357066434338,4.288013121649733,205.87131726008027,0.6028368794326241,0.6086956521739131,0.8571428571428571,0.20588235294117646,50.793184488836665,50.69841042534458,50.88550617633458,50.72463768115942,0.5651897955101476,0.4348102044898524,22.989597272110117,20.164342771944252,0.46068347939359217,0.5393165206064079,26.926360095780392,29.133870962058687,0.49963476396675194,0.5003652360332481,25.03547933175484,25.05377373429347,0.8562357064353417,0.9846565012296319,1.3634366647576845,0.9560583065464487,0.9931061484140848,0.78008608713796,-0.9137263682334954,0.0023519415973070786,0.13844815454603548,0.8027866727010652,3.6913152678838013,-0.037200531917145785,-0.6217263422489723,1.0,8.192751787008506,-0.6583516356398704,0.019952134267354493,1.3959378975931984,0.7880935332921273,1.107880195598891,5.98487050168621,0.8424494391489854,1.007544348092701,1.3465048275051137,1.4337819315905869,1.493286084877102,1.7150934673109828,2.908071479955529,0.8101618555913525,Relax
106.86252999305827,562.3475177304964,36.13150303615211,,,,,,,44.59700502436074,44.75006473667138,0.06425120036444802,0.07930506247159028,556.0,19.273799999999998,0.03466510791366906,26.0,0.8101777914551791,544.0,579.0,12.76595744680851,24.113475177304963,452.0,690.0,4.40625,132.8125,,,0.05137917773375303,0.020598673978391373,0.01215064644949658,0.08412849816164099,2.4942953991917793,0.6107226309333993,0.24484775585573795,-3.882528575239439,31.643074233837325,39.608753003487294,0.7988909479440405,3937.4922551899663,1.2517352995092974,4.302189822529209,198.3186972160398,0.624113475177305,0.6277372262773723,0.872093023255814,0.21212121212121213,51.62518301610541,51.44313349873383,51.80672355432374,49.63503649635037,0.5896137477778376,0.41038625222216235,24.301389959359003,20.274199502511213,0.45490426731678557,0.5450957326832144,26.714753743131507,29.243379540249872,0.5073950377265353,0.4926049622734648,25.536597478060713,25.161661435631896,0.8852766559560984,2.2040298338592033,1.2986683849370046,1.5386657611376666,-0.8110445987349539,-0.9001470606849078,-0.39110974247547636,0.0018020141069967563,0.32655371379588377,1.2517766316492176,1.7317720568907855,2.945569867798878,2.1176626600946102,0.04209642789619039,-1.0606917093727535,-0.9780693881795782,0.023727228416817736,0.845769517440132,0.7969822078875439,1.0498221244986778,5.936551998194671,0.809082746295969,0.842603569712276,1.1535321558419565,1.373624365117323,1.4341700206271435,1.7385422860411284,2.71073555646489,0.7088916236424334,Relax
106.41616218006199,563.8723404255319,33.865880652072605,,,,,,,40.46206336098755,40.58661515706259,0.0600594819503212,0.07175748916936137,557.0,17.7912,0.031941113105924596,25.0,0.8369785878177728,547.0,579.0,12.056737588652481,21.27659574468085,464.0,692.0,4.2727272727272725,117.1875,,,0.052557411062997716,0.02613398982963654,0.02029585946210928,0.09898726035474353,2.0110749030519792,0.5309512645834038,0.2640136693952272,-3.644518519577402,28.699070802967668,36.70772137900476,0.7818265401617194,3309.59715861101,1.2790560931752866,4.226745244994494,187.8049387855871,0.6099290780141844,0.6131386861313869,0.8452380952380952,0.21212121212121213,47.05882352941176,47.198855311527645,46.901851904814016,50.36496350364964,0.48770314783708907,0.5122968521629109,20.052449212613915,20.5518295497439,0.4456306853049129,0.554369314695087,24.504450639456,27.331094154773744,0.4616016207647282,0.5383983792352718,22.38938164137183,24.180223381296894,0.6015103368604683,2.2496410584797677,1.17233884783339,1.0430022450447252,-0.20468859447125354,0.29909897154374976,-0.557492106263417,0.0020877365063733384,0.3591940877824698,1.539026102269419,1.395255495273556,2.3813603978700337,1.6837326502332557,3.296487727653016,1.9002895042528154,-1.0,0.001641786493977092,0.10268139531732848,0.8009041199974645,1.104152469043725,5.896059048233346,0.795483421185914,0.9536710580264215,1.166914666361071,1.3271230403780254,1.4240034916311186,1.776349550083769,2.1124650881756692,0.8101618555913525,Relax
107.7374939989272,557.2746478873239,30.377797128590082,,,,,,,41.72809656038952,41.87598688519371,0.05451135673182859,0.07487887116089763,555.0,17.7912,0.03205621621621622,23.0,0.7279938370691528,543.0,573.8,12.676056338028168,21.830985915492956,464.0,677.0,4.176470588235294,109.375,,,0.04868014631462667,0.01816341828402178,0.01436363571801132,0.08120720031665978,2.680120313996745,0.5994560349920088,0.22366758382502108,-4.008345692023319,29.6107942953994,31.236452382541913,0.9479563790652777,2905.7726642000466,1.0549008605079901,4.170231743824171,131.8054419902413,0.5985915492957746,0.6014492753623188,0.8313253012048193,0.18181818181818182,49.40957116221256,49.40294784033903,49.419016711339786,48.55072463768116,0.49440765088752564,0.5055923491124742,20.821005876620987,21.05519956142493,0.5346451246911196,0.4653548753088803,22.839916368766854,21.30854705780158,0.5156002286042907,0.48439977139570906,21.85378760588825,21.182252079110626,0.5287786737123842,2.2228896220310204,1.1372226136892756,1.0660678137422324,-0.2383285687587815,-0.06148896207998611,-0.5320100464016878,0.0027478064358520096,0.3871877248598658,0.8636995538287554,0.36880115633882893,0.7355176963584915,0.919918274527906,1.0267540809244138,-0.8917532325764541,0.0,0.0010274258892628567,0.03504175590982758,0.8047992180777253,1.1004624279562711,5.886842789312229,0.8782650520828928,1.1965144774227172,1.2687666243116227,1.4450305531563208,1.4315504223407374,1.8326790042324,2.966819982019495,1.057356968377453,Relax
107.70039988371423,557.3591549295775,30.893856615608154,,,,,,,42.07237937629602,42.22062115914248,0.05542899285382978,0.0754852216998425,555.0,17.7912,0.03205621621621622,24.75,0.734302577453322,543.0,573.8,13.380281690140844,23.239436619718308,464.0,677.0,4.303030303030303,109.375,,,0.04908206274167689,0.01883108678551341,0.011687186684007377,0.07960033621119768,2.6064381360843862,0.6166062240170831,0.23657044281258163,-3.972246222337911,29.854487527537877,31.49676733545185,0.9478587821276037,2954.101925163183,1.0550094791075924,4.177395585627052,132.91755240059234,0.5845070422535211,0.5869565217391304,0.8271604938271605,0.15151515151515152,49.17279411764706,49.219779011435875,49.12461901523171,47.82608695652174,0.48806804977923096,0.5119319502207691,20.857766624723478,21.36159771980685,0.5280053450411898,0.4719946549588103,22.88680354904875,21.638867250640367,0.5091041676024192,0.4908958323975811,21.89580102741367,21.50067944314427,0.6625438703547171,2.6445470092939978,1.1767756107545828,1.419666444784458,-1.159079370516098,-0.959228312173591,-0.40815408719290697,0.0020065539798829637,0.4555513095027395,1.1126833217688916,4.006659603433853,1.8254238769476077,3.1160131234858177,-5.10402706382764,-6.059035188495589,-0.17788897129366105,0.0125057033442174,1.4280517383372298,0.790472262844514,1.11523316990415,5.827755750399812,0.8514920016378064,1.3115680829153156,1.259106567917002,1.5253332218899078,1.4151392063585653,1.814128186702863,2.519739478642657,1.0070066365499553,Relax
107.68344012713348,557.4225352112676,32.63582071171369,,,,,,,44.81957525725935,44.97660091861658,0.0585477239439996,0.08040502926612463,554.5,22.9803,0.04144328223624887,27.75,0.7281599730561419,539.0,575.0,14.788732394366196,26.056338028169012,464.0,677.0,4.896551724137931,117.1875,,,0.0449955633436157,0.02685742281626816,0.01845300883990045,0.09030599499978431,1.6753492563836339,0.49825665885994797,0.29740464978357534,-3.617213041251846,31.803259504274887,32.638496113813645,0.9744094640075877,3261.0063551012054,1.0262626102656707,4.2203217551285865,133.98267286763337,0.6126760563380281,0.6131386861313869,0.8571428571428571,0.17647058823529413,49.02015677491601,49.10188488491445,48.93256971285397,47.44525547445255,0.4808819375794378,0.519118062420562,22.05553056653656,22.915606036061973,0.5158477383363059,0.484152261663694,23.441797225103223,22.710208528953924,0.49881688551991676,0.5011831144800831,22.759221051194675,22.81313844507778,0.4749121396099822,2.569930037603817,1.2038476160131644,1.2619628621341517,-0.42923505700213127,-0.4112062470379615,-0.477386448163712,0.004864718459335231,0.5925634610986182,0.6051909022190973,1.8150367413973163,-0.5988788664635409,0.3086395042351172,1.096520526582858,-4.709431214899319,0.0,0.008445219079431049,0.4686112540375119,0.7829425485144266,1.1519273474358314,5.924892081270608,0.883288237548046,1.1435168063218117,1.35650381927452,1.6563055653957275,1.4898557074853214,1.841830526641361,2.4690456816051256,1.057356968377453,Relax
107.98052061440538,555.8531468531469,31.975553611469692,,,,,,,41.463712287007276,41.60002862235171,0.057525182312078274,0.07459472438313233,554.0,22.238999999999997,0.040142599277978336,29.5,0.7711695805271466,537.0,574.6,13.986013986013987,25.874125874125873,468.0,677.0,4.931034482758621,117.1875,,,0.03555313057242663,0.02694434403034041,0.020089320338759372,0.08258679494152642,1.3195025468941601,0.43049413162962874,0.326254869793866,-3.6139818726567783,29.415662336419363,33.61690488543696,0.8750258965441641,3106.606378962967,1.1428233198004882,4.199256339633311,153.67273137036926,0.5664335664335665,0.5683453237410072,0.810126582278481,0.13513513513513514,48.06110458284372,48.10075038784421,48.022114658088356,49.64028776978417,0.45223076040830373,0.5477692395916963,19.786448546904285,21.776426840908652,0.5135672465427971,0.48643275345720277,24.091086361496764,23.44601996074004,0.48696154397949376,0.5130384560205064,22.044092044994574,22.626628316619193,0.6667892493179507,2.3479731443525256,1.2257600098265404,1.3495835954216269,-0.3185915494270821,-0.3102784965617691,-0.4472636278260194,0.002908841929060763,0.44808664453224867,1.102946616921166,0.8711999468208469,1.16984199875902,1.3795745911202866,-1.0392278655820775,-1.735362831214458,-0.2592600950830914,0.0019631794715702223,0.05438632418369883,0.7866680332869147,1.1738357099056973,5.962846665959685,0.9091904380066306,1.1761053542729156,1.3080803204772535,1.6366857356874562,1.5401938306167962,1.8359834074799315,2.569029234973715,0.9012425458881889,Relax
108.02449468905917,555.9440559440559,35.22618588728933,,,,,,,47.39242822984624,47.559935426747835,0.06336282492933805,0.08524675769645298,553.0,22.238999999999997,0.04021518987341772,31.5,0.743287212810611,536.0,575.0,18.181818181818183,31.46853146853147,468.0,677.0,4.931034482758621,109.375,,,0.04480189488554866,0.029949412548087934,0.018239306635863643,0.09299061406950024,1.495918987179231,0.48178942932954694,0.32206919857206284,-3.508245569034148,33.629952853047705,34.9809186395133,0.9613799225689977,3695.7904723194115,1.0401715040270465,4.274677451488512,145.5446190140412,0.6013986013986014,0.6014492753623188,0.8554216867469879,0.19444444444444445,49.72623195619711,49.79177619194735,49.65520144697271,47.10144927536232,0.45950623632179294,0.5404937636782071,22.796820731430795,24.72429534166432,0.5442031292771796,0.45579687072282066,25.80546728857759,23.616573140114998,0.5035215142391608,0.496478485760839,24.347660847018147,24.176779221230493,0.4928252400553781,2.2173159654379537,1.2240608494941112,1.0432883852131263,0.34275530512657326,0.4979010398413567,-0.5815276068448277,0.005777562767687359,0.5263453247384283,0.7074860004654164,1.1596655582479967,1.2761806571594958,0.6963478780354975,2.7434026044171933,0.724343587315718,-1.0,0.0005588573465065853,0.05312233316316041,0.731280417051904,1.0116009116784797,6.052041683457331,0.906795438807649,1.1782957376991585,1.4145812898344892,1.7060334167113347,1.5193117551359197,1.8723075233898698,2.5406780103258835,1.001380606542432,Relax
108.4400292571804,553.7412587412588,32.909117981066224,,,,,,,44.91996011687242,45.07893386819876,0.05943049657501383,0.0811208473411979,552.0,22.238999999999997,0.040288043478260864,29.0,0.7326168121130011,533.4,572.6,15.384615384615385,27.972027972027973,468.0,677.0,5.296296296296297,109.375,,,0.04379679143597552,0.03120730139546049,0.013472164073142757,0.08847625690457878,1.403414889386954,0.4950118028072792,0.35271950337046265,-3.467103192459623,31.875619826863268,34.00521151454341,0.9373745495813383,3405.2891267844525,1.0668094204676586,4.2391241016397565,145.10831995484082,0.6153846153846154,0.6131386861313869,0.8571428571428571,0.20588235294117646,49.89010989010989,49.90585577118605,49.87498378562012,48.9051094890511,0.4687918807236989,0.5312081192763011,21.82473708744667,23.232253197924695,0.5439940313322814,0.4560059686677187,25.08086715458075,22.963112004323552,0.5088212916386071,0.491178708361393,23.50924335407137,23.098074612135864,0.6384553042855323,2.320291773417627,1.2617385277769158,1.221358029023627,-0.13182937517202653,0.0789331085810725,-0.5174031986907452,0.0029184732319271385,0.44207543255724346,0.9141566417305838,3.7324946726253856,1.3133294904971677,2.773843700957543,-2.6556956785262376,-3.6425751243547704,-0.10870293501770237,0.02300531969395482,1.700877306583067,0.7432810454659529,1.142454926532286,6.099278658996936,0.8804166056952105,1.2662946389983674,1.3483700147823865,1.7867784097298958,1.5643041285765158,1.828229354444156,2.8714427530552205,0.9012425458881889,Relax
108.48727129659311,553.3146853146853,32.455043571767796,,,,,,,42.07295809444472,42.21632397768418,0.05865566997071425,0.07603802901149581,551.0,20.7564,0.03767041742286751,27.5,0.7713991371586761,533.0,572.0,13.986013986013987,24.475524475524477,473.0,677.0,5.5,101.5625,,,0.02700262646114779,0.010514579251083343,0.007338599168531865,0.044855804880762996,2.568112885578911,0.6019873354837117,0.23440844009005085,-4.554992484790369,29.851448961388726,34.381598584804465,0.8682391218011045,3224.34388598487,1.1517564400064884,4.215411464379321,158.39691035106605,0.6083916083916084,0.6058394160583941,0.8433734939759037,0.18181818181818182,48.567208271787294,48.68311428207717,48.45346430826146,47.44525547445255,0.4225748829363581,0.577425117063642,19.407719455620878,22.686656808862793,0.5594520489082323,0.4405479510917675,25.71624175543955,22.820368779281722,0.5006103475843617,0.4993896524156385,22.78140321064857,22.753611014359198,0.526612278619039,2.9307288016788244,1.2768108630400503,1.311983410260661,-0.880845485166434,-0.3750608270312853,-0.4879987028480893,0.0042074354486158596,0.6479807280366577,0.8060586000615958,1.7269106457922376,-0.7928919297177711,0.07056339317834764,1.0,-3.10149603479596,0.0,0.006488039300295363,0.452218206702508,0.7698444200240937,1.1535280462642243,6.085292645010921,0.8712202142922848,1.2254469863052175,1.284790143058018,1.7921157539558346,1.562890501116822,1.8255970543364777,2.5945078073976,0.9513115762153104,Relax
109.06189730859931,550.7847222222222,32.32227645397296,,,,,,,41.52150003353642,41.655359968250266,0.05868404686964441,0.07538607800523552,549.0,20.7564,0.037807650273224046,28.25,0.7784467427204375,531.2,568.8,14.583333333333334,25.0,450.0,650.0,5.142857142857143,117.1875,,,0.017523811921637874,0.01604241025849217,0.008130803327216874,0.04169702550734691,1.0923428362244703,0.42026527572213085,0.3847375217607677,-4.132519422340466,29.454787506316414,34.09216813722845,0.8639751918315796,3154.7168708793024,1.1574406411832907,4.205930498286039,157.83864379232898,0.6319444444444444,0.6304347826086957,0.8735632183908046,0.25806451612903225,52.10603829160531,52.16593315575636,52.04973905783965,47.82608695652174,0.5116108332623501,0.48838916673765,21.0742316452254,20.590405259061665,0.5399611546690135,0.46003884533098643,25.05162374552351,23.123409696880294,0.527839892109416,0.4721601078905839,23.14851066185357,21.89357057154191,0.6118905968800211,2.5412321663546065,1.148474735609279,1.3407763694053139,-0.9905095137901352,-0.8110702954725371,-0.42432740450004164,0.001856895529211555,0.4332246414969375,0.7735802654158931,3.6564841137142436,1.9838687253801854,2.601822322273015,-4.170543970584127,-5.117039479267942,-0.33099787181486906,0.01286626228611166,1.298996813122106,0.7272105343112578,1.1164018302316079,6.083517168031092,0.8465782454872298,1.1598736325710133,1.2227299583379103,1.6753257332084752,1.5451372279400641,1.82724493832142,2.436598314645881,0.9460317710236384,Relax
109.15493486382745,549.9444444444445,28.864471780334576,,,,,,,34.98131369306058,35.1042600151389,0.05248615941469061,0.0636088136655309,547.0,19.273799999999998,0.03523546617915905,25.25,0.8251397312748883,530.0,564.0,9.722222222222223,18.75,473.0,650.0,4.9655172413793105,93.75,,,0.02629110105840807,0.043961699032078236,0.016798350301800973,0.08705115039228728,0.5980456087291763,0.30201899618706773,0.5050099721137429,-3.1244365006922643,24.82246030524049,32.515716827946775,0.7633988337574017,2535.642546119732,1.3099312649956014,4.111058140248196,170.37341630668433,0.625,0.6231884057971014,0.8488372093023255,0.26666666666666666,49.92630803242448,49.954204382696666,49.89897814286206,48.55072463768116,0.45194527624751424,0.5480547237524859,16.687369770552667,18.376251514340726,0.547099496342804,0.452900503657196,24.05063183407826,21.882389019868064,0.5120637584076727,0.4879362415923273,20.699048305145983,20.205513714518027,0.6242230610121889,2.253924483505209,1.2961521708632056,1.034282012888422,-0.14667264874637098,0.3576684794552263,-0.6161840868632538,0.004123177819655818,0.4199527292946044,1.0849759222436384,0.8760883847139858,1.4328060251160712,1.5230201146006312,-0.6491374430219192,-1.6944053320326231,-0.39702626919998263,0.001006777896387175,0.08262571585496604,0.8008764512551547,1.244154593958768,5.963065932142574,0.8495161020040631,1.151809999561618,0.9813686359951926,1.5480180361237523,1.5785847195763083,1.772823517511345,2.741515389219508,0.8464494793369396,Relax
109.23057707632678,549.4444444444445,31.374074589261696,,,,,,,35.86425456139797,35.96935698588092,0.05710145021301421,0.06527366856472835,545.0,17.7912,0.03264440366972477,25.0,0.8748006886787709,529.6,563.0,10.416666666666668,19.444444444444446,473.0,712.0,5.142857142857143,101.5625,,,0.021562601124007364,0.07052277014397844,0.02375882758831811,0.11584419885630391,0.3057537456340047,0.18613449216178846,0.6087725655684898,-2.651819640545322,25.434176239636113,33.86953535254857,0.7509455318737426,2706.305297768579,1.331654504295168,4.139346897662151,180.41007724242291,0.6527777777777778,0.6521739130434783,0.8666666666666667,0.28125,46.83085838464326,47.182017810355944,46.43866365186334,51.449275362318836,0.4246274458634394,0.5753725541365609,16.5834424466177,19.30390750781879,0.4128919416448656,0.5871080583551344,21.7634349742006,25.951846237238687,0.4171266916145522,0.5828733083854478,19.347579503086937,22.870714551492508,0.5863435557968355,2.548100207472813,1.2111126276436177,1.1086312521864294,-0.4532453561523315,0.21138029716032536,-0.540218738319883,0.002426534010268006,0.448329018627241,0.7682041145370252,3.841881565008157,0.5826476153142699,2.1977564753818237,-2.542373917558365,-2.629206260717954,-0.07960472421170939,0.008768237774248129,1.1569194623303163,0.775503629342968,1.0391508634467106,5.914076460528039,0.7696630234463069,1.0599434835364268,1.0464836011946632,1.3683646246296082,1.4510824522060934,1.8155935276721893,1.9725451473476954,0.8464494793369396,Relax
110.07834630964499,545.1095890410959,29.83844391053866,,,,,,,41.30350239803917,41.44123268296353,0.05473843151984827,0.07577100683680194,544.0,18.5325,0.03406709558823529,24.5,0.7224192181812457,528.0,559.0,12.32876712328767,23.28767123287671,449.0,682.0,5.214285714285714,132.8125,,,0.030878701544780625,0.08145822902728259,0.03441226589688262,0.14674919646894583,0.3790740593493446,0.21041819844863674,0.5550846681775207,-2.5076649173949237,29.303376650853096,29.637564021852825,0.9887241957283224,2728.412591761819,1.0114043980317196,4.14288015511648,119.90225039459445,0.6575342465753424,0.6571428571428571,0.8804347826086957,0.23529411764705882,48.51363775666566,48.41366152211585,48.604817734442975,50.0,0.4358746316202242,0.5641253683797758,19.348862297877417,22.01214942303959,0.5359172147514899,0.4640827852485101,21.696583843520784,20.190182036586446,0.4864565723680746,0.5135434276319253,20.556266960481288,21.12082115937636,0.5088462756540748,2.8746809938261464,1.1239091253250675,1.3890274266185134,-1.385150923106421,-1.1883445605353735,-0.40777470548459754,0.0025171272649615875,0.5593873957623267,0.6119456181932958,2.4381344168656542,1.6311210118311052,0.7030308864485522,0.4462590641555453,2.6064408109439956,-0.880655848571163,0.00260658916366438,0.3687672983745511,0.8079159658325805,1.2258555155754438,5.910480939691579,0.8365974303803753,1.1479571312300463,1.1148695205701944,1.4519024043607904,1.516382922770271,1.9030214945382815,2.8501281506000273,0.8371713527463034,Relax
110.46787285599596,543.4589041095891,29.276123427268725,,,,,,,40.58707115360243,40.72616478486884,0.053869985763201636,0.07468287086049473,540.0,18.5325,0.034319444444444444,25.0,0.7213164831843313,527.0,557.0,11.643835616438356,23.28767123287671,449.0,681.0,5.0344827586206895,125.0,,,0.023661901520132717,0.07399302123517314,0.03450567294389973,0.13216059569920557,0.3197855841691845,0.17903900474228077,0.5598720317785153,-2.6037844978580074,28.797747291101533,29.774614724498736,0.9671912653635975,2693.7329556611458,1.033921661424505,4.137324649518298,123.13847649691306,0.6712328767123288,0.6714285714285715,0.8936170212765957,0.28125,49.183417085427116,49.21872337840486,49.15117298246231,52.142857142857146,0.4513187641296155,0.5486812358703843,19.34715741394585,21.33219397999184,0.5321851698202138,0.46781483017978615,21.720885916357382,20.364940387855906,0.49309870185003357,0.5069012981499664,20.56829337829724,20.854175804870888,0.4503047551488257,2.7443098700467736,1.146756232640017,1.1752999599978171,-0.9170758714957898,-0.48906068850812845,-0.48959894155199246,0.0034207962036355982,0.5404904046417899,-0.204466993985826,3.3470892969702613,0.812307318859649,0.6924011018402179,0.10964202598503547,0.9659493177902698,-0.5358240269024099,0.0161245801882397,1.228870515882766,0.8445298598513582,1.2581393255317483,5.856370429212882,0.8510547369969784,1.1004060835070681,1.1886626432894651,1.4940497539066329,1.5063208681057065,1.8670121217044666,2.823085335596588,0.8864167264372624,Relax
111.29396267689945,539.3877551020408,31.400080485803798,,,,,,,43.50429045130185,43.65395605296457,0.05821429980341983,0.08065494635315136,538.0,17.7912,0.03306914498141264,24.0,0.7217697417902413,522.4,553.8,14.285714285714285,27.89115646258503,431.0,681.0,4.9,132.8125,,,0.03529097656126666,0.07437119862577049,0.03165610128582338,0.14131827647286052,0.4745247785886555,0.24972691036211525,0.5262673766054111,-2.598686527336561,30.868008350670774,32.12618491516834,0.9608364152849186,3115.4274098292476,1.040759888043448,4.200487746509762,133.74257846229486,0.6870748299319728,0.6857142857142857,0.8958333333333334,0.25806451612903225,49.817876155785925,49.84215521417436,49.794170550868635,50.71428571428571,0.46945060671750094,0.5305493932824992,21.14971264172604,22.483940628966636,0.5284129221864519,0.47158707781354825,23.353171548817492,22.06175731475376,0.5001088814875053,0.49989111851249485,22.27870021136876,22.27384926345228,0.497626987325664,2.799395304812114,1.1370836617738833,1.225170077091457,-0.6081072944310719,-0.08080844488277761,-0.46853377043029437,0.0031228527851017806,0.579571935823206,0.979421047018431,2.2681019791528434,1.106430052449424,1.5724311941950664,-2.369002204465165,-1.7767915077415428,-0.29454136276548815,0.0010759413631318009,0.2285683953034612,0.7997026800963871,1.0874389880699844,5.834364077064898,0.8601614452678937,1.155484832553285,1.2398269494490788,1.436225321532958,1.4545190153327372,1.902252071724794,2.9291112796150167,0.9305698949108225,Relax
110.06374173196714,545.1862068965518,46.70637985907525,,,,,,,51.567445049070336,51.74733110242282,0.08567050902653836,0.09458684830384048,538.0,19.273799999999998,0.03582490706319702,27.0,0.9057338368156612,520.8,557.0,18.620689655172416,33.10344827586207,449.0,786.0,5.0,117.1875,,,0.04594133581079415,0.08803544819882289,0.03469739692649901,0.16867418093611605,0.5218504221962764,0.2723673270907659,0.5219260452918137,-2.430015725173134,36.590888730828716,54.115857243923934,0.6761583497771737,6220.8162452186725,1.4789435053631261,4.50081748300255,320.1371824322375,0.6551724137931034,0.6546762589928058,0.8791208791208791,0.20588235294117646,50.173090237710596,50.1546453888672,50.18528280033776,51.07913669064749,0.4913494809688581,0.5086505190311419,25.64892069595001,26.0965796328076,0.5690365191869073,0.4309634808130925,40.822031360195865,35.52587452649042,0.5446623177880077,0.45533768221199244,34.090360640802466,31.169851053569452,0.48321187832825363,2.368174928018352,1.1324540386914552,1.446277770907235,-0.7378478817015619,-1.2958047388411722,-0.3674828753134457,0.005363921178067588,0.5389090048728015,-2.2929426146875005,9.956000888230793,0.4102449248759824,-2.78916782213666,0.27363395716184336,11.122575642254445,-0.8213552090774457,0.06927011501594639,8.72502676459961,0.7264045481251316,0.8726156683714933,5.997569845645516,0.7375566400376755,0.9594010135211003,1.1591364036002607,1.1527698907811468,1.2803836560812456,1.86613745366071,2.7529259745962857,0.8912990594501298,Relax
109.87929197762134,546.6413793103449,49.19246157555107,,,,,,,55.30301629306589,55.495447621243734,0.08999037291617659,0.10116873399309328,537.0,20.7564,0.038652513966480444,29.0,0.8895077497195938,519.6,560.4,19.310344827586206,35.172413793103445,449.0,799.0,5.0,93.75,,,0.04706385344712603,0.04265631656978336,0.021675420778955005,0.11139559079586439,1.103326710597062,0.4224929650346026,0.38292643600187265,-3.1545799135537154,39.2412073379643,56.79024793132188,0.6909849625136317,7001.095443704389,1.4472094969509153,4.552136108252446,328.74954456162436,0.6413793103448275,0.6428571428571428,0.8888888888888888,0.22580645161290322,49.60410870960839,49.62164064250153,49.58827953728423,53.57142857142857,0.5193352603124793,0.48066473968752077,28.2794496538966,27.20621843767196,0.42734552502416556,0.5726544749758343,37.124733520460985,42.975416474256185,0.4570736221187964,0.5429263778812037,32.999796300072155,35.96571105104202,0.8309515746351633,2.235416660201077,1.2681867630023012,1.8025535593824908,-1.0966223710979666,-1.6815243008165282,-0.2609542749260341,0.003853546277509066,0.45597986694115317,0.3619878759797236,5.449730487085725,1.1920663326704442,3.086853119522586,-6.4256260161346574,-7.262771861666517,-0.152315505997547,0.022995330921906056,2.6350422840766576,0.6952370586117707,0.8617432855749267,6.016569069798366,0.7661365027161551,0.90155209411591,1.1637972913950632,1.1554788285207815,1.2563587590624135,1.8388194031962704,2.717936469458741,0.9408156738640259,Relax
110.25664346071969,544.5103448275862,46.869220716529014,,,,,,,49.62876070273052,49.80135364801669,0.08607590500667106,0.09114383440859139,536.0,16.3086,0.03042649253731343,25.0,0.9443963551149147,521.8,557.0,13.793103448275861,30.344827586206897,449.0,799.0,4.67741935483871,85.9375,,,0.046756430836670346,0.015087993001080161,0.013015292070960971,0.07485971590871147,3.098916524770592,0.6245873400546698,0.20155023056031077,-4.193856016964409,35.21487487678201,56.00111606030722,0.6288245191195717,6195.447834394942,1.5902687786413252,4.49904281453618,356.22730575910344,0.6344827586206897,0.6330935251798561,0.875,0.25806451612903225,49.541284403669714,49.43310784154528,49.644021586974105,55.39568345323741,0.531784117245696,0.4682158827543039,25.680255537582262,24.096542420923313,0.41667371325911934,0.5833262867408806,36.148870646186936,42.771300553119076,0.44929314427686207,0.5507068557231379,31.354556076193138,34.71330802191431,0.9010191453412449,2.1958286707078374,1.3576791737614629,1.7947625598432189,-1.0799367547960994,-1.613285285627966,-0.3009483199156609,0.0024464377484862887,0.38859024930845004,1.8315076125058465,1.131184360954416,0.7003232515514304,1.2659154320286383,0.9894184340334065,-1.66505510614102,0.0,0.0017124626082667255,0.13656027662696113,0.7425656082900298,0.8299061176753345,5.895812000803009,0.7295028178370742,0.926780153834271,1.162057931356575,1.1512788771092821,1.2071440680065322,1.7581099752819183,2.095464312694392,0.8912990594501298,Relax
109.91807217691178,546.5862068965517,46.90616907527205,,,,,,,50.410743453707916,50.5818010697138,0.08581659852267297,0.09222834901000124,537.0,16.3086,0.030369832402234634,27.0,0.9304796133059591,524.8,557.6,15.172413793103448,29.655172413793103,449.0,799.0,4.393939393939394,85.9375,,,0.04623873712127981,0.008773862363054975,0.01048776496461011,0.06550036444894489,5.270054989235085,0.705930990007257,0.13395135182635323,-4.735978163270778,35.76673454102358,55.51828253826342,0.6442334471779275,6238.284639934413,1.5522323536297475,4.5020352967876285,344.70909749539976,0.6482758620689655,0.6474820143884892,0.8888888888888888,0.3,51.26852549610651,51.19232214109508,51.329765113445006,53.956834532374096,0.5448257769737578,0.4551742230262422,26.402810297549603,24.13293602938941,0.428500629131272,0.5714993708687279,36.34224523738015,41.97047661278778,0.46262399433439044,0.5373760056656096,31.763714994489163,34.23389773676938,0.9438690750135799,1.484002787200256,1.3209554698203108,1.6045052159018602,-0.45253487849779717,-1.2898043730741022,-0.30892910139576,0.0021056533374816575,0.1997074358858528,1.2810746393874393,1.6031676727267428,1.372391541092267,1.9056106756265203,-2.5874036728356486,-2.8294387605564113,-0.16739652775849123,0.0016697488623281193,0.16263647952617263,0.6821363176473914,0.7460050124243899,5.910453056364486,0.7045941579676037,0.8305184998303972,1.1261472654763194,1.1955332985013316,1.1691656079785393,1.7621184518242645,2.2408154683080865,0.9903322882779219,Relax
109.95558575718198,546.3931034482758,48.559570596863026,,,,,,,53.80623673061619,53.98756655617424,0.0888729566504492,0.09847532187182839,537.0,17.7912,0.03313072625698324,29.0,0.9024896284789274,524.0,560.2,17.24137931034483,30.344827586206897,444.0,799.0,5.0,101.5625,,,0.04379254459227513,0.00823057545917041,0.009188174724048903,0.06121129477549444,5.320714791999384,0.7154324173813621,0.13446171150860003,-4.799899344602675,38.17497441163086,56.64889255733095,0.6738873910552842,6793.914099716894,1.4839274532708422,4.539090161436809,336.2513874528548,0.6344827586206897,0.6330935251798561,0.8636363636363636,0.3,51.38953219082908,51.279668564081504,51.48280714570033,54.67625899280576,0.5663210968682837,0.4336789031317164,28.731759187595628,25.142878428380783,0.420406175339609,0.5795938246603911,36.73042618624819,43.12740219568762,0.46598304630205606,0.5340169536979441,32.974521936166205,35.29969656960905,0.8249020215140286,1.9109918074776258,1.2747725974860336,1.6480375573599704,-0.39565269465465214,-1.1309319588689102,-0.3046747461640768,0.0034635191893231444,0.37216282804732015,0.5145305007422184,3.7972182590746457,1.8050265844618323,0.8954673911830218,0.532752949065225,2.5904396770197686,-0.7395330295026189,0.015867207507059347,1.5157092652456405,0.7059436975801514,0.8128679330856075,5.962085383385331,0.7050697241894022,0.794899497328915,1.1415050608786075,1.2180016687692146,1.1943689054155,1.7955593461146448,2.2807817944246525,0.9408156738640259,Relax
109.65679953818633,547.7222222222222,50.03641253769678,,,,,,,57.71560368817872,57.91749158737678,0.09135362873298937,0.10537385803704402,538.0,20.7564,0.038580669144981414,31.75,0.8669477461940716,524.0,563.4,15.972222222222221,28.47222222222222,437.0,799.0,5.538461538461538,132.8125,,,0.0427765915890033,0.01015089368333349,0.009070448385515729,0.061997933657852514,4.214071482123506,0.6899680209517002,0.1637295484612946,-4.590193529751242,40.95385105074894,57.93262090529108,0.7069221176390547,7453.629404915459,1.4145829859444108,4.579337905758022,327.80199945516904,0.6458333333333334,0.6474820143884892,0.8555555555555555,0.35714285714285715,50.54819552306991,50.45113082801906,50.63164956435391,53.956834532374096,0.5769566659528998,0.42304333404710015,31.108114515868596,26.63756481277764,0.4119699062692952,0.5880300937307047,37.1839843014042,44.42454137556286,0.46694758218600474,0.5330524178139953,34.280923829875626,36.62717389851438,0.8798744669192257,1.0732149646243925,1.2427543895202748,1.246924822037965,0.25819187602468396,-0.4026938695884019,-0.4961140753202695,0.0016972371334683164,0.11666943781595505,1.8982060079831464,2.4521178456389654,3.073949785602947,2.635675236244469,-4.356787430285955,-5.356787430285955,-0.678733069512927,0.02012381212840473,0.9718207832146885,0.6038941426725115,0.6839961253425877,6.137215734217555,0.6472220867062382,0.9382245401532443,1.0473046466589093,1.075350025631133,1.2034930322532245,1.761034134995986,2.2915173829349005,0.8464494793369396,Relax
109.41633942757295,549.0416666666666,49.900723119331325,,,,,,,56.546657509745664,56.744055339823426,0.09088695111663898,0.1029915595533047,539.0,21.4977,0.03988441558441558,33.5,0.8824698986094991,525.0,565.4,16.666666666666664,29.86111111111111,437.0,799.0,5.538461538461538,132.8125,,,0.04564028080567797,0.009978195363998587,0.01095779339994252,0.06657626956961907,4.574001524398739,0.6855337660208154,0.14987615600126633,-4.607353030260263,40.124106322813866,58.16373393141028,0.6898474979293853,7331.747915137815,1.449595748337936,4.57217763431707,337.25560565772514,0.6388888888888888,0.6428571428571428,0.8666666666666667,0.3448275862068966,50.6398537477148,50.584171037809035,50.68594775413226,54.285714285714285,0.5842325575292073,0.4157674424707924,30.669639068032414,25.872656728623426,0.4171635845893512,0.5828364154106487,37.56690999973708,44.40436034800572,0.471035477930882,0.5289645220691179,34.29212364007022,36.33965866730675,0.7993285727248141,1.962682599436389,1.3052783042671017,1.5685010834350093,-0.18178281659937667,-0.6854056764186796,-0.3658862216216236,0.0037996301221495526,0.38899719915595604,1.4951833133761199,1.1820882908058254,0.3947810433093286,0.9858251887122413,1.0,-1.7434299954793238,0.0,0.00629394260664684,0.25687728807761034,0.6110856280849495,0.7148732747378722,6.150411112897347,0.6401807086898996,0.8380525490378595,1.096531355883258,1.1984753374037191,1.2178511930352585,1.7501364414503042,2.15537882039558,0.7468671876502408,Relax
109.46950647977155,548.7655172413793,50.51058934535733,,,,,,,57.47904207428807,57.675706592330805,0.0920440292955576,0.10474244512161178,539.0,19.273799999999998,0.03575844155844155,31.0,0.8787653294582668,525.8,563.4,17.93103448275862,30.344827586206897,437.0,799.0,5.37037037037037,132.8125,,,0.045954510852588816,0.009351491430800144,0.009864145752118051,0.06517014803550701,4.9141370863296405,0.7051466390340431,0.14349348148948687,-4.6722194370865955,40.78288324116277,58.58229900408916,0.6961639255283588,7505.751985670866,1.436443290624464,4.582364319781178,336.60060141512037,0.6482758620689655,0.6549295774647887,0.8817204301075269,0.3548387096774194,48.93006838738143,48.84219864842414,49.028814007895555,54.22535211267606,0.565356392918174,0.4346436070818259,30.66683135660653,26.888984408442845,0.4185367186749679,0.5814632813250321,37.89947497573825,44.67119377370496,0.4664686660641807,0.5335313339358193,34.47335745826881,36.86823182419642,0.9022554410457011,1.3135707924474693,1.2932917815405518,1.4031339345247027,-0.04430477711751024,-0.7324909716280441,-0.4163789621269738,0.0018137018574688885,0.1560299430215777,1.2947322333702156,4.88452756433872,1.7070182795829458,2.1840468909763375,-4.281860906612675,-0.9616716207975622,-0.40233884339682846,0.004375412390544785,1.052768296063698,0.5856333097210666,0.6561983944287954,6.1176381872608045,0.6400737597722603,0.867507092156432,1.0578497231693247,1.134505224099543,1.188427572933532,1.7522471646822504,2.7892365302644846,0.8417824450362337,Relax
109.29467432044223,549.4305555555555,49.753328985543725,,,,,,,56.59011008507193,56.787803481460614,0.090554353926013,0.10299774832845064,542.0,20.0151,0.036928228782287825,28.25,0.8791877045432415,526.0,563.0,16.666666666666664,29.86111111111111,437.0,799.0,6.545454545454546,148.4375,,,0.04412821872475362,0.0108103986319098,0.009893880921309411,0.06483249827797283,4.0820158652149345,0.6806496725693264,0.16674351473484228,-4.527246771793559,40.155040930429834,57.723713799763374,0.6956420210543425,7281.891612212044,1.437520980236876,4.569214320323443,331.91619857739494,0.625,0.6285714285714286,0.8522727272727273,0.34375,49.38954158028103,49.196165424689895,49.5761546078617,54.285714285714285,0.5749679549469482,0.42503204505305175,30.448871946541818,26.17943230966512,0.4123433107269831,0.5876566892730168,37.06668450523772,44.250288525908665,0.46537807942655784,0.5346219205734423,33.91955853948966,36.35554091663678,0.8809609716632305,1.3536967055825797,0.8464175608063673,1.4201631876611007,-0.2565311327629942,-0.9812388591761547,-0.07616383013371157,0.0015974166822222138,0.15177354817797675,1.657585014810366,1.6147686471218798,3.05378369622154,2.2463993726606004,3.874744582784391,2.874744582784391,-1.0,0.020164352182696223,0.6866655646624016,0.6025151160526447,0.7366052913791359,6.13681280720267,0.6471560993037583,0.9372251253218058,1.1331919323244872,1.4675785953384028,1.2056487821715154,1.7517500512913273,2.270902215357627,0.8464494793369396,Relax
109.1579019958793,550.5277777777778,50.28602726090556,,,,,,,57.588545383961204,57.788030900141166,0.09134148955005802,0.10460606659380409,543.0,22.238999999999997,0.04095580110497237,31.0,0.873194954406863,526.0,565.4,18.055555555555554,31.25,437.0,799.0,6.545454545454546,148.4375,,,0.043191637241846846,0.013079032700562638,0.011096574481480761,0.06736724442389025,3.3023571567329144,0.6411370631411772,0.19414528250949892,-4.336744888244083,40.86230852090756,58.18267760433416,0.7023105536460157,7469.069061424175,1.4238715263618666,4.580236585046088,331.3786318732147,0.6041666666666666,0.6099290780141844,0.8372093023255814,0.2647058823529412,50.917938509179386,50.78493973755786,51.03348346632045,53.90070921985816,0.5845596530107476,0.4154403469892525,31.24347819269591,26.339000697567833,0.42006312977126076,0.5799368702287393,37.70951838943648,44.30819558554197,0.47440255109645596,0.5255974489035439,34.62775409076304,36.44831377302055,0.8408553987297143,1.9879762960151484,0.8512286074878637,1.7383621238513243,-0.7100281732144076,-1.517065327442479,-0.053750455605683665,0.0036837495571805435,0.3920997946452023,1.3283339283588003,2.0830759172519158,-0.7166468091617094,0.3248911494642484,1.076190359462812,-0.4134455610355414,0.0,0.022494612448842388,0.8970952466081359,0.6015986074937154,0.7266957287607603,6.153233140373505,0.6577193750234085,0.9802347742634616,1.1049302082895018,1.3289650644701145,1.244490613395539,1.7693323780558263,2.3596813913172094,0.8464494793369396,Relax
108.86723592480438,552.1319444444445,50.95126514591095,,,,,,,60.55535524584963,60.76773583819639,0.09228095867044633,0.10967551480249974,545.5,24.462899999999998,0.044844912923923,32.25,0.8413998223452429,527.6,566.8,20.13888888888889,34.02777777777778,437.0,799.0,6.0,132.8125,,,0.04499932215333064,0.011426722735325197,0.011662309526976392,0.06808835441563223,3.938077714462894,0.660896015765647,0.16782198414684796,-4.47180056710728,42.969278088541444,57.5902295664362,0.7461209724641226,7774.21844822724,1.340265234332473,4.597626849695008,308.7447301004821,0.6111111111111112,0.6142857142857143,0.8488372093023255,0.2571428571428571,50.350804787453555,50.18613146086825,50.505244032882814,55.00000000000001,0.5940225869322276,0.4059774130677721,33.1179071598416,27.378669604196887,0.40670229468621494,0.593297705313785,36.7271408997439,44.35934696143736,0.47369132206848563,0.5263086779315144,34.96911961515137,36.8601628600645,0.8848742641277494,1.1877079768126837,0.8831585509110198,1.3614049679716071,-0.0639302900215899,-0.8292837208966217,-0.09733669690086391,0.0017116006804800956,0.1262487228840722,1.1447749959479476,2.647261522112542,1.6481559709092504,1.025052387433075,0.5579173707990419,3.3640310530058675,-0.7353766631182447,0.0017869507901694998,0.4202886968739149,0.6336318217798858,0.7630010077608619,6.154556949993944,0.6812630255234261,0.8386656097076178,0.9913379802706364,1.1603826635309917,1.2458288518996437,1.7863630826894321,2.81148701095756,0.8464494793369396,Relax
108.82546953373696,552.4615384615385,51.42008283485382,,,,,,,62.27375953610448,62.48995883779166,0.09307450248581171,0.11272053383032,547.0,23.7216,0.04336672760511883,32.0,0.8257102705521092,526.4,567.2,20.97902097902098,35.66433566433567,437.0,799.0,5.72,132.8125,,,0.045143308312917935,0.008707600465430168,0.009780759207166832,0.06363166798551494,5.184356872153273,0.70944719417373,0.13684381914068885,-4.743559017986467,44.187073650270705,57.571715905299286,0.7675135777254718,7991.978136082992,1.3029085465347756,4.609624397067668,300.04272276674607,0.6293706293706294,0.6330935251798561,0.8636363636363636,0.2727272727272727,51.025692093208505,50.85173447117385,51.18174505448887,56.11510791366906,0.5961440330936898,0.4038559669063103,34.11931505136743,28.082641467159917,0.4046977150069497,0.5953022849930505,36.624739956985366,44.419938038719636,0.475673673499693,0.5243263265003069,35.39420317291568,37.16023174804445,0.8229715106811953,1.2558553897033877,0.9069853999197139,1.3604667591199135,-0.09769256358084988,-0.9168276707548988,-0.13890638769539818,0.0020999885886852352,0.15157091969975406,1.0128706843334314,2.9818858015203604,1.116863737545744,2.469585075241486,-2.7110512279669905,-3.350557106930883,-0.046353741311610235,0.01320643025971105,0.9421186952086511,0.602994142580191,0.7363193524251538,6.208548959034982,0.6854789233344136,0.7934351610529906,0.92206482271718,0.9296107084021331,1.2516365319499942,1.7856865562820916,2.48396908204022,0.9012425458881889,Relax
107.98659064312255,557.9014084507043,81.51511280139084,,,,,,,116.8083233214274,117.22343899773597,0.14611024737822195,0.20937090595595528,548.0,37.065,0.0676368613138686,49.75,0.6978536330590207,514.2,596.4000000000001,47.183098591549296,62.676056338028175,418.0,1178.0,9.466666666666667,164.0625,,,0.04999477167895747,0.09529476561405784,0.04268318775348393,0.18797272504649923,0.5246329256051212,0.2659682231376395,0.5069606007493085,-2.3507803951813475,82.88948862930668,80.53564440832037,1.0292273593671417,20971.88516973337,0.9716026210330113,5.028607581057278,312.9945727748266,0.5985915492957746,0.6071428571428572,0.8352941176470589,0.25,49.622385747482575,49.588973458657705,49.69284054301781,50.71428571428571,0.5109375568527365,0.48906244314726355,59.24998493067921,57.967755815502414,0.5024971960086778,0.49750280399132224,57.0893317400251,56.8049137112344,0.5068389666756054,0.4931610333243947,58.17968938043736,57.38928007923823,0.5045943771566002,1.392071385801303,1.2430123426601676,0.6510617872732063,0.9345350958748888,1.145946830341563,-0.925230028736079,0.0035765091160378237,0.23085462567168658,0.9966598994226222,3.2913061024069017,1.1693419209510636,2.642312950626073,-3.9807008764802667,-5.062835639503662,-0.05246610802992788,0.01758888085119951,1.2135087341933832,0.8775565641007512,0.9577279217383283,6.540385675751293,1.105900035162077,0.906451894318353,1.2358482797973809,1.2404605691926995,1.2718975924260874,1.989498877009666,2.4307875821387217,1.107707300204951,Stress
108.07535980391384,557.9577464788732,82.37338216015321,,,,,,,119.43890690336002,119.8543941005406,0.14763372796594418,0.21406442989116653,548.0,41.5128,0.07575328467153285,56.0,0.6896695917252731,512.0,598.6,47.183098591549296,61.97183098591549,418.0,1178.0,10.142857142857142,164.0625,,,0.05491507285318891,0.08880803841899161,0.039671914087464295,0.1833950253596448,0.6183570072125961,0.2994360002159181,0.48424453305009546,-2.421278110344556,84.74985482349719,79.42213789518603,1.0670810062471774,21146.10619571625,0.937135975755866,5.032200518864409,297.7173707720884,0.6197183098591549,0.6285714285714286,0.8409090909090909,0.3125,51.038436237195754,51.03316095710111,51.039075021333524,50.0,0.5282524060917037,0.4717475939082963,61.60232486336395,58.214504819920705,0.49987840863007554,0.5001215913699244,56.15310330372043,56.166760430023444,0.5149864494323904,0.4850135505676096,58.94072208248609,57.19979697792737,0.5445165769600302,1.294942456502642,1.167397797199888,0.7676219310189968,0.9388701342875556,0.9274273663651147,-0.8087209506286471,0.005091297451556914,0.2362019803347706,0.19629845060753232,4.631085863356605,0.7354695381723594,1.4023037519577897,-3.446487666235665,-1.8386709893832434,-0.35600910165329785,0.007670559084842845,1.2625910854228781,0.841325690482094,0.9422912335993016,6.480595358880358,1.0907631691417774,0.8049578172195047,1.2387994031337404,1.257892859374317,1.281284177073355,1.9864647663333486,2.1940452879522954,1.1580576320324485,Stress
107.6415690618356,560.1560283687943,94.03390601935205,,,,,,,136.10536884550672,136.59006944472463,0.16787091677507077,0.24297760258307524,548.0,37.065,0.0676368613138686,50.0,0.6908904976855835,512.0,597.0,47.5177304964539,61.702127659574465,400.0,1178.0,10.071428571428571,156.25,,,0.0665399668282034,0.11715965005104365,0.04354799020093365,0.2272476070801807,0.567942690160081,0.2928082177988604,0.5155594444156488,-2.144217743959093,96.58376434710623,91.08377326003071,1.0603838739900888,27637.26190807844,0.9430547036113704,5.148465124166268,343.5879231821741,0.6312056737588653,0.6402877697841727,0.8539325842696629,0.3548387096774194,50.644079760014115,50.74290036578998,50.57568772159723,49.64028776978417,0.5251621968232328,0.47483780317676727,69.99444993413931,66.55635357679121,0.4999089031757763,0.5000910968242238,64.40008628311492,64.41182063885509,0.5132753850259129,0.4867246149740873,67.2554612461151,65.4928654108632,0.44410589563106667,2.135741833277488,1.0356882788412456,0.946675315563249,0.3898254563686008,0.5924042905083662,-0.5416777729831691,0.004602797895719767,0.4540998882382352,0.8495421514385129,1.2890239281885298,0.17654139115336598,0.4018055001128227,1.0,2.676338858592741,-0.3252444318267845,0.006018864219132912,0.2738597282463904,0.8145737048934927,0.8870861104456166,6.458422983481719,1.0279644190273258,0.7256764510608182,1.1683384842038103,1.1769647264562706,1.2469030922546835,1.9944329574384507,2.183855394731393,1.1646076674125692,Stress
106.44900539026821,566.1857142857143,92.4981497551125,,,,,,,135.11891911260344,135.60501022777123,0.16337068813508626,0.23864770110469155,551.0,38.547599999999996,0.06995934664246824,53.5,0.6845684554213147,521.8,599.0,47.14285714285714,62.142857142857146,418.0,1178.0,10.0,164.0625,,,0.07749787264163085,0.14037856319720954,0.05101114513055632,0.2688875809693967,0.5520634410024462,0.2882166307652983,0.5220715761252903,-1.9634124828283401,95.88722229492816,89.39039773473095,1.0726792219839625,26927.837653377515,0.9322451479487601,5.137171590261141,333.33505824565106,0.6285714285714286,0.6376811594202899,0.8522727272727273,0.36666666666666664,49.480752014324075,49.38276024785849,49.623588421555766,50.72463768115942,0.5168058981613562,0.4831941018386438,68.9338845183021,66.65455505923752,0.4873042474946484,0.5126957525053517,62.40091646017591,64.00600621897556,0.5030885680797195,0.4969114319202806,65.74859241783226,65.3437010822331,0.45305797199539455,1.9109835591429838,1.0396946543294634,0.8675272686316158,0.5922023783971593,0.7424533259766842,-0.5900935985943591,0.0043067517157396136,0.38467454082537017,0.4445646692194822,4.30516557471144,0.9890780434836202,2.597147456575202,-5.047052478821218,-6.198418157954487,-0.1264790784035373,0.03735629504496015,2.3011640377791385,0.8522674084788711,0.8971302341350792,6.420110070408223,1.0350981381060211,0.9041197046202901,1.18569623704992,1.234830367133668,1.235097433834097,1.9999207089667637,2.582687810911792,1.069392452541745,Stress
106.98090983850942,563.950354609929,90.64651330786724,,,,,,,131.61651546389285,132.08011579603783,0.16073491676508522,0.2333831593295634,550.0,32.6172,0.059303999999999996,47.0,0.6887168604059788,523.0,599.0,47.5177304964539,61.702127659574465,404.0,1178.0,9.4,179.6875,,,0.06267493616018614,0.1308622933018282,0.048777695781701026,0.24231492524371537,0.47893808505731383,0.2586507459131912,0.5400504866557831,-2.0336097048444297,93.39474553928277,87.53046437809297,1.0669970301523672,25682.16006588971,0.9372097313684181,5.11660165837903,328.13761202538166,0.624113475177305,0.6330935251798561,0.8522727272727273,0.3548387096774194,50.98146626495025,50.95205628146927,51.009067172797415,50.35971223021583,0.5337713440543426,0.4662286559456575,68.23852579648609,63.77515020893845,0.47292115886426445,0.5270788411357357,60.19405560382164,63.54728840956656,0.5053185651130659,0.49468143488693417,64.34213523389501,63.66132125702896,0.5071765991294896,1.677117623035371,1.045249535745878,0.8223105564571597,0.5789847030138944,0.658196839432869,-0.6329298411909994,0.0031045250468086857,0.29071989180552754,0.7515020614998688,3.8944713867949052,1.1465984948924657,2.4686379132521186,-3.812556870093042,-4.343170455232371,-0.1605343095234107,0.01311066178238889,1.3257603780321423,0.9057590182145536,0.938566374500152,6.373316600502997,1.019098907456107,0.8614584382138485,1.1515826558678257,1.2169785103274728,1.2119049875512278,1.987250642998419,2.2292352817988825,1.1139725514381096,Stress
107.52945557405134,560.6312056737588,90.37006547267721,,,,,,,131.503394850258,131.9737866774676,0.16119342726217267,0.2345631023021971,547.0,35.5824,0.06505009140767824,47.0,0.6872070913118326,517.0,599.0,48.93617021276596,63.12056737588653,418.0,1178.0,10.071428571428571,164.0625,,,0.04226133037825196,0.12558338564902582,0.04681345681196422,0.21465817283924202,0.33652007516632665,0.19687734139944238,0.5850389201955777,-2.0747853135622356,93.31955949850418,87.74822140483663,1.0634923193253518,25725.325299976685,0.9402982812648526,5.117330985139375,330.0380070840625,0.6595744680851063,0.6690647482014388,0.8817204301075269,0.41379310344827586,50.4366017827906,50.323238914940696,50.55168146275214,51.07913669064749,0.5338139807685953,0.4661860192314047,68.18259973391173,63.71742361350187,0.4587000461474365,0.5412999538525634,59.42958728885588,64.55907770707763,0.49856654306742504,0.5014334569325749,63.956011256951285,64.13963122099679,0.6629368722125154,1.0706214121435926,1.0621601397713527,0.7389252275554774,1.0025373701717686,1.1616033947265358,-0.8019133640982353,0.0031116446849221505,0.13947188699128424,-1.0844534721447856,0.799778925931286,-0.892689576101505,-0.886092877430891,0.678392174863375,0.08144991136687185,-0.4917518473458993,0.004157778118610094,0.12782460574954602,0.9222544396247758,1.0086158348350265,6.350301618248836,1.0566849130903706,0.8179486272251435,1.2134915001949378,1.2839924274367522,1.2728581682102258,1.9772038893367994,2.3553999586853815,1.1139725514381096,Stress
107.66296655009019,559.9148936170212,90.80068355325636,,,,,,,132.37832688386504,132.85362185766283,0.16216872347632807,0.23642580040817973,548.0,38.547599999999996,0.07034233576642335,51.0,0.6859180478456676,516.0,599.0,49.645390070921984,65.24822695035462,418.0,1178.0,9.4,164.0625,,,0.041033304656850865,0.14440690357775188,0.06059573588742738,0.24603594412203011,0.2841505748010006,0.16677768284336114,0.5869341737568565,-1.935120244956018,93.94169692074672,88.21268139147217,1.0649454867362007,26033.903876486213,0.9390152007355392,5.122509406956605,331.33219489693363,0.6666666666666666,0.6762589928057554,0.8829787234042553,0.3793103448275862,49.94203157049852,49.791776614316774,50.1121668122338,51.798561151079134,0.5368394322405611,0.4631605677594387,68.8304663177955,63.9328840978158,0.448194927735258,0.551805072264742,59.05606313178943,65.52754051273008,0.4953024320651133,0.5046975679348867,64.12975785916815,64.7351227492164,0.35542956668494113,1.8687838161579378,1.591025636047387,0.8114310945785581,0.7253841283111959,0.6851444021555966,-0.9171667876874113,0.006073026227729848,0.42346085001350675,0.6094287584331617,0.8878377387058831,0.488760865308296,0.5789336876956096,-0.36239651849081955,-0.11671486386121632,-0.3984354702935359,0.0013504612448781057,0.049218987498248865,0.9072643896291352,1.1305298916364146,6.4388847742465165,1.0837999005570174,0.8656059180113107,1.294045464894997,1.3578635218667827,1.3445622935160908,2.016768725852027,2.4146412006331537,1.06333743546365,Stress
108.83855238210504,553.1678321678322,73.39119435359865,,,,,,,108.86989909785653,109.25519796279683,0.13267437129520507,0.1968116957763104,544.0,38.547599999999996,0.0708595588235294,49.5,0.6741183280387885,515.4,582.6,45.45454545454545,64.33566433566433,418.0,1106.0,8.9375,140.625,,,0.038239759282275056,0.1280246768581749,0.06161781768800823,0.22788225382845817,0.29869053545541746,0.16780490204849657,0.5618018722710519,-2.055532245689238,77.2550913593723,69.85192269926961,1.1059837492516165,16953.342965427153,0.904172417249953,4.936225457827631,252.63272718622184,0.6433566433566433,0.6524822695035462,0.8586956521739131,0.3333333333333333,49.90255410811366,49.779491230295584,50.02998308909995,53.191489361702125,0.5413293628277257,0.4586706371722744,56.84054466426669,52.321225504549034,0.43246766093906785,0.5675323390609321,45.93621241599111,52.622765925573326,0.49236318398970874,0.5076368160102913,51.67679909232746,52.47221232212129,0.4110740484940143,2.3111743570830763,1.0457689908517107,0.9404159971653989,0.31742492007374334,0.6135200154197589,-0.5455841825016081,0.005150605914032009,0.5197502046417819,0.5813423029238497,1.1550083037962469,-0.5425987006338122,0.034905451264311216,1.06213460047717,-0.8014190637961653,0.0,0.002910764652125763,0.16264073905177526,0.8527036810443906,1.305698403086461,6.45159013037878,1.121219103068972,0.9173701374581407,1.2874759935557034,1.6004347621826363,1.3600674029085589,1.9728405405920784,2.3942855521276454,1.2016567278509185,Stress
108.91522610714988,553.5664335664336,75.89759218290664,,,,,,,112.10021296357502,112.48975646768386,0.13710656495901527,0.20250543776896446,544.0,41.5128,0.07631029411764706,56.5,0.6770512756079082,510.8,597.4000000000001,49.65034965034965,67.13286713286713,418.0,1106.0,8.411764705882353,132.8125,,,0.03895384754747812,0.1205371282022597,0.051784497794566786,0.2112754735443046,0.3231688702763358,0.18437467867896873,0.5705211597927528,-2.1157974556489108,79.54226961232254,71.82353682820998,1.1074680129241545,17947.941232341716,0.9029606167672541,4.960984748797449,259.4153004512243,0.6573426573426573,0.6666666666666666,0.8723404255319149,0.36666666666666664,50.86694127790019,50.78379112223399,50.93119029469616,51.77304964539007,0.5491065249151412,0.45089347508485855,58.94600245711119,53.414975189248985,0.4332290986071628,0.566770901392837,47.27435334688876,54.07176673779711,0.4970652346817603,0.5029347653182396,53.42984039860241,53.74437427589434,0.5457075845300347,1.4413928554702584,0.9709179828867083,0.834318337850089,0.6353670848632458,0.7772837385719504,-0.594769198083789,0.003424711185626142,0.22220961881704313,0.38642568193798776,8.891948808740477,1.1063091815672341,4.039105957770241,-10.968442416663763,-10.142361245778497,-0.1701739023373403,0.05544656192940781,6.103812411979479,0.8183158417104619,1.3204971865751232,6.484841091932371,1.1878264036808537,0.9275010553673566,1.2613952273118074,1.4718804417591183,1.4269384178401432,2.0011927254487865,2.2868355126648776,1.2016567278509185,Stress
108.97233532980617,552.7132867132867,75.11630628636739,,,,,,,109.98223288011465,110.36730500372308,0.13590465091412404,0.19898604850649554,543.0,38.547599999999996,0.07099005524861877,53.0,0.6829858270676081,512.6,584.2,48.95104895104895,67.13286713286713,418.0,1106.0,8.411764705882353,140.625,,,0.041267830919905726,0.13755438712102586,0.05310163272358315,0.23192385076451472,0.3000110122521693,0.17793698571263922,0.5931015144306677,-1.9837358973835324,78.04146978941657,72.09166384682888,1.0825311225335161,17675.038226499077,0.9237609701785171,4.954330471697469,266.3818613477207,0.6293706293706294,0.6408450704225352,0.8571428571428571,0.3225806451612903,50.67255768286696,50.57441711756427,50.755247394769754,50.70422535211267,0.5391993106841052,0.4608006893158945,57.30820618771714,52.97838445874087,0.4506178039601904,0.5493821960398093,48.39374395491495,53.4345725371721,0.49841524878253385,0.5015847512174662,53.03859420472873,53.206967410708835,0.492026849417674,1.2415427174822056,0.9801557285371594,0.5012592795789017,0.9948443610975901,1.3220311887431442,-0.8857269203990329,0.0023602982478534763,0.16737431394238023,-0.11822633463381967,0.49930914672854587,0.12301671768325861,-0.12663785568101432,1.7970025042316546,0.3636337664865983,-1.0,0.0008638059798332223,0.02038271045890135,0.8198352059986127,1.3275867602931124,6.498827105918384,1.2141933300092203,0.9627683712816616,1.38740988530009,1.5253136857540515,1.3988788022261696,1.9893571526556306,2.342386407342343,1.2016567278509185,Stress
