PPG_Rate_Mean,HRV_MeanNN,HRV_SDNN,HRV_SDANN1,HRV_SDNNI1,HRV_SDANN2,HRV_SDNNI2,HRV_SDANN5,HRV_SDNNI5,HRV_RMSSD,HRV_SDSD,HRV_CVNN,HRV_CVSD,HRV_MedianNN,HRV_MadNN,HRV_MCVNN,HRV_IQRNN,HRV_SDRMSSD,HRV_Prc20NN,HRV_Prc80NN,HRV_pNN50,HRV_pNN20,HRV_MinNN,HRV_MaxNN,HRV_HTI,HRV_TINN,HRV_ULF,HRV_VLF,HRV_LF,HRV_HF,HRV_VHF,HRV_TP,HRV_LFHF,HRV_LFn,HRV_HFn,HRV_LnHF,HRV_SD1,HRV_SD2,HRV_SD1SD2,HRV_S,HRV_CSI,HRV_CVI,HRV_CSI_Modified,HRV_PIP,HRV_IALS,HRV_PSS,HRV_PAS,HRV_GI,HRV_SI,HRV_AI,HRV_PI,HRV_C1d,HRV_C1a,HRV_SD1d,HRV_SD1a,HRV_C2d,HRV_C2a,HRV_SD2d,HRV_SD2a,HRV_Cd,HRV_Ca,HRV_SDNNd,HRV_SDNNa,HRV_DFA_alpha1,HRV_MFDFA_alpha1_Width,HRV_MFDFA_alpha1_Peak,HRV_MFDFA_alpha1_Mean,HRV_MFDFA_alpha1_Max,HRV_MFDFA_alpha1_Delta,HRV_MFDFA_alpha1_Asymmetry,HRV_MFDFA_alpha1_Fluctuation,HRV_MFDFA_alpha1_Increment,HRV_ApEn,HRV_SampEn,HRV_ShanEn,HRV_FuzzyEn,HRV_MSEn,HRV_CMSEn,HRV_RCMSEn,HRV_CD,HRV_HFD,HRV_KFD,HRV_LZC,Labels
77.79210753304397,771.7669902912621,43.74596987230403,,,,,,,47.683186497022234,47.91525311699577,0.056682872450653086,0.06178443376935151,768.0,41.5128,0.054053125,57.0,0.9174296662207322,734.4,806.6,15.53398058252427,57.28155339805825,675.0,887.0,10.3,125.0,,,0.033999092996853136,0.011955879019787181,0.007155108424579112,0.053110080441219426,2.8437133681751097,0.6401627094969714,0.2251150614057076,-4.42653215339826,33.88120040129757,51.51740578122592,0.6576651111893648,5483.5605967351385,1.5205307123431473,4.446032757016762,313.3351908423936,0.5922330097087378,0.6078431372549019,0.8870967741935484,0.0967741935483871,49.18401800787846,49.24330252831336,49.1233191904928,46.07843137254902,0.4407889063281532,0.5592110936718466,22.49598424009701,25.338305053225184,0.5619756990369704,0.43802430096302936,38.62004305426181,34.09597297210411,0.5253820019162606,0.4746179980837393,31.60361555616484,30.03801820930228,0.9210412484792889,1.3910524476607402,1.1272436049794314,1.2294223652439362,-0.3500997439543756,-0.40941137851748044,-0.42654571692366205,0.00019209706341963975,0.09598858984778144,0.6654840009074872,2.2335922215070942,6.222671036786933,1.2409660989405218,1.0134599273499514,1.3608633979113935,1.804205155965731,1.9459837810151626,1.880960045714442,2.875870781423389,0.9737622126965852,Relax
77.91302291404769,769.7961165048544,45.99773208887181,,,,,,,50.87325658235491,51.11103876686898,0.059753136061166064,0.066086663067797,767.0,41.5128,0.05412359843546284,56.5,0.9041633105285783,734.4,806.6,15.53398058252427,59.22330097087378,632.0,887.0,10.3,140.625,,,0.03749720152185944,0.014164132176702586,0.010409091342064154,0.06207042504062618,2.647334905807748,0.6041073747653067,0.22819454140086706,-4.25704241289925,36.14096210554157,52.66818149759529,0.6862010625370022,5979.95486251821,1.4572988218683744,4.483668015850996,307.01311538558133,0.6116504854368932,0.6274509803921569,0.890625,0.09375,48.391457150581246,48.24592934537251,48.519598688088564,46.07843137254902,0.38744625641608427,0.6125537435839156,22.501925110162606,28.293458642947805,0.5398528966932701,0.4601471033067301,38.69777912835122,35.72700984964992,0.4910453338707258,0.5089546661292742,31.653236352149065,32.22529313115072,0.9435126641411519,1.2077355472919633,1.0990804873874724,1.2130203768547516,-0.45958386832396947,-0.6183824412025185,-0.40565824635802095,8.372363445405934e-05,0.06188604350083216,0.6818692543524194,2.2082744135228043,6.164418609602467,1.2504801364088192,1.284897562788828,1.2112420017993406,1.6506419547947473,1.8612028201562645,1.8523879065931848,3.4989696991482178,0.9737622126965852,Relax
78.17099065335431,767.4563106796116,52.162035758689164,,,,,,,62.04757820241104,62.340832075107365,0.06796743349793775,0.08084835232831111,767.0,51.891,0.06765449804432855,69.0,0.8406780291815202,726.8,811.8000000000001,21.35922330097087,64.07766990291263,614.0,887.0,11.444444444444445,156.25,,,0.04900895400133042,0.019419952665445484,0.015416526608699434,0.08384543327547535,2.5236392099211216,0.5845154838703119,0.23161610485857898,-3.9414542535346224,44.08162510512023,57.54564671656715,0.7660288418034117,7969.295755792907,1.3054338758913637,4.608390054584182,300.48814653553353,0.6310679611650486,0.6470588235294118,0.8939393939393939,0.13793103448275862,48.53735373537355,48.33436891580453,48.71542422192554,47.05882352941176,0.4758078891746671,0.5241921108253329,30.41340572058237,31.922322181591777,0.49695202482911766,0.5030479751708823,40.56670252556478,40.814753487314995,0.48913082413753517,0.5108691758624649,35.85130821408346,36.63931464762706,0.8768143140023197,1.480610425743372,1.143630330846565,1.287367206997019,-0.24537667132015706,-0.49587048669606837,-0.40292052949830615,0.0005133631922165432,0.13722401354073177,0.6921953670697993,1.8870696490323797,6.164418609602468,1.2286636157442536,1.1315002242878405,1.2483031047379696,1.7143422985361665,1.8537145566746136,1.9041840099600846,3.891413070295949,0.9737622126965852,Relax
78.27666453622155,767.0291262135922,52.347716827691244,,,,,,,61.852211588845975,62.15372020212535,0.06824736511128801,0.08063867391082902,766.0,54.856199999999994,0.07161383812010443,74.0,0.8463354095673321,723.4,813.0,22.330097087378643,65.0485436893204,645.0,887.0,12.875,125.0,,,0.0468997606180101,0.024002297485415453,0.016368184901194526,0.08727024300462008,1.9539696417190004,0.5374083880518956,0.275034154358259,-3.7296057246569,43.94931703089414,58.95714965990291,0.745445078068018,8140.263856413309,1.341480451640671,4.6176085921884775,316.3594550128528,0.6019417475728155,0.6176470588235294,0.8571428571428571,0.1,50.78626799557034,50.720332638825575,50.851695935473494,47.05882352941176,0.49932986692156495,0.5006701330784351,31.057994299390778,31.09964821042002,0.5357566031744248,0.46424339682557514,43.153919309458075,40.17069509297757,0.5227439960213915,0.47725600397860857,37.595609861180655,35.9226451076814,0.846641176417987,1.697539883607467,1.1611878449641566,1.2996327800552594,-0.4200341466973594,-0.5094465791027369,-0.41844378065692844,0.0006228807630659854,0.1767765026551028,0.6897048151337617,2.0149030205422647,6.157089604727094,1.2450207506893867,0.9545831668789194,1.4107246900744095,1.7081506179500259,1.8998654075440073,1.9012750802317173,3.634820800561295,1.0386796935430243,Relax
78.92437891512878,760.9902912621359,54.85319000601426,,,,,,,67.87871247926803,68.20828200469667,0.0720813269707263,0.08919786922207404,758.0,53.373599999999996,0.07041372031662269,72.5,0.8081059289798387,716.4,813.8000000000001,27.184466019417474,67.96116504854369,643.0,887.0,11.444444444444445,125.0,,,0.049297773594553465,0.028638473831515653,0.015502601103384389,0.0934388485294535,1.7213827065150018,0.527593975850569,0.3064942931364177,-3.553004226315287,48.230538738605375,60.8070045118914,0.793174061537161,9213.520264324969,1.2607573148093283,4.671395705334442,306.65150292004364,0.5922330097087378,0.6078431372549019,0.8387096774193549,0.1,49.10444757496477,49.13195795659727,49.076240046172295,48.03921568627451,0.4800251932582501,0.51997480674175,33.41873548158456,34.78156732728665,0.5497077471232177,0.4502922528767822,45.08369867396963,40.80382226684029,0.522795455193458,0.47720454480654184,39.68218597376794,37.91246059890116,0.6690459886223079,1.3624607336135979,0.9986957641335683,1.0828271555907718,0.0642610500529397,-0.3675961208385372,-0.438250410172141,0.0009309573908543473,0.14560539861755506,0.6353264215364156,2.2246235515243336,6.249417517390462,1.3011256006965235,1.4873747979704053,1.384555205029385,1.593150901161699,1.9006237023375976,1.9203816260388171,3.4113860775419,0.9088447318501461,Relax
79.44907751587765,755.9134615384615,56.0480221586937,,,,,,,69.29107032788905,69.62851989242664,0.074146082865918,0.09166534775933932,749.5,56.3388,0.07516851234156104,76.5,0.8088779967385619,709.8,805.4000000000001,27.884615384615387,66.34615384615384,643.0,887.0,13.0,93.75,,,0.04047860951011118,0.032263728275704576,0.015483031764272457,0.08822536955008822,1.2546166135608272,0.4588091805852992,0.3656967201184403,-3.4338116433500625,49.23479857991729,62.51439963570231,0.7875753245144984,9669.457368443473,1.26971982091548,4.692372212948305,317.5030892403307,0.5769230769230769,0.5882352941176471,0.8,0.10344827586206896,49.55699940933254,49.56006663900238,49.55285683540582,46.07843137254902,0.48167246005795405,0.5183275399420458,34.170922738262625,35.44728203856494,0.5965265039004134,0.40347349609958655,48.2830767463439,39.70887384098122,0.552556910836298,0.44744308916370207,41.82647164701829,37.63844089252723,0.6962852287195027,1.7774562696492293,1.0750228629563903,1.3241159832530296,-0.6162577206588011,-1.080261242015549,-0.35985977570868943,0.0013361346008115632,0.23469198704302313,0.6615514393416593,1.889397938791971,6.267559429596342,1.2783035078816622,1.4795480975485482,1.460030047689603,1.6288620450035498,1.9349625463233453,1.89983911798616,4.2698060078381115,1.0308368797140142,Relax
79.54687437330439,754.6826923076923,55.60545206611688,,,,,,,69.2263769248104,69.5644317566071,0.07368057149433863,0.09172911692611874,746.5,55.5975,0.0744775619557937,72.75,0.8032408243249859,709.8,805.4000000000001,28.846153846153843,64.42307692307693,643.0,887.0,11.555555555555555,93.75,,,0.04738431513627256,0.04417324980232039,0.018449177559390822,0.11000674249798377,1.0726925310753002,0.4307400988365875,0.4015503849969015,-3.1196358812031257,49.18948142448569,61.36226313264486,0.8016243031674752,9482.513844338595,1.2474671689077772,4.683893595400997,306.1896346714182,0.5673076923076923,0.5784313725490196,0.8135593220338984,0.1,49.74155069582505,49.75645869520915,49.724026685414294,48.03921568627451,0.4864203433507698,0.5135796566492303,34.30686205868624,35.25161656702051,0.5655699235757976,0.4344300764242024,46.14711143819496,40.44467137548236,0.5346055954565208,0.4653944045434794,40.660279625224604,37.93710527477681,0.713943140041537,1.5929115996195526,1.0950136836728284,1.2343674741672575,-0.12453395576144644,-0.5417538899274392,-0.412516306286104,0.0014429843923153892,0.20761916418974768,0.6963798663855716,1.8971199848858813,6.243614958484102,1.2874549364377164,1.4942147035833022,1.305001425935609,1.607328627583922,1.9308051649832916,1.8713496754794101,3.5835424187369136,0.9019822697497624,Relax
80.13854123598318,749.3018867924528,55.7086245885587,,,,,,,68.46758009313257,68.79323748603144,0.07434736995929825,0.09137516039926538,740.5,50.4084,0.06807346387575962,74.5,0.8136496793486993,706.0,794.0,28.30188679245283,63.20754716981132,643.0,887.0,11.777777777777779,93.75,,,0.05478265724660136,0.056116341650710416,0.02409295596236287,0.13499195485967463,0.9762335825023944,0.40582164547175004,0.4157013779750346,-2.880328213850068,48.64416472614944,62.22898898099719,0.7816962081933208,9509.84346425717,1.2792693498043561,4.6851434783010095,318.43055309081086,0.5754716981132075,0.5784313725490196,0.7966101694915254,0.10344827586206896,49.36204146730462,49.334692991711144,49.38784418192815,49.01960784313725,0.486371947503149,0.513628052496851,33.92596577617436,34.86360787190783,0.5587820922114753,0.4412179077885248,46.517244926238334,41.33513026554316,0.5313165579502549,0.4686834420497452,40.711332754982365,38.23652800605447,0.7842707869879119,3.6178543785814696,1.3679430161473096,2.3151321153478426,-1.9870656663178288,-2.4202423719939894,-0.2381903747126722,0.01743887354990536,1.4042340218727851,0.6754365378525584,1.8015156441734197,6.246603945047597,1.247143833846032,1.4333360798114105,1.4237928340180879,1.708645929468219,1.9546101900747404,1.8449622909628505,4.798618669796691,1.0790061106374942,Relax
80.40884142245487,746.952380952381,55.507861701048355,,,,,,,69.53160598439554,69.86829001745112,0.07431245032015908,0.09308706653527389,735.0,45.9606,0.06253142857142857,65.0,0.798311227177833,705.8,794.0,30.476190476190478,61.904761904761905,643.0,887.0,9.545454545454545,93.75,,,0.05297923967477524,0.062642789630858,0.021252889629219517,0.13687491893485274,0.8457356383228108,0.3870631675039848,0.4576644875360517,-2.7703066939544,49.40434166124805,61.46133922388469,0.8038279394024148,9539.311010344896,1.244047327769453,4.686487118291569,305.84325929042245,0.5523809523809524,0.5588235294117647,0.7894736842105263,0.10344827586206896,50.068965517241395,50.068145511410265,50.06668335900441,51.9607843137255,0.4991597106620286,0.5008402893379712,34.90479422936303,34.963503856761086,0.5346995848341198,0.4653004151658802,44.94247056087575,41.92458179968221,0.5207495359505477,0.4792504640494526,40.23785730073955,38.60127692849028,0.810523336324642,2.1002559987845335,1.276007593099985,1.4613568854874777,-0.3125081736466626,-0.4057401615595495,-0.41174919033929264,0.002599232855933545,0.3626218955189611,0.678458909985626,1.8111775550851565,6.190249803297991,1.2632329400549032,1.2954288466349533,1.4264474955248652,1.8145024324824341,1.8464573194280973,1.858280862241962,3.974473853849228,0.9591779310951603,Relax
81.19255582761545,739.1308411214953,55.413213483167745,,,,,,,71.66253461833826,71.97875859674492,0.07497077702655239,0.09695514059405709,732.0,47.4432,0.06481311475409836,59.5,0.7732522130048641,699.2,782.8,31.775700934579437,60.747663551401864,586.0,880.0,9.727272727272727,179.6875,,,0.05646446443054456,0.055001894271385854,0.01688129371997072,0.12834765242190113,1.026591268874163,0.43993375309223426,0.4285383739671765,-2.9003876530448296,50.896668305147834,58.011490403780556,0.8773549507328456,9275.840032388038,1.1397895448868332,4.674323360314738,264.4835609821277,0.5420560747663551,0.5480769230769231,0.7719298245614035,0.10344827586206896,48.14605684170901,47.946433740991246,48.32222707336171,53.84615384615385,0.4960201335500997,0.5039798664499004,35.85792068972316,36.144485188252574,0.4700251110368071,0.5299748889631928,39.77173652066539,42.23200200083693,0.4813359181981019,0.5186640818018979,37.865429497496166,39.30627050816768,0.7903403010039286,2.2489476533892137,1.248981851470571,1.5829609463429943,-0.8651982658186679,-1.1487145152144511,-0.3514953896907696,0.0026139673454333412,0.3994780733042749,0.6799442681293253,1.7372712839439852,6.182827383496313,1.2671760124390685,1.2194848010517378,1.3687199844497542,1.78967475850113,1.8308189418710852,1.8703283445767056,3.407126343374542,1.1970829228188953,Relax
81.34491571631958,738.4018691588785,55.29865053679218,,,,,,,73.94005731314859,74.29131605114397,0.07488964051483708,0.10013525209162119,730.0,44.477999999999994,0.060928767123287667,60.0,0.7478848752117284,699.2,780.8000000000001,33.64485981308411,63.55140186915887,599.0,880.0,10.7,171.875,,,0.059213442705763154,0.04656237053140284,0.012668873115339997,0.11844468635250599,1.2717016343879681,0.4999248554682871,0.39311489578204867,-3.066962563379855,52.53189336303691,58.42430078171995,0.8991445795697621,9641.984970278929,1.1121681904355103,4.691136560140307,259.9105955114618,0.5420560747663551,0.5480769230769231,0.7719298245614035,0.1,50.01803101334295,50.03553047291588,49.99992335143483,51.92307692307693,0.47889273117567077,0.5211072688243292,36.35316191134385,37.92159831873676,0.53127708424532,0.46872291575468006,42.5847464071056,39.99922868350576,0.5078589915870305,0.4921410084129695,39.591747924977206,38.974260187481484,0.7698572498030826,2.173514728291797,1.2157304961674509,1.560851114395706,-0.8110964459281824,-1.1969173150876191,-0.34121542231301494,0.002635457789379752,0.3849194737047229,0.6451594922055519,1.6559579280689931,6.13133415915681,1.2699507805240853,1.468352864624854,1.2895583401298651,1.640835095864274,1.8307744847042184,1.8829167447605868,4.544316695473135,1.1970829228188953,Relax
82.08254491467099,731.1388888888889,54.680799878836886,,,,,,,72.81926159892782,73.1430625559973,0.07478852610607985,0.09959702965546148,727.0,40.771499999999996,0.0560818431911967,58.25,0.7509112105531429,695.0,771.6,31.48148148148148,62.03703703703704,575.0,880.0,9.818181818181818,171.875,,,0.056678267269168914,0.05018535880455795,0.017249018482401342,0.12411264455612821,1.1293785402610546,0.45666795250291325,0.4043533113329345,-2.9920319521044316,51.719955530097536,55.90307315731734,0.925171955834198,9083.300843577368,1.0808801474081993,4.665213808444114,241.69808781941006,0.5277777777777778,0.5333333333333333,0.7678571428571429,0.0967741935483871,48.36745987825125,48.20721037965637,48.51096363088964,53.333333333333336,0.46542811469501194,0.5345718853049879,35.293646870704116,37.82450787817887,0.48717836900975775,0.5128216309902425,39.019318652655585,40.03306583706648,0.4771445708062765,0.5228554291937236,37.20314998458758,38.944446051660016,0.762370638544271,3.3061697814833138,1.3100133506378735,2.014580721718559,-1.8284579085643866,-1.9462305754583213,-0.2868931671244719,0.008148200669517812,0.9457786877778033,0.6239710040099276,1.7540191412452077,6.201420488174417,1.2641222391779727,1.3072725030303387,1.3005225986159488,1.884836660236383,1.7944374359866233,1.8566480810603705,3.7354450843293727,1.188359838343573,Relax
81.84335147581709,733.8411214953271,53.85149908263802,,,,,,,71.77605371426081,72.1165803960114,0.07338304914407952,0.09780871037589825,729.0,45.9606,0.06304609053497942,65.5,0.7502711043019985,695.0,775.2,33.64485981308411,65.42056074766354,599.0,880.0,8.916666666666666,148.4375,,,0.05969290754001179,0.07084006251761696,0.026717204157763554,0.1572501742153923,0.8426433492371209,0.3796047148300634,0.450492744259757,-2.6473305835493033,50.994123034004495,56.94103324357892,0.8955601984927971,9122.110813830786,1.1166195211477377,4.66706545363331,254.32587709641004,0.5514018691588785,0.5576923076923077,0.7931034482758621,0.13333333333333333,50.24903154399557,50.250048141135,50.24678904286003,52.88461538461539,0.4970929753465998,0.5029070246534002,35.95354145083823,36.163188333942436,0.5149716305023774,0.4850283694976225,40.86175315053411,39.65600076042939,0.5070143274328716,0.4929856725671284,38.485971557129275,37.949799648926785,0.8120395384534623,2.3647738946144723,1.2591482449214992,1.6182864727255277,-1.0047946328832982,-1.1612917758697292,-0.34812999305264297,0.002531551894490165,0.4203856325272171,0.6016489078927636,1.849579040116881,6.145444205926223,1.295552330984084,1.1696496241164616,1.1179225389316993,1.6417569808109982,1.8064340131719798,1.8547429104208384,4.535324587048743,1.0710741941011168,Relax
82.18655032548308,730.8703703703703,53.582863174990635,,,,,,,69.94644145985696,70.27197962013003,0.07331377128865874,0.09570293761452038,726.5,46.701899999999995,0.06428341362697866,63.0,0.7660555999227271,694.0,772.0,31.48148148148148,62.96296296296296,599.0,880.0,9.818181818181818,117.1875,,,0.059554588355744925,0.0747855723161376,0.03157054590299982,0.16591070657488236,0.7963379367345423,0.3589556670887028,0.4507579640882536,-2.5931302960802114,49.6897933167968,57.43044292877768,0.8652169612973308,8965.184441602105,1.1557794688867076,4.659529338734064,265.50770730460414,0.5185185185185185,0.5238095238095238,0.7636363636363637,0.10344827586206896,49.27175162897661,49.27870002661379,49.26778410116638,55.23809523809524,0.49373827598195213,0.5062617240180478,34.91708507577171,35.35714013449852,0.49568440287278887,0.5043155971272112,40.43382178758789,40.78433315190006,0.49485118947765094,0.5051488105223492,37.77629398537591,38.16732364952866,0.811068372526018,2.2410105021963043,1.312932581281763,1.5954511205321977,-0.5301303163528495,-0.8301911934553972,-0.37393252330876975,0.003475193432144393,0.44306786063836745,0.5577790465429611,1.6094379124341003,6.157393752043275,1.237787999133341,1.5464174181214447,1.3002346397369122,1.7418849267311387,1.723062510486821,1.8255189815459305,3.593529568699174,1.1258145836939113,Relax
82.12169526865985,731.2037037037037,55.97759218898106,,,,,,,73.15136017414237,73.4954502170697,0.07655540023312593,0.10004238190208149,724.0,45.9606,0.06348149171270719,65.5,0.7652296834361269,691.4,778.0000000000001,35.18518518518518,62.03703703703704,599.0,880.0,9.0,117.1875,,,0.053354113356882275,0.058263775388780886,0.01911424085242154,0.13073212959808472,0.915733884405232,0.4081178324021116,0.4456729617111238,-2.84277472713401,51.969131234848284,58.26243913959316,0.8919834459785231,9512.266119059877,1.1210970388615011,4.685254101743005,261.2713919849853,0.5185185185185185,0.5238095238095238,0.8,0.06451612903225806,50.14503263234228,50.133687150295316,50.15794888292584,53.333333333333336,0.4974937562219466,0.5025062437780534,36.655587234031564,36.83978571219918,0.500022334307187,0.4999776656928132,41.1986859173568,41.196845670242574,0.49890193447246195,0.5010980655275382,38.99335710597839,39.079085867625786,0.7149344574255496,3.266735101326853,1.299351973066435,1.9473659020910319,-1.555103415259083,-1.6828075784531262,-0.30163254475044743,0.008647421628102052,0.9620038478127861,0.6001527940645937,1.4022947024663315,6.1388752335247565,1.2121526492587604,1.2715551874091362,1.152917291823243,1.5629809704282307,1.7571224260576632,1.8497156079190664,3.088979963183542,1.188359838343573,Relax
82.65387018933015,727.5370370370371,55.75889785679253,,,,,,,81.67636155818388,82.05246245516827,0.07664063136067392,0.1122641974226062,720.0,42.9954,0.05971583333333333,64.5,0.6826809714959143,691.0,767.4000000000001,37.03703703703704,62.03703703703704,599.0,858.0,9.818181818181818,117.1875,,,0.05343630253002855,0.05400077061323553,0.01295595995235933,0.12039303309562341,0.9895470365182413,0.44384879387153753,0.4485373382888764,-2.918756961904214,58.01985261510407,52.421346141620525,1.1067982202967228,9555.087381942141,0.9035070545486682,4.6872047730243835,189.452224191567,0.5277777777777778,0.5333333333333333,0.7857142857142857,0.06666666666666667,51.02513227513229,50.94595004188118,51.10828322173649,52.38095238095239,0.5129728215186327,0.48702717848136734,41.55923256414577,40.49458384469109,0.5037815755739352,0.4962184244260648,37.20739880711085,36.92704977801774,0.5088423866379891,0.49115761336201086,39.44337927531152,38.7518923800046,0.7501208786386434,2.481186114704534,1.2974084018308158,1.6511174855288844,-0.8675347100016477,-1.161561974571164,-0.3574435502432315,0.004146029839841027,0.5350415034738581,0.6177545324524893,1.3786897617346714,6.194430789080311,1.2160691669285912,1.1577670318360496,1.2470782916292136,1.5790455641695023,1.7475824144008227,1.8891814525256283,5.367238409422404,1.0632693290442496,Relax
82.6333821770721,727.7798165137615,54.951385551595465,,,,,,,79.88753669076621,80.2552112137545,0.07550550909040825,0.10976882688701993,727.0,48.925799999999995,0.06729821182943603,66.0,0.6878593060680391,691.0,768.4,37.61467889908257,59.63302752293578,599.0,862.0,9.909090909090908,117.1875,,,0.06284983727671435,0.05840074909033634,0.021256794125807416,0.1425073804928581,1.0761820397114428,0.44102864749425474,0.4098085929890708,-2.8404265623408986,56.74900407480446,51.866366150856415,1.0941388087560753,9246.852679720936,0.913960817400215,4.672964048493145,189.6153056112623,0.5321100917431193,0.5377358490566038,0.8070175438596491,0.06451612903225806,50.78647925033467,50.70774068266418,50.873569531599614,50.0,0.5038447141708912,0.49615528582910895,40.2839802579209,39.97540131481326,0.5206254532035327,0.47937454679646746,37.4238548486679,35.910653376965165,0.5114817585640397,0.4885182414359603,38.88022618989455,37.997419229737915,0.7261347281971383,2.436658044018538,1.2838307297545375,1.6811382831167208,-0.8623964995437081,-1.3392716282242465,-0.336945707528602,0.00469282804874046,0.5512832998418867,0.6032659535337741,1.5755363607584194,6.194520792547745,1.2080734191580784,1.3780486335338795,1.0499675045453256,1.5130896424279365,1.7159111159730198,1.8729578255224053,4.193492050355854,1.2418686834453077,Relax
82.52251365758555,727.8981481481482,53.10172565526126,,,,,,,74.10947951018836,74.44711867563589,0.07295213731530684,0.10181297987737833,727.0,48.1845,0.06627854195323246,65.25,0.7165308136857308,691.0,767.4000000000001,35.18518518518518,59.25925925925925,599.0,846.0,9.818181818181818,117.1875,,,0.06885116015365289,0.05007105591604146,0.020910779519009284,0.13983299558870366,1.3750690672292127,0.49238135723107546,0.3580775460415469,-2.994312164066135,52.6420624553418,53.01886789315183,0.9928929935175267,8768.25595461176,1.0071578775647265,4.649883328799742,213.5934818326057,0.5370370370370371,0.5428571428571428,0.8245614035087719,0.06451612903225806,51.246134255048204,51.31586506812633,51.178788739338934,51.42857142857142,0.5111244973769158,0.48887550262308416,37.640992808673914,36.812631138248655,0.5071671141368482,0.492832885863152,37.7577400899744,37.220336053956125,0.5091319885492416,0.4908680114507586,37.699411642124474,37.01704490697617,0.7069599094380444,3.242691564999405,1.2830893350526287,1.947181758380644,-1.599678716213063,-1.7943092021376175,-0.2952033333987048,0.008382432104138018,0.9464775275713717,0.6250422336254187,1.737692247957779,6.175912270561793,1.184086108319173,1.3224409845232838,0.9899721443343013,1.4023436994362135,1.791641849439659,1.8599910601646867,3.2126732833199,1.1258145836939113,Relax
82.34300465161051,729.6111111111111,51.725521698824615,,,,,,,71.82025851185918,72.14626276163455,0.07089464635489554,0.09843635522831533,729.5,47.4432,0.06503522960932145,63.5,0.7202079576235936,691.4,767.4000000000001,32.407407407407405,57.407407407407405,599.0,846.0,9.818181818181818,101.5625,,,0.05833111758273116,0.033998280407159326,0.017696736659353764,0.11002613464924424,1.7157078794622755,0.5301569283396781,0.30900186138087565,-3.3814453319050175,51.01511163601828,51.99148856050122,0.9812204468170449,8332.608279421398,1.0191389745738315,4.627751075840674,211.94620935246522,0.5277777777777778,0.5333333333333333,0.8035714285714286,0.06666666666666667,51.33181126331811,51.38228381561436,51.28150517063658,49.523809523809526,0.4853004591228472,0.514699540877153,35.544816250251614,36.60562385909039,0.5379338592677781,0.46206614073222163,38.13262410213513,35.34144679865261,0.5121116485085966,0.48788835149140375,36.861436374474664,35.97908809249618,0.778048506613222,2.3961245948427043,1.3361776528171025,1.5906410809997715,-0.7807936010981429,-0.9786800726515463,-0.393802088284406,0.003200920176667321,0.46848471278700515,0.6683194480495898,1.745239453593162,6.196881367844111,1.1629291465526053,1.3787404369940452,0.9238915349020019,1.115321722624718,1.7616396631934474,1.8659009806186266,3.3521724370511183,1.1258145836939113,Relax
81.78413694214733,733.9626168224299,54.56170563123486,,,,,,,66.71008806062696,67.01442161507114,0.07433853493445042,0.09089030766912527,733.0,47.4432,0.06472469304229195,62.5,0.8178928737382043,694.2,770.6,28.037383177570092,55.140186915887845,599.0,974.0,9.727272727272727,101.5625,,,0.0509776193973458,0.0299238250836037,0.012516040998799665,0.09341748547974915,1.7035796478197633,0.5456967626087155,0.3203235981992956,-3.509100290343838,47.386351961311156,55.760317277872616,0.8498221365055879,8300.961216385254,1.1767168176060152,4.626098494723595,262.45641238367983,0.5233644859813084,0.5288461538461539,0.8,0.06666666666666667,51.451578724306,51.19685866075169,51.768886836661466,50.0,0.5102379564364831,0.4897620435635169,33.8548723369677,33.16861683665966,0.5792464432104449,0.4207535567895552,42.43819696388352,36.16921925316674,0.550301663150425,0.44969833684957494,38.38719149988544,34.701365709729565,0.8090771281221967,3.0599703346731957,1.3487615128512607,1.8637074086267886,-1.347076814732409,-1.3143859836239868,-0.3317153960806211,0.006266805188445545,0.7705380231100025,0.6767054093351557,1.7609878105613015,6.21562901905077,1.098491072394759,1.2686645226125142,1.0930343419160748,1.5070722156120275,1.6970640091799392,1.8344653210179007,2.7818880415004434,1.0710741941011168,Relax
81.5150638617812,736.6822429906542,51.371675282558435,,,,,,,62.408725805000806,62.70519451837066,0.06973383133820174,0.08471593607529446,735.0,44.477999999999994,0.06051428571428571,59.5,0.823148920602414,696.2,771.8,26.168224299065418,56.074766355140184,599.0,875.0,10.7,117.1875,,,0.04828638963452651,0.026919113901217775,0.01807531466821976,0.09328081820396406,1.7937585097235356,0.5176454341228595,0.2885814513586012,-3.614918690749665,44.33926825956142,57.78572744628171,0.7673048383924859,8049.316034548787,1.303262992704456,4.612729089082325,301.24000034898046,0.5420560747663551,0.5480769230769231,0.8421052631578947,0.06451612903225806,50.044365572315876,50.08550347312246,50.004059348621354,50.96153846153846,0.45240690413560253,0.5475930958643977,29.823129406872237,32.81085766864958,0.5353240505908937,0.46467594940910617,42.27941431966653,39.3908799252052,0.5045968552069104,0.49540314479308956,36.585297066123914,36.25047449506223,0.8361061175985611,2.2318389640202887,1.335671944298316,1.4517553806399743,-0.6051388297083697,-0.4904754761424086,-0.44798753932830654,0.00178154218636992,0.35001564805029406,0.6323627928613971,1.6502599069543555,6.222684042435476,1.1506182703996866,1.3743398909891111,1.139417267695239,1.474570419500742,1.7793981616451016,1.8157644082621522,3.2966108528924,1.1340785584600062,Relax
81.40643178856372,737.373831775701,56.41097902046113,,,,,,,72.40875846116126,72.74669278922576,0.07650255079518549,0.09819816671116559,735.0,50.4084,0.06858285714285714,63.5,0.7790629230401589,695.0,781.8,31.775700934579437,60.747663551401864,599.0,933.0,10.7,101.5625,,,0.03606866289458664,0.03402307840896918,0.01814545934337234,0.08823720064692817,1.0601234391852739,0.4087693470570489,0.3855865571382861,-3.3807162078963224,51.43967978015605,60.98349127793227,0.8435017199280982,9855.08587503155,1.1855340378976844,4.700630522939489,289.19201863930107,0.5700934579439252,0.580952380952381,0.8688524590163934,0.1,49.05444126074498,49.07505804257568,49.03517164587837,51.42857142857142,0.4376341628865644,0.5623658371134355,34.03219763974222,38.57836798246495,0.5418508487639292,0.45814915123607086,44.890264351946264,41.27772250086024,0.49852213978997556,0.5014778602100245,39.83294057547154,39.95085012267261,0.8536386299426154,2.914768073042781,1.3262815687079859,2.0253913536685584,-1.558695532588695,-1.9791593035736077,-0.260149086499785,0.007358863021889293,0.781701181610408,0.6448749023998488,1.6602963296675912,6.309086962976007,1.1695619750708584,1.36267071260011,1.094000476818611,1.4943074806168506,1.7974087790757232,1.842944597982659,3.737294687433369,1.0710741941011168,Relax
81.64720510838646,735.588785046729,53.838324231509404,,,,,,,69.3749043854517,69.70444665298308,0.07319078991680016,0.09431207462066539,733.0,48.925799999999995,0.06674733969986357,65.5,0.7760489864228137,694.2,780.8,32.71028037383177,62.616822429906534,599.0,875.0,10.7,101.5625,,,0.03906002256220708,0.03315903933993098,0.012375717691375611,0.08459477959351366,1.1779600175319307,0.4617308863489494,0.3919750071962297,-3.4064399195830966,49.28848690718027,58.43792638254871,0.8434331941302295,9048.782631042552,1.185630358111796,4.66356026572137,277.143118337008,0.5981308411214953,0.6095238095238096,0.890625,0.13333333333333333,50.067036966098435,50.11292962666235,50.020781760867074,49.523809523809526,0.4494506679211628,0.5505493320788372,33.043549907299465,36.57158668120584,0.5731025807712995,0.4268974192287004,44.2395783534788,38.1818143492238,0.5217034104896134,0.47829658951038645,39.044951551831765,37.38537079781037,0.8038261958333669,2.30822530763569,1.2300296519708545,1.7342817341248689,-0.9987814885205317,-1.567517328911082,-0.2815412210905362,0.003744377365608767,0.46880743412860787,0.5980330696573928,1.8458266904983307,6.376798294731485,1.223501685302968,1.3692474352486788,1.0093666284924463,1.3015619042358486,1.8489676946309097,1.846564894366166,3.8967690313546477,1.0080698297422277,Relax
81.84657035659315,733.6111111111111,59.61195911712625,,,,,,,77.70132126999388,78.05215533581173,0.08125825551747615,0.105916227403248,734.5,51.891,0.07064805990469707,69.0,0.7671936350990566,692.8,781.0,39.81481481481482,68.51851851851852,572.0,875.0,12.0,250.0,,,0.05163778932834402,0.030570848679753897,0.009505436790459084,0.09171407479855699,1.6891186067249122,0.5630301504078028,0.333327777082203,-3.4877083816147665,55.19120832417824,62.28522115611844,0.8861043968334158,10799.528275914101,1.1285351969515123,4.740374895852284,281.1642572983545,0.5925925925925926,0.6074766355140188,0.8923076923076924,0.12903225806451613,48.67603792088918,48.540841679147945,48.79455063410213,49.532710280373834,0.4620719119768673,0.5379280880231326,37.52382890709658,40.48689515442352,0.5213590021086313,0.4786409978913686,44.97316468503691,43.09133593518694,0.49527705338439176,0.5047229466156081,41.416320923257466,41.80940033009572,0.7905857715032697,2.1188852809546623,1.2222297726582183,1.601293874260841,-0.8970304510345937,-1.397723139950231,-0.3211021120351379,0.0024491723144259956,0.3659549416101814,0.613256424135896,1.7917594692280547,6.382066553029296,1.2280302806940198,1.4146342624202741,0.9574242362164996,1.393992734068023,1.9239907927537652,1.8891823904469227,4.486915100213709,1.1258145836939113,Relax
82.01286860355052,732.4722222222222,59.50017016127923,,,,,,,78.27975233844461,78.64809380489147,0.08123198171360509,0.10687060882794214,732.0,54.1149,0.07392745901639344,72.25,0.7600965560548614,691.4,782.2,41.66666666666667,68.51851851851852,591.0,875.0,15.428571428571429,265.625,,,0.052616190575765165,0.030333675991331722,0.007352840946784701,0.09030270751388159,1.734580094769951,0.5826645958281689,0.33591103552093105,-3.4954967647796713,55.61260045683446,63.30609110401096,0.8784715575862011,11060.342464570944,1.1383407821964386,4.750738684323851,288.2556210605554,0.6111111111111112,0.6226415094339623,0.8939393939393939,0.12903225806451613,49.93560849967804,49.915610783481604,49.9520543693398,48.113207547169814,0.5066756549828723,0.4933243450171276,39.58570830346215,39.06066882500354,0.5298222972777804,0.47017770272221954,46.07980304060501,43.40867335692701,0.5197402103238506,0.48025978967614946,42.955654750845916,41.29194093079779,0.6897119881163636,1.6918192318979628,1.094558398517725,1.3227638861668805,-0.22255141651107024,-0.801109298316534,-0.36511236936753355,0.002106894719462985,0.25983195328925424,0.5840100469258651,1.7206635475443244,6.4145644697360265,1.2623774026762726,1.3716015161758845,0.9002486511861552,1.3751175749095066,1.9916597487631722,1.908751935539509,3.9767652256383257,1.0632693290442496,Relax
82.20966549858295,730.75,58.114473722772075,,,,,,,72.29295282416803,72.63315137172053,0.07952716212490192,0.09892980201733564,727.5,50.4084,0.0692898969072165,67.5,0.8038746717694454,691.4,776.8000000000001,36.11111111111111,63.888888888888886,591.0,875.0,13.5,234.375,,,0.04948800500116445,0.0423173041759066,0.011767471560711423,0.10357278073778248,1.1694507947729926,0.4778089827138497,0.40857553378857586,-3.162559194408471,51.35939387389257,64.53896423968524,0.7957889389602489,10413.380885962113,1.256614600985239,4.724561863654541,324.40241918421066,0.6018518518518519,0.6168224299065421,0.8939393939393939,0.12903225806451613,49.97310381925765,49.95790409762571,49.982692578785745,48.598130841121495,0.49930169470915275,0.5006983052908472,36.29120949751403,36.34192962758862,0.536342908037586,0.46365709196241417,47.26539182555099,43.9461106437021,0.521980727309806,0.4780192726901937,42.137092633541506,40.32366854444862,0.760237389820281,2.0627663980777173,1.2403281420193304,1.527712259867117,-0.595858404696223,-1.0678291003797378,-0.36068024080884864,0.0028255077781986523,0.3699869008685512,0.6249618879886669,1.6274564179367785,6.382066553029297,1.1650947008215458,1.8236348370413094,0.9271591595016485,1.3487625420231526,1.8554345900091844,1.8636013678811565,3.9330725080760787,1.0632693290442496,Relax
82.00267290586042,732.3888888888889,64.45411804790547,,,,,,,85.18396804102844,85.58388357949617,0.0880053193402335,0.11630974927850352,730.5,57.080099999999995,0.07813839835728952,77.5,0.7566461099447899,686.4,782.2,41.66666666666667,67.5925925925926,591.0,941.0,15.428571428571429,125.0,,,0.04325058723251512,0.05432729587953984,0.018198893966469933,0.11577677707852488,0.7961115408433882,0.37356876157625873,0.46924173612720876,-2.912728491799109,60.51694443934176,68.28378488139623,0.8862564449884422,12982.085053398043,1.1283415829072374,4.820314560088928,308.1897356798877,0.6203703703703703,0.6355140186915889,0.8970588235294118,0.16666666666666666,49.67140455448572,49.64660880831725,49.68502827071294,48.598130841121495,0.48223588884953467,0.5177641111504653,42.02537418598076,43.54595273960601,0.524623432031709,0.475376567968291,49.45855544444745,47.08000181687881,0.505976187720053,0.49402381227994707,45.89270520531112,45.3474176281148,0.6793623347158574,2.08790625115197,1.1347898718582794,1.3801390106797078,-0.5270186723562063,-0.7699175425481468,-0.3824903471187651,0.0024267475253605527,0.3537454818897033,0.6026750555081244,1.5993875765805987,6.4631303261974775,1.209108360766054,1.5864699056473088,1.1671243273221046,1.6284735889057547,1.8051072328784257,1.9078739961815434,3.417517554224539,1.0632693290442496,Relax
81.9320624789815,733.1944444444445,67.07485821350181,,,,,,,85.96380459783396,86.36170873933692,0.09148304207941145,0.1172455755075591,734.0,62.2692,0.08483542234332425,85.75,0.7802686087161841,684.2,789.4000000000001,41.66666666666667,67.5925925925926,556.0,875.0,18.0,156.25,,,0.04341166773617506,0.05004614596794567,0.01522730221700567,0.10868511592112641,0.8674327842143936,0.39942606094912964,0.46046917780595203,-2.994809779823289,61.06694988444266,70.82927870533861,0.8621709976532609,13588.418710164438,1.1598627218056454,4.840139030608432,328.60895993081874,0.6018518518518519,0.6168224299065421,0.8939393939393939,0.12903225806451613,49.14874551971326,48.943924787997275,49.32268821878963,50.467289719626166,0.5115947014440262,0.4884052985559741,43.68200916313605,42.68052668947006,0.44013382853074545,0.5598661714692545,46.98997283293758,52.99744498632288,0.47060657515972515,0.5293934248402747,45.36615187212,48.11629938788355,0.7158585847067891,2.03866134085275,1.1948083848897073,1.4989303410300119,-0.48432296412475395,-1.010174974318066,-0.35082271878805843,0.003342604318820341,0.3890606165425424,0.5862168524190707,1.5339303599259553,6.419103590066333,1.1706744084500234,1.643649116737972,0.8950168229297236,1.291448555081233,1.8221761192343222,1.8898017583256972,3.938087282627394,0.9381788197449261,Relax
81.95024068197256,733.196261682243,69.86934427137561,,,,,,,90.36326060919077,90.76923981545538,0.0952941905501095,0.12324566467627866,733.0,68.19959999999999,0.09304174624829467,90.0,0.7732052141583441,676.6,790.4000000000001,44.85981308411215,69.1588785046729,567.0,916.0,17.833333333333332,148.4375,,,0.04803209684761157,0.0454085374030928,0.009260042399091695,0.10270067664979607,1.057776788123109,0.46769016928095325,0.4421444812669885,-3.092055143087469,64.18354499665647,73.5146564773388,0.8730714128609348,14823.388988938335,1.145381678141468,4.877917615287652,336.80936241603143,0.6074766355140186,0.6226415094339623,0.8787878787878788,0.12903225806451613,51.529677146482456,51.39613025351707,51.671803429778564,46.22641509433962,0.496455990156491,0.5035440098435089,45.23510015147845,45.55687183541656,0.563609324208068,0.43639067579193236,55.190333304706805,48.563688355565645,0.5345540358029536,0.46544596419704626,50.4588306245741,47.08428823994833,0.6997437562642748,1.8112723521078995,1.103683949498242,1.3922430632389717,-0.4112408972543875,-0.9786569459600614,-0.34068706541845345,0.0022670712836698075,0.2915439999867699,0.5463440813434799,1.5982646118359751,6.439928084471333,1.2219696377142797,1.1332533775901468,0.8410260944844364,1.1840154592691805,1.8010169309756137,1.8924790713790915,3.9639158234864276,0.8820611010244491,Relax
81.73562744075332,735.5327102803739,69.5286445323768,,,,,,,91.67590576652738,92.11122812562223,0.09452828346121214,0.12463878830294566,739.0,69.6822,0.09429255751014884,89.5,0.75841786291642,679.8,790.4000000000001,45.794392523364486,70.09345794392523,567.0,914.0,15.285714285714286,187.5,,,0.04636628571282707,0.041623239859681846,0.00913056267016798,0.0971200882426769,1.113951866052108,0.4774118985247442,0.4285749798298844,-3.1790966172288817,65.13247403104852,74.19441690888361,0.8778621996724653,15181.639472474333,1.139130948311825,4.888288783721654,338.06862597143794,0.616822429906542,0.6320754716981133,0.8805970149253731,0.12903225806451613,49.86222099751998,49.86719551361943,49.85500655323355,47.16981132075472,0.4806639322732507,0.5193360677267491,45.1563948959613,46.93780078845985,0.5427286314414363,0.45727136855856343,54.659114628595056,50.171632308181294,0.5157159548100548,0.4842840451899452,50.13341606145493,48.58163146357111,0.7519313351193683,1.6527164612095255,1.1192549313646487,1.4515588480226245,-0.24977653095741026,-1.0017493519401448,-0.29893470873111394,0.0028667074164450555,0.28331386759847277,0.5432008669899497,1.5856272637403819,6.439928084471332,1.2786181989101808,1.1533472794840487,0.8575128460923688,1.2257006017524938,1.8528152474050872,1.8910914295505008,4.500217574165669,1.0080698297422277,Relax
81.80465200776094,734.7570093457944,73.1911224023705,,,,,,,88.76447530105554,89.16222029202399,0.09961269027911375,0.1208079326525769,736.0,65.2344,0.08863369565217391,88.0,0.8245542166968698,676.6,787.8,42.99065420560748,69.1588785046729,567.0,967.0,15.285714285714286,148.4375,,,0.04544512612624809,0.04470187376836028,0.010636490893410473,0.10078349078801883,1.0166268725498904,0.4509183574702159,0.4435436143245244,-3.1077398594859167,63.04721059413895,79.50148924676084,0.7930318185417855,15746.75293683495,1.2609834518856815,4.904161123516083,401.0002493617315,0.5794392523364486,0.5943396226415094,0.8412698412698413,0.0967741935483871,51.58753277017186,51.35206483155647,51.854398180863214,47.16981132075472,0.5163053109000609,0.4836946890999391,45.314351768401984,43.859950274655326,0.544849842254541,0.45515015774545897,58.68318525642447,53.63553449545362,0.533825491826652,0.46617450817334827,52.426647365773405,48.99217181707825,0.8303024893522555,2.032260943383441,1.2821747444481502,1.5632820326943018,-0.5993246684770828,-1.012027283016986,-0.3616775620466603,0.0024514458779372147,0.3448872432016843,0.5735359271776739,1.54368653487132,6.383853318116191,1.2393118877797513,1.2715029729207399,1.0108781387356627,1.2156992288922799,1.739897577284088,1.85140479072283,3.8426581405138815,0.9450654653833384,Relax
81.54903940953706,736.6481481481482,77.20252705355234,,,,,,,95.53058912172543,95.97353313228521,0.10480244503109246,0.12968279274424127,734.0,74.13,0.10099455040871934,100.25,0.8081445719462758,673.6,797.2,50.92592592592593,74.07407407407408,567.0,936.0,18.0,125.0,,,0.04282113594297273,0.03698228519010403,0.011719479937155405,0.09152290107023216,1.1578823678108214,0.467873455083258,0.40407684587844134,-3.297316259634842,67.86353609227066,85.11213987074245,0.7973426140540376,18145.873020963845,1.254166003890804,4.965747977459314,426.97900937713695,0.5833333333333334,0.5981308411214953,0.84375,0.09375,49.23037455105183,49.166003956130375,49.285390349355254,48.598130841121495,0.45842055029636697,0.5415794497036328,45.95136887935758,49.945630817278186,0.5542758308853505,0.44572416911464935,63.36573553400025,56.82305793964248,0.5170174253499192,0.4829825746500806,55.34774043107656,53.49498084562614,0.8207817221026091,1.7811323125219456,1.2452083196743355,1.4847484080992746,-0.10620638113721803,-0.6475120444041007,-0.36551246825354106,0.0029712098191824136,0.3138066690530915,0.5150581542112955,1.3753652905876999,6.319521298379636,1.2887300518735747,1.436949858406712,1.1897952554641538,1.372823498211763,1.7498230985519978,1.8596944427843025,4.2816561804412085,1.1258145836939113,Relax
81.76436943002514,734.9722222222222,80.41300614721725,,,,,,,104.8989277672988,105.38539410552889,0.10940958544539933,0.1427250236071944,730.5,82.2843,0.11264106776180699,105.75,0.7665760542910449,670.4,806.8000000000001,53.70370370370371,75.92592592592592,567.0,936.0,18.0,125.0,,,0.04749955024505679,0.040155262990982606,0.009438003868272243,0.09709281710431164,1.1828972519921845,0.48921796340532236,0.4135760418594283,-3.2150017639675017,74.51872681003627,85.67731276166171,0.8697603181992117,20057.700186597045,1.1497420370596374,5.009251245349628,394.0272324175544,0.6018518518518519,0.6168224299065421,0.8636363636363636,0.0967741935483871,49.24057971014493,49.19494044715999,49.27823749486734,48.598130841121495,0.4631804689125663,0.5368195310874336,50.71893509685008,54.60207681446585,0.5572293281148062,0.4427706718851938,63.95622469304709,57.010553804292016,0.5167211753626026,0.4832788246373974,57.71832055052372,55.819306863866125,0.8001335893086361,1.4081362804736026,1.0864494311804411,1.382253254618906,-0.27312642143632715,-1.0324585775428172,-0.2899323896839189,0.001471913833942516,0.1782680802240904,0.5617397483291597,1.4307461236907242,6.307992478955223,1.3314209790948761,1.2389985313526628,1.2458626490384368,1.5349105209320169,1.7970362223503769,1.8635687111718517,5.142176018649756,1.000724074394588,Relax
81.66611445502886,736.9532710280374,82.60161074513015,,,,,,,108.05497377950988,108.5578406284169,0.11208527594958943,0.14662391501265068,719.0,88.95599999999999,0.12372183588317105,111.5,0.7644406162522583,671.2,812.0,58.87850467289719,78.50467289719626,567.0,936.0,13.375,125.0,,,0.0439610596844747,0.02723123183699826,0.01380213731622242,0.08499442883769538,1.6143617720864953,0.5172228378453175,0.32038843262302263,-3.603390735089857,76.76198525932209,88.06102724427623,0.8716907769698025,21236.34724729489,1.1471958020207922,5.034049928078972,404.0929631050892,0.616822429906542,0.6320754716981133,0.8955223880597015,0.09375,50.87661263645386,50.840100409260494,50.901121619398026,50.0,0.5105026247472009,0.4894973752527991,54.85131417447231,53.71099913957502,0.5255606901361195,0.4744393098638806,63.84033898250867,60.65604370477474,0.5190583861821014,0.48094161381789857,59.51577752188189,57.2888604638239,0.8450320751058185,1.7880705213428567,1.2074035977775615,1.6308211001552164,-0.4593894633613811,-1.24289699211732,-0.2631986561359646,0.003602504523126885,0.33820347585838195,0.5156030119509167,1.4790760945708568,6.346470140546098,1.402766593144825,1.6391623018121582,1.2706310573139128,1.6739990117597665,1.855542057477065,1.8673560992089921,4.2102104739641,1.0710741941011168,Relax
81.98761534158697,734.3611111111111,84.68307694131822,,,,,,,112.98482240309069,113.51492793636356,0.11531530695190287,0.1538545828388722,715.0,87.4734,0.12234041958041958,114.75,0.7495084307801835,667.0,814.8000000000001,58.333333333333336,76.85185185185185,567.0,936.0,13.5,125.0,,,0.04315010201112829,0.029069403891394483,0.022615098264363503,0.09483460416688627,1.484382073066939,0.4550037656633691,0.3065273920502612,-3.538069070593585,80.26717530970494,89.01166117071178,0.9017602216833573,22445.78293641892,1.1089422398043396,5.058104868687482,394.8351636294163,0.5925925925925926,0.6074766355140188,0.8923076923076924,0.1,50.338839474798824,50.271235741253385,50.397168756098544,53.271028037383175,0.5197830613302722,0.4802169386697278,57.87021914725175,55.6240751460108,0.5098856251293893,0.4901143748706108,63.55991244216943,62.315434321790256,0.5143244978056782,0.485675502194322,60.78167788818924,59.06458791256573,0.8365783917824338,2.6441926538800153,1.2600544171833659,1.9593744154638877,-1.6886920821396494,-2.2678233088822832,-0.23552607929140149,0.005222416912521199,0.6195500017634926,0.5080540091552672,1.2417131323087827,6.352019215086365,1.3395886406951851,1.273453792557201,1.223991469065064,1.6340307378417063,1.8381531791146926,1.8695660705425932,5.545042272969754,1.000724074394588,Relax
82.53522615149546,729.6111111111111,83.95702431282433,,,,,,,117.31406047463676,117.86550096660889,0.11507092344710561,0.16078984912384542,713.0,84.5082,0.11852482468443198,113.75,0.7156603733017646,659.8,806.8000000000001,62.03703703703704,77.77777777777779,567.0,936.0,13.5,125.0,,,0.039223001235256696,0.029218270613895005,0.027907327811634616,0.09634859966078632,1.3424135108326314,0.4070946684575466,0.3032557890489692,-3.5329610594249456,83.34349500143871,84.91392480204024,0.9815056269715164,22233.124305806647,1.0188428599085557,5.053970606103439,346.05578396548293,0.5833333333333334,0.5981308411214953,0.875,0.10344827586206896,50.20555499849595,50.16955895810516,50.23270709725327,54.20560747663551,0.5121584520408501,0.4878415479591496,59.64529588119014,58.21212024481007,0.49534416749222454,0.5046558325077755,59.76300708690639,60.3221154239216,0.5035944322245897,0.4964055677754104,59.70418049359836,59.27650695095464,0.7408731046980163,1.7148352731984815,1.0141595427468397,1.4840751671077408,-0.7104053688813003,-1.482310384769359,-0.22597039977815342,0.002363991798292767,0.2686981524327979,0.4973814218278405,1.2697605448639389,6.370537733604884,1.3783968342013384,1.229386943222693,1.0698390037783612,1.462933540708396,1.8495981803787838,1.8982824490623667,6.080477477422986,1.0632693290442496,Relax
82.85140558046224,727.0183486238532,85.0884051868861,,,,,,,118.00235402548356,118.5403947986964,0.11703749341120054,0.1623100080607951,713.0,85.9908,0.12060420757363254,118.0,0.721073794583035,658.2,806.2,61.46788990825688,77.06422018348624,567.0,936.0,13.625,125.0,,,0.039845108110185934,0.024673843214618598,0.024956820656042954,0.0894757719808475,1.614872387880732,0.44531728788788627,0.27576004842852986,-3.7020115756280547,83.82071700668875,86.21541902108726,0.9722242025662162,22703.15360298617,1.0285693334525807,5.063056297430171,354.7141443034187,0.5871559633027523,0.6018518518518519,0.8769230769230769,0.10344827586206896,50.90099009900989,50.88470688886614,50.90276074193818,53.70370370370371,0.5171353298063905,0.4828646701936095,60.283403893996635,58.25166958419127,0.49676342339288226,0.5032365766071176,60.765874023516076,61.1605022145815,0.5066635639537171,0.49333643604628274,60.52511970615405,59.72379777143121,0.7375346083604585,2.0970100796443636,1.037262044111738,1.6888409240977855,-1.3861899737042425,-2.200994546014744,-0.1892819513311304,0.0033349827274244265,0.3947540304511222,0.587112230106237,1.2992829841302609,6.387360700884018,1.389476306690055,1.2900166459973559,1.144082451520855,1.3771293807775866,1.801468308598322,1.8955436300761233,3.9828491412814806,0.9934949467562461,Relax
83.23806298679726,724.0275229357799,86.86051597517715,,,,,,,124.4054006211294,124.97180990538642,0.11996852774736513,0.17182413192897913,704.0,81.54299999999999,0.11582812499999999,123.0,0.6982053475291369,656.2,808.8,66.05504587155964,77.06422018348624,567.0,936.0,13.625,125.0,,,0.0434195646016552,0.02401787769227956,0.01941070987233104,0.08684815216626579,1.807801886492753,0.4999480532243327,0.2765502442274041,-3.728956822092378,88.36841424125487,84.8999411071645,1.040853657715879,23569.714578340685,0.9607498543017747,5.079324433351529,326.2704241957502,0.6055045871559633,0.6203703703703703,0.8805970149253731,0.14285714285714285,50.91615769017213,50.839405336553234,50.980986381553265,53.70370370370371,0.5253942006025782,0.4746057993974216,64.05998940829333,60.88506101011649,0.4953838644727274,0.5046161355272726,59.755559533146524,60.30980935868212,0.5109911635097105,0.4890088364902895,61.94517389639839,60.59811778878197,0.7018245959410341,2.4037837914398383,1.082375628197915,1.8180204329673713,-1.5586966016275152,-2.392975160554487,-0.19396382179246932,0.005904721987217736,0.5758730616684556,0.6239974224859837,1.4201959127955723,6.398783751322885,1.42056009180343,1.3967711265738958,1.1484622977883039,1.5946013061500919,1.8603535263556497,1.9196914531119789,4.6817731697181015,1.1176818151007768,Relax
83.19838780971185,724.302752293578,86.2682621124959,,,,,,,122.6691953241786,123.22299061903725,0.1191052523814368,0.16936176886769266,707.0,83.0256,0.11743366336633664,118.0,0.7032593788890052,656.2,807.6,63.30275229357798,76.14678899082568,567.0,936.0,13.625,125.0,,,0.04326451887014921,0.027782861266542884,0.021596640441359533,0.09264402057805163,1.5572376961133911,0.46699742304145037,0.2998883370258754,-3.5833359496040473,87.13181226480756,84.75759496830567,1.0280118530662616,23200.92203649275,0.9727514298763089,5.072475354654582,329.79228679318555,0.6055045871559633,0.6203703703703703,0.8656716417910447,0.14814814814814814,51.076135393950885,51.063694213811964,51.07776160185882,54.629629629629626,0.5366300445188305,0.4633699554811695,63.837812894398155,59.32045083991243,0.48697301867037607,0.513026981329624,59.1467756840631,60.70839176745233,0.5124909293208919,0.48750907067910826,61.537010932288,60.01843349688886,0.676699427609792,1.976051886134562,0.6528724993282395,1.6018568067996828,-1.106407964120498,-1.980670836365718,-0.019757393958014232,0.004583415816974371,0.4050921826009147,0.6572475040214987,1.6274564179367788,6.398783751322885,1.416844772317831,1.213461936335007,1.2466731649313547,1.4795298769280087,1.8147752883106218,1.9138542442844588,3.7444559326566575,1.1176818151007768,Relax
82.95509807046903,725.8899082568807,84.56471765037593,,,,,,,121.04533126982727,121.60042543045125,0.11649799327482845,0.16675439332184694,707.0,80.0604,0.11323960396039603,118.0,0.6986202339507761,658.2,811.2,61.46788990825688,76.14678899082568,567.0,936.0,13.625,125.0,,,0.040388434089615274,0.029129833387771024,0.027190919699119222,0.0967091871765055,1.3864972570207255,0.41762768635312475,0.3012106113001001,-3.5359924276367964,85.98448541704118,83.15507075736163,1.0340257621562912,22462.531888692218,0.967093893206939,5.058428816620757,321.6750444745413,0.6238532110091743,0.6388888888888888,0.8695652173913043,0.16666666666666666,50.780568214874435,50.78510294819988,50.7647945315161,53.70370370370371,0.51801078479512,0.48198921520488014,61.890278251564474,59.69963759498011,0.5001106067748,0.49988939322520026,58.806017687594974,58.79301043821525,0.5093607293234311,0.49063927067656915,60.36784847221991,59.24805821864565,0.7590641126113393,2.363348972982811,0.805286169281215,1.8833698570031876,-1.5565985042376678,-2.4418610200385538,-0.04383220588819326,0.006138593830199785,0.5719563034088271,0.5940342226536108,1.6506808709681493,6.394286274298362,1.3910671938013381,1.3378515487940292,1.350123962136113,1.611292874631817,1.7851377819229377,1.8982320074231622,3.998163427385091,1.0555883809285114,Relax
82.50796437194995,729.4722222222222,86.39481837323665,,,,,,,123.5759254296499,124.14925872187891,0.11843469256450705,0.1694045662947868,713.0,88.95599999999999,0.12476297335203365,126.0,0.6991233775742189,658.2,814.2,62.96296296296296,78.70370370370371,567.0,936.0,15.428571428571429,125.0,,,0.040184782370392,0.027556983611220016,0.02779349724149649,0.0955352632231085,1.4582431421859425,0.4206277453441079,0.28844829313825987,-3.591499286895496,87.78678272152369,85.02786529672288,1.0324472149826764,23449.861471687153,0.9685725192418474,5.077110391458114,329.42261478481333,0.6388888888888888,0.6542056074766356,0.8857142857142857,0.21739130434782608,50.71847230100208,50.69491892966145,50.73010107555642,51.4018691588785,0.4995764988696438,0.5004235011303565,62.052435222005045,62.10501605239246,0.5260066336891005,0.47399336631089944,61.667577243572964,58.5392841929726,0.5123688548353428,0.48763114516465716,61.8603055281542,60.34849133447139,0.6675535761658647,2.279784262652986,0.9258226989508511,1.611312907431763,-2.2830827884721234,-2.8238738894551005,-0.19931794875923628,0.0016901866309756125,0.3423278458364383,0.5840343433171729,1.5151272329628587,6.451601506773065,1.4460933652270351,1.413986312802129,1.2344261526534546,1.2314681240690764,1.8983427134604025,1.909846479356216,5.080675326330843,0.9381788197449261,Relax
82.11557229480145,733.981308411215,88.36256584976994,,,,,,,126.9990343151519,127.57999939012598,0.1203880328247604,0.17302761372773318,716.0,87.4734,0.1221695530726257,123.0,0.6957735255726085,663.4,814.6,63.55140186915887,78.50467289719626,567.0,963.0,13.375,156.25,,,0.0422056759986905,0.028430891314359216,0.023381996934082862,0.09401856424713259,1.4845006275752684,0.44890789746321513,0.30239656967774114,-3.560279002619699,90.21268271253366,85.35482202200357,1.0569137229209826,24190.53824991723,0.946151022844428,5.090615641670851,323.03420864329115,0.6355140186915887,0.6509433962264152,0.8840579710144928,0.17391304347826086,51.17603136083629,51.13845751289674,51.204463434799074,50.943396226415096,0.5018302013045961,0.4981697986954039,63.917841610856016,63.684303216652026,0.5399344949635315,0.46006550503646837,62.71892388679651,57.8945785794329,0.5198255004381279,0.48017449956187214,63.321220336109484,60.85833018199155,0.7308473810559015,1.9846023926921117,0.9624171342919248,1.5917132604816486,-1.8714105470272422,-2.599314806008293,-0.18291072886590445,0.0014413735507474818,0.274047194650368,0.53714103559795,1.5968591302272401,6.472729720025792,1.4642354697353,1.2815537690652001,1.2322361386143719,1.231929766645924,1.8667277224825414,1.927046451282705,4.1374246875831515,1.0710741941011168,Relax
82.51435937252623,729.824074074074,83.56673182169413,,,,,,,120.9378847285532,121.50115542902134,0.1145025695784495,0.16570827001286137,715.5,77.8365,0.10878616352201258,122.5,0.6909888659724854,663.0,808.0,62.03703703703704,77.77777777777779,567.0,936.0,15.428571428571429,156.25,,,0.043085774064764146,0.03244462296030481,0.02935410500425371,0.10488450202932266,1.3279788801207066,0.41079256926555857,0.30933667350810545,-3.4282205518640363,85.91429092586168,81.38873868908031,1.0556041574015516,21967.44768959255,0.9473248025676355,5.0487497108642305,308.40628323944753,0.6481481481481481,0.6635514018691588,0.9014084507042254,0.16666666666666666,50.61572772229225,50.648444597126506,50.57442297451357,52.336448598130836,0.5013626380929072,0.4986373619070925,60.836232376860096,60.67066214640333,0.5192696765071811,0.480730323492819,58.64902533714349,56.4306531275556,0.5098316955537281,0.490168304446272,59.75263735940121,58.58902566900016,0.7516646676582989,1.6426498330095904,0.987986024424388,1.441224765576055,-0.9498476202429273,-1.6768224105411753,-0.2240807309971455,0.0013111906764261827,0.20732998141883446,0.539093604512582,1.6094379124341003,6.532665279941244,1.4204357769980813,1.518304852490712,1.227001758543289,1.2583383548613878,1.8055851426729135,1.9334417866971394,4.1275326768847815,1.1258145836939113,Relax
82.3266384573991,731.8148148148148,87.29744492606639,,,,,,,121.50981653355704,122.01484454294054,0.11928898289406309,0.1660390225419323,715.5,78.5778,0.10982222222222222,119.75,0.7184394431371534,663.0,809.6,58.333333333333336,76.85185185185185,552.0,985.0,15.428571428571429,140.625,,,0.040397859688050444,0.029816668407359553,0.040512841537369,0.11072736963277899,1.3548750362089135,0.36484077804817044,0.26928002088593667,-3.5126876993156584,86.27752398173567,83.8664212774126,1.0287493214518795,22731.895825712436,0.972054104092817,5.063605767081892,326.09079599314424,0.6481481481481481,0.6635514018691588,0.8873239436619719,0.2727272727272727,52.1224086870681,52.04249141525716,52.22909295239323,52.336448598130836,0.5349559695559484,0.4650440304440519,63.13851200426889,58.86841739029287,0.5372473366941386,0.4627526633058615,61.47170329013533,57.05090983051899,0.5360685623602205,0.4639314376397794,62.31068128139685,57.966787380912116,0.7072687594951738,2.7976781175608694,0.7384128495709694,2.027884603994494,-2.0384730052041853,-2.882026576641957,-0.03909216849158497,0.009036300658999142,0.808868684252773,0.5793033325383545,1.6554230256759237,6.495628242904208,1.4082260361356485,1.293305108986254,1.4306098341275406,1.4792121703347625,1.8322504090645253,1.9189397833242152,3.0877231595883843,1.1258145836939113,Relax
82.16164259058337,731.6574074074074,82.61091802173134,,,,,,,113.58935714262479,114.11299532014127,0.11290928949172964,0.1552493776358025,716.5,78.5778,0.10966894626657361,118.75,0.7272769218862962,665.8000000000001,813.0,57.407407407407405,75.92592592592592,552.0,936.0,15.428571428571429,140.625,,,0.045928542124501176,0.037274884032566714,0.036606086602619894,0.11980951275968778,1.232157881011081,0.3833463726425797,0.31111790018988017,-3.2894355294678523,80.69007281238063,84.16506336375272,0.9587121970507699,21335.451350570307,1.0430658993139352,5.036071944735687,351.15883003330833,0.6481481481481481,0.6635514018691588,0.8873239436619719,0.2727272727272727,49.1094147582697,49.034536598639775,49.17628890421133,54.20560747663551,0.4928899036051722,0.5071100963948275,56.65478047740893,57.466232907058576,0.4876631894348814,0.5123368105651186,58.774892312292,60.2434222525828,0.4901666704928738,0.509833329507126,57.72457066650612,58.87120624393257,0.7703123672196545,2.5052138708705565,1.0627215382667414,1.9199186952965905,-2.457794773843709,-3.2576311971227603,-0.157834739382161,0.003529001582716501,0.5017296768069461,0.5376806760763855,1.6613976513648112,6.47710972438569,1.4332221845182098,1.1873380195936065,1.589891333859817,1.747777267480094,1.8993544613694213,1.8956200373967858,5.296445230004914,1.0632693290442496,Relax
82.5884225091196,729.3981481481482,86.1729341265449,,,,,,,117.61671475085949,118.1551354915474,0.11814251838358425,0.16125173206084195,716.5,80.8017,0.11277278436845778,121.5,0.7326589108451118,663.0,813.0,58.333333333333336,76.85185185185185,543.0,936.0,15.428571428571429,156.25,,,0.04299628049505335,0.038302488976524815,0.02187868694338865,0.10317745641496681,1.1225453395836837,0.41672165596065575,0.3712292423887346,-3.2622403985748165,83.54829753808846,88.27024188358479,0.9465058184419177,23168.706825494537,1.0565175411664571,5.071871904035534,373.0362356520537,0.6666666666666666,0.6822429906542056,0.8904109589041096,0.38095238095238093,51.0206154158627,51.041939879057566,50.98633546192677,52.336448598130836,0.5227789394036635,0.4772210605963363,60.41601062320021,57.723519617060184,0.48702366609649567,0.5129763339035043,61.60122511659063,63.22123588100509,0.5039216858452157,0.4960783141547843,61.01149594743403,60.534822141073555,0.7527853551964998,3.482891698713249,1.193010345865994,2.3990374154837593,-2.6831031328708193,-3.4978857152010234,-0.1537282310376372,0.016781486999203732,1.3344898175097375,0.5303869507022445,1.6357552207514738,6.495628242904208,1.4855305061444897,1.564961212836442,1.5131375327915706,1.7535096222886846,1.8793050064656984,1.9061972347817733,3.5361344210448746,1.0632693290442496,Relax
82.66285197282036,728.0833333333334,81.1115679086413,,,,,,,112.96269337023593,113.49335284116378,0.11140423656903921,0.15515077491619905,720.0,80.0604,0.111195,116.75,0.7180385443077002,663.0,807.4000000000001,55.55555555555556,75.0,544.0,903.0,15.428571428571429,226.5625,,,0.044163497077665106,0.037064541575813875,0.008645487213785136,0.08987352586726412,1.1915295643770647,0.4913960663220334,0.4124077832503777,-3.2950945190650383,80.25191941358443,82.60778054429188,0.9714813651306815,20826.977844312936,1.029355822862832,5.0255963649906175,340.13119966816726,0.6851851851851852,0.6981132075471698,0.9054054054054054,0.45,50.26335590669675,50.20864089375585,50.30446226996217,53.77358490566038,0.526635422640274,0.473364577359726,58.239016293786456,55.214974384005785,0.43778652028851384,0.5622134797114862,54.65779992628924,61.94005419493612,0.4809263535823114,0.5190736464176885,56.476801041003505,58.67394528194792,0.7848410295073877,2.1707080844794744,1.0623037873549812,1.7744984221540823,-1.7167052883324114,-2.527200572071642,-0.17190676632602947,0.0032869874326664082,0.4051874310366875,0.5280225635638676,1.6784307839210517,6.440072687348652,1.480363090367752,1.439741178835428,0.7661812862602355,1.127911031994317,1.9656404809885668,1.9004541888111992,6.372905531188928,1.1258145836939113,Relax
82.4710664302443,729.7222222222222,80.46254522323181,,,,,,,108.61941617451946,109.10304784236017,0.11026462230819739,0.148850360954804,727.0,81.54299999999999,0.1121636863823934,115.5,0.7407749742822421,665.8000000000001,807.4000000000001,53.70370370370371,72.22222222222221,544.0,903.0,15.428571428571429,226.5625,,,0.051610913732549696,0.03356884047120433,0.009666733557567787,0.09484648776132182,1.537464893278695,0.5441520814395039,0.35392813443634574,-3.3941570092121642,77.14750497745318,82.37690356449814,0.9365186313060369,19965.363482615343,1.0677844162111694,5.007247331181711,351.8430955276058,0.6666666666666666,0.6792452830188679,0.8888888888888888,0.42857142857142855,51.48819705781731,51.476156736600196,51.49271514515166,54.71698113207547,0.5469900705399613,0.45300992946003843,57.07174399178766,51.93800731423554,0.4253937369396698,0.5746062630603301,53.72804140509179,62.443989363647866,0.4822253800599708,0.5177746199400293,55.42511342113523,57.43173517934554,0.8259101928188756,2.573781974783037,1.134564221119635,1.9570043778307822,-2.4831975737019754,-3.1475977687817167,-0.18045461318436778,0.0032670717646722663,0.5027172042265102,0.5425577379392954,1.739115735742633,6.421554168830133,1.4451761696354417,1.2397846210371095,0.0,0.0,2.017745384603472,1.882587280297192,3.3918199634148856,1.1258145836939113,Relax
81.92551233190295,733.803738317757,81.17375252568215,,,,,,,103.06606234618246,103.5092926975782,0.1106205219283466,0.1404545343179378,737.0,85.9908,0.11667679782903663,115.0,0.787589538960288,670.4,808.2,49.532710280373834,71.96261682242991,544.0,999.0,15.285714285714286,226.5625,,,0.05178145855027766,0.06192460515535046,0.019210297138360196,0.1329163608439883,0.8362016749299143,0.38957926790560105,0.46589151826113406,-2.7818376798022464,73.19212278228073,85.05255312130748,0.8605517423784959,19556.970050898144,1.1620451749200813,4.9982716806533976,395.3396358769971,0.6542056074766355,0.6666666666666666,0.8714285714285714,0.45,52.02026442604721,51.72842471547431,52.342394150073176,53.333333333333336,0.5506408986880073,0.4493591013119928,54.33669285552987,49.08578496585631,0.47487410758422033,0.5251258924157797,58.61065840473637,61.6338179396355,0.5071271090716458,0.49287289092835423,56.514093238381186,55.714189393414046,0.8012859506291765,3.3873813422155887,1.2545626436653696,2.3811450817239983,-2.6380096453499746,-3.418529162504081,-0.16741788885163916,0.013176253300075007,1.1832348168262394,0.5546763379177042,1.791759469228055,6.38632679948526,1.382339678348096,1.3296904746879321,0.9829564081810814,1.1487799625336477,1.9251173790264449,1.8740131910729174,3.2058960856036927,1.0710741941011168,Relax
81.9031800058146,735.2897196261682,85.25422684655388,,,,,,,115.79642188234797,116.33639299132412,0.1159464420227422,0.15748407572082,738.0,87.4734,0.11852764227642276,118.5,0.7362423247686727,664.4,814.0,52.336448598130836,71.96261682242991,544.0,1016.0,13.375,226.5625,,,0.04850223039216747,0.03677513376256188,0.013341401898588737,0.0986187660533181,1.3188865798645741,0.49181542553417074,0.37290198645032185,-3.3029333751780183,82.26225238294842,88.14233771640735,0.9332887521955935,22779.01989718159,1.071479751199686,5.064505143910193,377.7709203461394,0.7009345794392523,0.7142857142857143,0.8933333333333333,0.47619047619047616,50.90847913862719,50.898955115926206,50.89051316736117,50.476190476190474,0.4980905262239558,0.5019094737760442,58.06207679634584,58.28423784311142,0.4940251922978554,0.5059748077021445,61.952539412329195,62.697324970663644,0.49591792140128493,0.5040820785987151,60.038828692525996,60.53101246232952,0.7553665212028415,2.4562646432464916,1.1108598811170958,1.6787255789907203,-1.7659249087005318,-2.0422049210394775,-0.26880923664517453,0.0024314304171984507,0.42278465882360006,0.6148931953692345,1.9459101490553135,6.389975019350338,1.4047571855398668,1.324966202693642,0.9344174045708421,1.1796247178237738,1.8444577467640149,1.8929035595731776,3.3672315329842673,1.0710741941011168,Relax
81.95918531661884,735.3177570093458,84.00399789799327,,,,,,,111.78052957672382,112.28019277293961,0.11424176432193191,0.15201663296063053,730.0,85.9908,0.11779561643835615,116.0,0.7515083191687214,670.0,810.0,49.532710280373834,71.02803738317756,544.0,1016.0,13.375,218.75,,,0.0439054105859604,0.04121858688037915,0.013671985186815816,0.09879598265315537,1.0651847602970645,0.4444048169458451,0.41720913921253155,-3.1888659864854705,79.39408570267838,86.63547161295585,0.9164154615256396,21608.955161887283,1.0912081277363106,5.041603878307459,378.14932309730335,0.6915887850467289,0.7047619047619048,0.9054054054054054,0.34782608695652173,51.66547704020938,51.52075173739266,51.79907218818236,52.38095238095239,0.5380517917517958,0.4619482082482041,58.25342826617078,53.97667044548925,0.481722067957386,0.5182779320426142,60.13038920500329,62.37019509071704,0.5074425781960047,0.4925574218039952,59.19934801459844,58.32461825007969,0.7402503180126877,3.480379048653582,1.2771512838916914,2.1815721253734788,-2.1951035590380705,-2.505534886850016,-0.2401372583737191,0.011925363778605617,1.151636748964107,0.5653651661535615,1.7047480922384253,6.326845229610495,1.3364246484980398,1.5900838103088963,1.085951355463421,1.2592381506034074,1.802919352050269,1.8613387802103363,3.060216379376918,1.1340785584600062,Relax
81.33183786497361,739.626168224299,83.35732623510529,,,,,,,106.13177106874585,106.62504227718252,0.11270197001713757,0.14349380217785956,738.0,87.4734,0.11852764227642276,112.5,0.785413504322955,674.4,814.0,45.794392523364486,68.22429906542055,544.0,1016.0,11.88888888888889,218.75,,,0.050654590603226156,0.04310535459445476,0.014837390485714249,0.10859733568339516,1.1751345298002156,0.46644413773561283,0.3969282885551095,-3.1441080530588805,75.39529043849808,88.59669592203699,0.8509943813801383,20985.127735166872,1.1750958900318533,5.028881727040836,416.43845299355013,0.6635514018691588,0.673076923076923,0.8714285714285714,0.34782608695652173,51.03059787479195,50.8905751716066,51.1720725613226,51.92307692307693,0.5049820809243712,0.4950179190756286,53.58295748960982,53.05168189964341,0.5022181296026992,0.49778187039730104,62.786130587533755,62.508210133925964,0.5033791768215372,0.49662082317846284,58.36622108500847,57.973085507535295,0.7667581681059349,3.065121040567264,1.3185142937993297,1.9061765063255949,-1.3246334213033588,-1.398983151351496,-0.30827438631346643,0.008617271122039721,0.8588523933895181,0.6056920051797423,1.7247487589450947,6.326845229610495,1.2608965052850878,1.1044433646918046,0.9219018747859025,1.3502459511406204,1.822596845253985,1.8269720944652161,3.7684810497342696,0.9450654653833384,Relax
81.1868968572799,741.7641509433962,86.92454876958548,,,,,,,119.58949627391036,120.13829027919779,0.11718623589321812,0.16122307356295545,743.0,94.1451,0.12670942126514131,125.5,0.7268577214381071,670.0,822.0,50.943396226415096,70.75471698113208,544.0,1016.0,11.777777777777779,218.75,,,0.05553278413791512,0.04104700654885987,0.014828607433840988,0.11140839812061598,1.3529070401714254,0.498461382397696,0.36843727440026963,-3.1930373678167028,84.95059973657864,87.8911102031784,0.9665437100543824,23456.39531586105,1.034614357941179,5.077231382246254,363.7336182063953,0.660377358490566,0.673076923076923,0.8714285714285714,0.34782608695652173,51.41903171953256,51.48935552488041,51.32780492945276,50.96153846153846,0.4854225920023867,0.5145774079976132,59.19922361757016,60.95107590392604,0.5145126672524473,0.48548733274755274,63.043887603230246,61.23981946918626,0.5004593918778119,0.4995406081221881,61.15177773806664,61.09561826540705,0.7628265344895085,3.543712569532482,1.3036761635145337,2.338587171174067,-2.519199080164011,-3.114058225889758,-0.2079585357578626,0.012900092673938622,1.243453210936738,0.5530622533409231,1.5664205273504093,6.365990945349989,1.303221217172807,1.1143767982616344,1.2720924620945164,1.69695938084174,1.8296731852117107,1.8727016571540986,3.0130326850802023,0.9520642152683771,Relax
81.06213249675912,742.0,91.4216812879954,,,,,,,125.67399246046249,126.27290203185237,0.12320981305659758,0.16937195749388476,743.0,88.95599999999999,0.11972543741588154,118.25,0.7274510779687134,674.0,818.0,48.113207547169814,69.81132075471697,544.0,1082.0,11.777777777777779,226.5625,,,0.05050727570200413,0.036739771853436014,0.010942828888861377,0.09818987644430152,1.3747302488292545,0.5143837382324696,0.374170669970002,-3.3038954089739367,89.28842530682738,93.84560229226017,0.9514396319686826,26324.429162745244,1.0510388325224986,5.127329072377426,394.54148908251136,0.6415094339622641,0.6538461538461539,0.8529411764705882,0.34782608695652173,49.427332369620814,49.558008840528316,49.27865404684005,50.96153846153846,0.43054755738332623,0.5694524426166737,58.58938765812326,67.38094914508335,0.542945383516217,0.45705461648378287,69.14997036571006,63.4450838758882,0.48953998211420424,0.510460017885796,64.0875758151782,65.44261217169894,0.7978153529379891,2.6526323839667376,1.277701484841503,1.5776891648182627,-1.0704966107989424,-0.7308230869282037,-0.38690944067863664,0.0027582592257209397,0.48953323876907645,0.622246757551939,1.540445040947149,6.391980450087382,1.2551025752707012,1.5512651608066403,1.3619089641477649,1.9193564927142337,1.8173020951311543,1.8631858607726102,3.397444401082177,1.0790061106374942,Relax
80.52756589807811,749.2641509433962,95.8504094321973,,,,,,,139.55787329993245,140.21226516973934,0.12792605826865244,0.1862599099719579,750.5,87.4734,0.11655349766822118,117.5,0.686814775589187,679.0,822.0,46.22641509433962,66.98113207547169,544.0,1080.0,11.777777777777779,218.75,,,0.042987686057067855,0.029944813503190733,0.010176211409538892,0.08310871096979748,1.4355636595461634,0.5172464541375211,0.3603089634499682,-3.508399141263374,99.14504350704905,90.9380615801549,1.0902480411863666,28324.781802740905,0.9172224688538196,5.159136682963931,333.6417334213215,0.6509433962264151,0.6634615384615384,0.8695652173913043,0.32,51.137329931972786,51.02157937231755,51.248863091263445,50.96153846153846,0.4981486751731766,0.5018513248268234,69.98368628583269,70.24329286350186,0.509939243969896,0.4900607560301038,64.9388974066339,63.66058943778889,0.5035352159995544,0.49646478400044536,67.5084318531514,67.03279361579081,0.7258706913695057,2.8344595392988614,1.3221442029149086,1.4763559562532955,-0.8173490848089298,-0.2189418968882373,-0.44559394791130696,0.003331521983603925,0.5793762064100907,0.6068632609577462,1.2992829841302607,6.354244601030777,1.1342614139886742,1.1929110530729297,1.5406091469456626,1.9929602093527037,1.6925583689469206,1.8485211091619478,3.578036174923268,1.0155351629529357,Relax
80.67808379101378,748.0,96.39768817619168,,,,,,,142.9210238125205,143.60220990167485,0.12887391467405304,0.19107088744989373,750.0,88.2147,0.11761959999999999,121.5,0.6744822112570594,678.0,823.0,48.113207547169814,66.0377358490566,544.0,1080.0,11.777777777777779,226.5625,,,0.04580568881781572,0.030151325723663403,0.013659902534916354,0.08961691707639548,1.5191931936135876,0.5111277012438162,0.336446808340443,-3.5015263858415264,101.54209641484827,91.07796292007374,1.1148920458833431,29054.2257514371,0.8969478288883902,5.1701794166387085,326.76872440294983,0.6698113207547169,0.6796116504854368,0.8857142857142857,0.375,50.59462784498666,50.59810789840672,50.5752847809962,52.42718446601942,0.48205778324429527,0.5179422167557047,70.50317095978461,73.08020488582285,0.5041981613337414,0.4958018386662587,64.67164937686388,64.1309059389177,0.49192840303243646,0.5080715969675634,67.65027475372378,68.7513252334097,0.7047703380101099,3.7676987054867226,1.386721469104018,2.171660183742179,-2.0751469215235083,-2.126055398689276,-0.2916662727051153,0.012026667260759169,1.2988124245586432,0.6063679254223828,1.3470736479666094,6.369429888525464,1.1573227392389576,1.311618447145234,1.397697891350176,1.9877714879658033,1.627770385519595,1.8455428026842966,3.7532884589909514,0.9520642152683771,Relax
80.40029507804924,749.7142857142857,99.2120605926163,,,,,,,143.0689048621731,143.71284953591532,0.13233316008923668,0.19083123743049005,750.0,87.4734,0.1166312,118.0,0.6934564899912616,676.4,822.6,47.61904761904761,66.66666666666666,544.0,1080.0,13.125,226.5625,,,0.0465780321635168,0.031203304906712893,0.01831692077728259,0.09609825784751228,1.4927275268683569,0.4846917437090935,0.3247020872763997,-3.4672312632793076,101.62033045048769,93.86686243865654,1.0826006943280773,29966.966133936217,0.9237016059930168,5.183612887008711,346.8198863364505,0.6285714285714286,0.6407766990291263,0.8636363636363636,0.375,51.98485778596277,52.067086984915655,51.902153599472435,53.398058252427184,0.4980025799226398,0.50199742007736,71.73714830268862,72.02430145443967,0.5143190754758716,0.4856809245241282,67.31759897888183,65.41657841706578,0.5055119374427187,0.4944880625572812,69.5624811909534,68.79981370540227,0.6658533560127254,3.5625795632638404,1.35217848825914,1.9019219882056948,-1.4905063746815035,-1.211108214400895,-0.345689481404056,0.009886059456394427,1.1157583305058352,0.6205467173866954,1.4593194961347804,6.307056112883616,1.14542271908021,1.50796658688535,1.5139532755779508,2.020542089968818,1.5908184802738716,1.846564295215613,2.7302653896463145,1.0231231265015044,Relax
80.69324196137077,747.0571428571428,97.53715550136114,,,,,,,142.95595071963197,143.64444528657495,0.13056184046153058,0.1913587897344674,743.0,87.4734,0.1177300134589502,124.0,0.6822881804525432,676.4,822.6,49.523809523809526,65.71428571428571,544.0,1080.0,17.5,218.75,,,0.04476633031972152,0.038226634065107956,0.013771669543188796,0.09676463392801828,1.1710769575860405,0.4626311132745307,0.3950475758895979,-3.26422277948403,101.57196134191716,93.97157957058235,1.080879578762706,29986.117496428982,0.9251724425626676,5.183890348344502,347.759663211151,0.6190476190476191,0.6310679611650486,0.8461538461538461,0.3333333333333333,50.554642563681185,50.58379928504836,50.50700303652456,53.398058252427184,0.4913949748422169,0.508605025157783,71.20338706899474,72.4395295187179,0.49282056650608486,0.5071794334939148,65.96915766742453,66.92329940791008,0.4920524256994198,0.5079475743005804,68.63618613183064,69.73597866429488,0.650232637940971,3.317891917042785,1.2669774426055322,1.8814146217817869,-1.9382372193008734,-1.9415841337437787,-0.3148109719849168,0.0069171747251116885,0.8992737493692323,0.6288889058971785,1.4842747694800944,6.2736296842709764,1.1996976218881517,1.5082481773467882,1.3909580069387424,1.9621226350454712,1.557431957438888,1.8547844860248883,3.3928197278450876,0.8952327356888163,Relax
80.4990261714721,749.6476190476191,100.38387674633168,,,,,,,147.1396510906456,147.81612495298512,0.133908084539591,0.1962784211568329,743.0,87.4734,0.1177300134589502,131.0,0.6822353866021474,680.8,828.2,50.476190476190474,64.76190476190476,544.0,1080.0,15.0,179.6875,,,0.03740687406276709,0.04665526578569322,0.018081996230875693,0.102144136079336,0.8017717492938999,0.36621655925224067,0.4567591207532048,-3.064969479480459,104.5217843229738,94.06756347108237,1.1111352358467879,30888.483228683337,0.8999804593883727,5.196766692863885,338.6358759449984,0.638095238095238,0.6470588235294118,0.8787878787878788,0.28,51.69440545418087,51.8618935506781,51.52461796513429,51.9607843137255,0.49830165819272276,0.5016983418072771,73.80043939143542,74.05154331923923,0.5132241867486184,0.4867758132513815,67.3896890918648,65.63030017825537,0.504977735214215,0.495022264785785,70.66779694552227,69.96773316840081,0.6525986829987417,4.247723707325795,1.4984165796932338,2.2276868595577293,-1.799971564777426,-1.5553020137440312,-0.3283150388037795,0.020362508285616605,1.7923932486237943,0.6745708130208787,1.5040773967762742,6.23553444617574,1.1486568952540779,1.1894211338001774,1.549629689777337,2.013266097028899,1.483104310338774,1.8496271921981042,2.7227849118900216,0.9591779310951603,Relax
80.34311767582773,750.1415094339623,101.01470318996662,,,,,,,151.9150765269546,152.634815806673,0.13466086320991588,0.20251522494947102,742.0,84.5082,0.11389245283018869,120.0,0.664941923470271,680.0,822.0,54.71698113207547,68.86792452830188,544.0,1080.0,15.142857142857142,140.625,,,0.04283972242377141,0.06344794172183951,0.029391197814592974,0.1356788619602039,0.6751948331371243,0.31574352706714753,0.4676332098101581,-2.7575355247200197,107.92911330205811,92.00017070775688,1.1731403591075968,31194.434351916214,0.8524129207869858,5.201047224946005,313.68853690360135,0.6226415094339622,0.6310679611650486,0.8769230769230769,0.2692307692307692,49.20708095150286,49.3603939562669,49.03862769607928,52.42718446601942,0.4750471482042414,0.5249528517957587,74.39302464199594,78.20310710923488,0.49611929990222337,0.5038807000977769,64.80099796767668,65.30591146787228,0.4839143376755314,0.5160856623244687,69.76206509626651,72.04369519322296,0.5968097332752468,4.6057334023805,1.4266680968801473,2.35195035826539,-2.3792042235493938,-2.0771309027082645,-0.2991020798322793,0.023918978596520275,2.0940861964159057,0.6023036981713319,1.4870990602418563,6.241979180937474,1.1875042353301721,1.3450036034265274,1.4391671485698014,1.8896718242122532,1.5986440592799673,1.8936836893853617,3.284727877250252,1.205948006006611,Relax
80.84080783834087,745.9811320754717,99.93597770878596,,,,,,,152.29226288072988,153.01502535812614,0.13396582488721087,0.20415028789940268,742.0,82.2843,0.11089528301886793,109.25,0.6562117852766586,680.0,819.0,54.71698113207547,67.9245283018868,544.0,1080.0,17.666666666666668,140.625,,,0.049315823498592745,0.05859461722377827,0.03175702750233929,0.13966746822471032,0.8416442641864362,0.35309456185780325,0.41952945785131346,-2.8371124428677312,108.19796205416252,90.11909448322363,1.2006108436243155,30632.73491801416,0.8329093521938165,5.193155882699748,300.2441464252605,0.6320754716981132,0.6407766990291263,0.8787878787878788,0.2692307692307692,50.73610599926389,50.917807975707696,50.55816116775665,50.48543689320388,0.48857574844225954,0.5114242515577405,75.63220722173041,77.38049098200001,0.5193463757904284,0.4806536242095716,64.94494777835047,62.47883600503069,0.5011783418899723,0.4988216581100277,70.49140731735834,70.32547665376647,0.5990801836279698,3.4960090780773427,1.2443211502319065,1.89754761586373,-1.787216020527083,-1.7194768027589489,-0.31315080966807146,0.009441838393024258,1.0725198786450734,0.6101838759107632,1.4712875739532831,6.279715029994079,1.1512349054474855,1.1127160159837526,1.438686572711697,1.880666280658645,1.5903062517133326,1.8931766361998255,2.8865595754323716,1.205948006006611,Relax
80.58214425206229,749.6952380952381,102.15440084363284,,,,,,,159.69598521036053,160.45723037056536,0.13626123743719923,0.21301453856916913,741.0,83.0256,0.11204534412955465,117.0,0.6396804572705401,680.8,823.2,53.333333333333336,67.61904761904762,487.0,1080.0,17.5,195.3125,,,0.032697507354994805,0.03896015271737916,0.02560251953462689,0.09726017960700085,0.8392551125809437,0.3361859651824169,0.4005766067346927,-3.2452158803648907,113.4603956854388,89.40788543297073,1.2690200102148739,31869.11402671921,0.7880096388950378,5.210340100054434,281.8171020576167,0.6190476190476191,0.6310679611650486,0.8923076923076924,0.2222222222222222,50.90586145648312,50.95958255816275,50.8232171049526,49.51456310679612,0.49166909224172894,0.5083309077582711,79.56343259202208,80.90033422471073,0.5273364938200783,0.47266350617992176,64.92616292673755,61.46839305859517,0.5053313358102752,0.4946686641897248,72.61455239211529,71.84437146664955,0.4863394952205119,3.455346568106062,1.2015619451210293,1.7298832644721687,-1.4787887612586026,-1.3507761783269494,-0.3471003388697065,0.009304112387226527,1.0649594243769631,0.6739547780453017,1.5362345084108056,6.318914327148725,1.099092348742254,1.3525953502428327,1.3671117477388515,1.7945094913844397,1.5456240028267816,1.9037850957782307,3.291085022161211,1.1510135173141924,Relax
80.93107461326781,747.0849056603773,104.79332202683331,,,,,,,166.24686176773096,167.04408073447232,0.14026962830175566,0.22252740017652867,730.5,82.2843,0.11264106776180699,120.0,0.6303476704014032,680.0,822.0,53.77358490566038,66.98113207547169,474.0,1080.0,15.142857142857142,257.8125,,,0.046518041672190105,0.04242008195893001,0.02392903770110181,0.11286716133222191,1.0966042384648769,0.41214859240824986,0.3758407800659349,-3.160133397765194,118.11800224441849,89.96191807257503,1.312977810779102,33382.94693955291,0.761627494227503,5.230494782122113,274.06988095006096,0.6415094339622641,0.6504854368932039,0.8955223880597015,0.2692307692307692,50.093267763269466,50.206264257302834,49.97960867169133,50.48543689320388,0.4714857932068731,0.528514206793127,81.10558171060352,85.87065407209398,0.560634178641892,0.439365821358108,67.35944369300479,59.63096551847554,0.5042138465835196,0.4957861534164802,74.5500168988796,73.92435755363333,0.5265000255653602,3.2704215332350595,1.2521246454619113,1.7319143920000357,-1.0849195586883553,-1.0900050418921483,-0.3532942186007677,0.011121685067409426,1.0556852597423154,0.6646565158668101,1.5248805244060375,6.317450879050682,1.1106767449506278,1.453297150374209,1.3440126943310144,1.8486337174188006,1.5229989392524996,1.9221427516652498,4.168928114728961,1.0155351629529357,Relax
81.40908065450502,741.3584905660377,102.37821463566175,,,,,,,156.75242840072306,157.4802958777497,0.13809542338618733,0.21143944582200758,718.5,71.1648,0.09904634655532359,111.5,0.6531204376237243,679.0,822.0,51.886792452830186,66.98113207547169,476.0,1080.0,11.777777777777779,257.8125,,,0.045967728851005966,0.054987502502103935,0.02064947749308989,0.1216047088461998,0.8359668426338721,0.3780094478836662,0.45218234576466665,-2.9006493468041596,111.35538511842071,91.45531145140772,1.2175934164041018,31994.109733419962,0.8212922199869338,5.2120401399773755,300.4461430860924,0.6509433962264151,0.6601941747572816,0.8970588235294118,0.32,51.294075209667234,51.48010046391588,51.11796200528968,47.57281553398058,0.47638730242648314,0.5236126975735168,76.87008270702339,80.59022058442423,0.5803263589792498,0.4196736410207502,69.66988306579489,59.24678376310783,0.5182478338316868,0.48175216616831307,73.35837451097915,70.72823000796292,0.6205891739441439,4.743294405254651,1.5212670725788562,2.4792974497082327,-2.595342696210764,-2.3792780582258146,-0.29802426430287265,0.024561673334179687,2.2345247792513603,0.6508817726146829,1.3462890265061913,6.291461374313291,1.109998375423418,1.0671798299406519,1.2166736324614722,1.5832892735240087,1.4933594335466642,1.910193595344122,3.048858233734773,1.0155351629529357,Relax
82.05821718488258,734.8785046728972,99.64386681562152,,,,,,,157.33478906159505,158.07792754524303,0.13559230019930185,0.21409632757135352,715.0,59.303999999999995,0.08294265734265734,107.0,0.6333238021287962,679.2,803.6,52.336448598130836,67.28971962616822,476.0,1080.0,13.375,296.875,,,0.050177194273744924,0.07834893464707998,0.02777456383948409,0.156300692760309,0.6404323747319135,0.3210298904477212,0.5012705526982534,-2.5465829076295403,111.77797452315706,86.44351697053631,1.293075275514945,30355.580071570977,0.773350182263571,5.1892086462804725,267.4044384186734,0.6728971962616822,0.6826923076923077,0.9014084507042254,0.36,49.45299297340567,49.61031511991011,49.321642781341694,49.03846153846153,0.45821469853263147,0.5417853014673684,75.66631004740799,82.27760790096393,0.574235805145581,0.425764194854419,65.50546926079413,56.40492108990628,0.5016335838185079,0.4983664161814922,70.7684851444035,70.53764911401328,0.5836921376031997,4.390733626682944,1.4487583021568902,2.262332373259684,-1.986581319823184,-1.7449859600769113,-0.314706575193125,0.02365559908037071,1.987592173914841,0.67522709654973,1.2914151229296473,6.278758808790617,1.1082087865966272,1.3656234604977904,1.235433797121394,1.6290634895675216,1.4693233576330968,1.9225754395502694,4.003351591369224,1.0710741941011168,Relax
82.59885346729388,729.4678899082569,100.71343365536912,,,,,,,155.71415525939878,156.42870147958948,0.1380642452514744,0.21346265875936296,710.0,66.717,0.09396760563380281,105.0,0.6467840607528206,666.8,798.4000000000001,54.12844036697248,68.80733944954129,476.0,1080.0,13.625,296.875,,,0.043472027519741184,0.07616231542869979,0.03603583876480761,0.1556701817132486,0.570781327682166,0.27925725428790593,0.48925436194963895,-2.574888486798614,110.61179558842383,89.64278630419388,1.2339174198922567,31150.61763721363,0.810427005793725,5.200436771993077,290.59573958205834,0.6513761467889908,0.6571428571428571,0.8985507246376812,0.34615384615384615,49.11546840958606,49.21468564506867,49.040311333338806,48.57142857142857,0.4544834868148464,0.5455165131851536,74.57480720162056,81.70281798866989,0.5639777844385545,0.43602221556144544,67.32034694252563,59.192905182271204,0.4978858264868471,0.5021141735131528,71.0402385328938,71.34125906937398,0.5572196827925644,3.960828524455821,1.3527216257758088,2.0785789029766093,-1.4448116331393095,-1.340583802705479,-0.316741049828577,0.02355327342054411,1.7212828729889258,0.6772160798412132,1.4294665329850995,6.2841945311790965,1.1679302386500587,1.2825847458576793,1.1145184101151442,1.4444653135530268,1.5300870301655984,1.9404435220227438,4.120420768114834,1.0555883809285114,Relax
82.87971901611722,728.3577981651376,103.4116659132754,,,,,,,159.8607032526895,160.60442256333428,0.14197921155479865,0.21948100735024315,709.0,81.54299999999999,0.11501128349788434,111.0,0.6468860940128237,652.0,796.4,57.798165137614674,71.55963302752293,476.0,1080.0,13.625,296.875,,,0.04008672288410877,0.08050568825876313,0.03952807565404978,0.16012048679692167,0.4979365278545431,0.2503534912115908,0.5027819354613082,-2.5194274354544905,113.56447628308344,90.07988839266449,1.2607084479062407,32138.10124340551,0.7932048061237155,5.213990324521328,285.80720163259747,0.6788990825688074,0.6886792452830188,0.9315068493150684,0.3333333333333333,49.685586629157704,49.87161938400882,49.50271537713255,49.056603773584904,0.4627183161665921,0.537281683833408,77.25116821546588,83.24300088452893,0.5466708729939145,0.4533291270060856,66.60254228266291,60.650537131347704,0.4951397338596176,0.5048602661403825,72.12364948187282,72.82817054746971,0.5159265474655345,2.8270104450742024,1.161604536520651,1.4823266037051164,-0.5446445704310605,-0.492261631532815,-0.3865508021934291,0.008858708360747484,0.7924482779969746,0.6402432391794264,1.3204477953223044,6.339240402738731,1.1819321312972215,1.236872719845221,1.2337475748690518,1.482402720112594,1.5602495931206086,1.9550250423860103,3.3072292632052087,1.1176818151007768,Relax
83.69620304540838,722.3119266055046,102.50805724860585,,,,,,,159.87104178055512,160.59323730398586,0.1419166062096484,0.22133241317482735,704.0,65.2344,0.0926625,90.0,0.6411921515424425,656.8,794.4,55.04587155963303,69.72477064220183,476.0,1080.0,10.9,281.25,,,0.03837322473986725,0.092350697344356,0.03927214779756548,0.16999606988178873,0.41551635064304604,0.22573006991603445,0.5432519552279915,-2.382162021262463,113.55656711034882,88.8118027150018,1.2786202243270894,31683.47535826781,0.7820930570109499,5.207802923224456,277.83637713611654,0.6330275229357798,0.6415094339622641,0.8970588235294118,0.23333333333333334,51.240999576450676,51.365394818066704,51.124576272983155,47.16981132075472,0.4752206698800332,0.5247793301199669,78.29291394393094,82.27410307857009,0.5770135975632807,0.42298640243671903,67.46269856174446,57.76089165045502,0.5138467690539643,0.48615323094603574,73.07871123338374,71.08216598289188,0.5003089422963882,4.221783759358712,1.3494888375599545,2.1814848029013114,-1.8506025475500891,-1.8452132854718322,-0.30292785875235434,0.024328512190375778,1.9342840337993625,0.6553188791075093,1.3249254147435983,6.263417810936065,1.1327045393293165,1.1248255505022582,1.1578580125470332,1.575013981697467,1.4363229907502975,1.950688016393443,3.2194618591233506,0.9934949467562461,Relax
83.51424127987819,721.559633027523,97.65969174872853,,,,,,,145.3398316590007,146.01698242128245,0.13534528163523724,0.2014245600868541,705.0,62.2692,0.08832510638297872,90.0,0.6719403114340995,661.8,788.6,55.04587155963303,71.55963302752293,476.0,1080.0,10.9,218.75,,,0.04114079522939476,0.10673829479668973,0.03501349645338776,0.18289258647947226,0.3854361296267463,0.22494512227816504,0.5836119268217028,-2.237375283501961,103.24959843848569,92.40928494059973,1.1173076223331244,29974.631565780106,0.895008661904439,5.183723963619849,330.8284418489288,0.6055045871559633,0.6132075471698113,0.8769230769230769,0.2413793103448276,49.82739825581394,50.085317696909094,49.573319796876326,46.22641509433962,0.4221870676913203,0.5778129323086797,67.08757702178701,78.4843873991545,0.6073866615710115,0.3926133384289883,72.01919039204917,57.90260925473673,0.5045571715469084,0.4954428284530917,69.597078873256,68.96561180736123,0.44313706496616573,2.995275101880475,1.1144131551394985,1.5291193494151232,-0.7632365883678869,-0.8167409742073213,-0.361546542414329,0.010271382696976838,0.9088537506593433,0.5942088152466436,1.2714551015075204,6.208371939376432,1.2105925963633148,1.186543909437678,1.343409066928324,1.7236338548354009,1.5545212804042936,1.9796116053146373,3.4958678612223406,1.1176818151007768,Relax
80.5656644797107,753.6190476190476,137.13170122132036,,,,,,,219.62393557379642,220.6849367298938,0.1819642187316901,0.2914256695974804,742.0,106.74719999999999,0.14386415094339622,144.0,0.6243932423077919,640.8,858.8,62.857142857142854,79.04761904761905,430.0,1138.0,17.5,109.375,,,0.038250781622234296,0.09229327566093648,0.028659288768006407,0.1592033460511772,0.414448196234345,0.24026367894264153,0.5797194465452257,-2.382783993204856,156.0478152674321,115.38247191188049,1.3524395229338508,56564.94957749659,0.7394045966881366,5.459517514289268,341.257320435537,0.6761904761904762,0.6893203883495145,0.8873239436619719,0.36363636363636365,50.32993401319735,50.60691580588825,50.07543259460243,52.42718446601942,0.44964063913487057,0.5503593608651294,104.63946423662611,115.76730091509022,0.5434892281553472,0.45651077184465266,85.0619450771541,77.95883737067342,0.482812822911565,0.517187177088435,95.35447544828962,98.69054738259423,0.38517670880419214,3.7672725756274223,0.9414887873049448,2.0010654428570693,-2.4538265599634137,-2.839215666174086,-0.21874170655791828,0.016289834419717746,1.4333966950433745,0.5635304726013692,1.2916783847450413,6.523769327189934,1.2236414466725336,0.9653845331710162,1.1771503841295607,1.1833925827374936,1.7561184754496437,1.9987426886521575,5.347935740343875,1.1510135173141924,Stress
80.59252476465007,751.9333333333333,133.77458556687716,,,,,,,213.72855268019111,214.75442994089374,0.1779075080683711,0.28423869937076573,736.0,88.95599999999999,0.1208641304347826,124.0,0.6259088169985803,665.4,828.8000000000001,58.0952380952381,75.23809523809524,430.0,1138.0,17.5,296.875,,,0.02189703992289597,0.06961659406764759,0.018244593281758856,0.10975822727230242,0.31453765034265047,0.19950249258828645,0.634272216286199,-2.6647523195472385,151.85431370105727,113.43583275787567,1.3386802918367455,54116.197077866025,0.7470043490577897,5.440297379666242,338.9482416365008,0.6571428571428571,0.6732673267326732,0.8823529411764706,0.36363636363636365,50.648611023223445,51.00889851742396,50.30764977949579,51.48514851485149,0.4428623180245305,0.5571376819754695,101.06015703434178,113.3513953815808,0.5546248398165401,0.44537516018346,84.47922514399032,75.70302948062073,0.4828887583492599,0.5171112416507402,93.13939773461827,96.38331678121268,0.4730388456367903,2.8878460209089485,1.068491460650017,1.7617787071603124,-1.379514930384211,-2.079274709981344,-0.25992928934206694,0.010256629011261188,0.9073084933178216,0.6389991843521861,1.2738163776932006,6.535627541455043,1.146115828395168,1.028687059961522,1.2308032287518798,1.2378207314130343,1.6571395148339199,1.9864639623231668,4.097697380395995,1.1510135173141924,Stress
80.12786915583622,755.9326923076923,142.19938582358026,,,,,,,224.4940806190883,225.5917893784912,0.18811117348222836,0.2969762822848135,740.5,101.5581,0.13714800810263336,138.75,0.6334215380264655,635.6,860.8000000000001,66.34615384615384,78.84615384615384,430.0,1138.0,20.8,109.375,,,0.014464653936297039,0.07054267300820007,0.023833244544938074,0.10884057148943517,0.20504828240086154,0.13289762942581645,0.6481284694012052,-2.651537461382106,159.51748404953847,118.7532086995232,1.3432688328713676,59511.8590304166,0.7444526185144956,5.481573626921952,353.6245486934337,0.6730769230769231,0.6831683168316831,0.8840579710144928,0.42857142857142855,50.05171819331111,50.40388041359803,49.742314475251916,49.504950495049506,0.4367060223249993,0.5632939776750007,105.41514569157731,119.72255508498986,0.5832266255550872,0.4167733744449127,90.69096523466553,76.66468157657216,0.48895322423949555,0.5110467757605045,98.32904992008156,100.52602547926492,0.2854927681192032,3.574201343015286,0.8201806379288121,1.9286716872384462,-2.467307975567831,-3.1822880452395435,-0.18986328890624743,0.016155482194712377,1.373409144065861,0.5631763215407686,1.278080776479658,6.527362795064168,1.245247099467021,1.136873119921477,1.2487608581507885,1.2362501890904556,1.7532575985589716,2.0112740694346924,3.8004298926980584,1.159691489678266,Stress
79.93968292897567,758.1538461538462,137.14217477336553,,,,,,,218.81441353991178,219.88160417670406,0.18088963799246668,0.28861479058632844,744.0,90.4386,0.12155725806451612,124.5,0.6267511017885975,671.2,847.6,64.42307692307693,77.88461538461539,430.0,1138.0,20.8,109.375,,,0.012100438851149834,0.06580092103620573,0.016192561836303347,0.09409392172365891,0.1838946729103046,0.1285995803925272,0.6993110695232165,-2.7211214432381046,155.47977337152372,115.6061278402353,1.3449094462050728,56468.288724720405,0.7435444838473677,5.458774736574672,343.83319461824226,0.6634615384615384,0.6699999999999999,0.8955223880597015,0.30434782608695654,50.339973756411794,50.575374686343956,50.12144449319301,49.0,0.44877072698714854,0.5512292730128513,104.15778001308833,115.43714867458243,0.5735745736326642,0.4264254263673357,87.55396136918277,75.49225551522805,0.4932034441569859,0.5067965558430141,96.21470596715258,97.5315742129033,0.4358212612716079,3.0234526484445983,1.0364912837877998,1.7439796756041916,-1.3382704766342393,-1.9063536031480683,-0.26599984386050957,0.012063263111559488,1.0086592064015671,0.573795852505449,1.2170938922886332,6.488901256602629,1.2276124538013584,1.0008999256400024,1.1256895583796958,1.16239220964995,1.6020644402624495,1.9994977754265209,5.017146735769163,1.2241187946603918,Stress
79.35936233411422,762.5769230769231,139.30309848920464,,,,,,,227.69938451550075,228.8062453802239,0.1826741595157775,0.29859202085050784,751.0,89.6973,0.11943715046604528,119.0,0.6117851340951759,675.8,857.8000000000001,66.34615384615384,79.8076923076923,498.0,1138.0,20.8,46.875,,,0.022988766211872944,0.08220156232611982,0.02473717658182596,0.1299275051198187,0.27966337331484253,0.17693533167340342,0.6326725218829825,-2.4985809707001376,161.79044768618948,112.32165973053513,1.4404207351844005,57090.81747516431,0.6942416028688878,5.463536371612915,311.91347635288207,0.6923076923076923,0.7029702970297029,0.9154929577464789,0.36363636363636365,49.49813916770046,49.90215777546253,49.144135175670804,48.51485148514851,0.4133235909533688,0.5866764090466313,104.01847498043269,123.9266465514588,0.6623370867505031,0.33766291324949677,91.4119659055372,65.26873473499408,0.49430539579090094,0.505694604209099,97.91830944202927,99.03994512164579,0.2516332915396123,4.1807919857579465,0.9106506899661481,2.213450101908641,-2.742471767993166,-3.4878010182230437,-0.18838454140255323,0.029701324128776088,2.113659344427835,0.6230085690436025,1.2439781389396354,6.46967048737186,1.2365394455207253,0.9767520361863677,1.1343336773831918,1.1590201316543207,1.6715068979014873,2.0359510367128766,5.5477413739345875,1.159691489678266,Stress
79.596003464913,761.375,136.127808840831,,,,,,,219.521677722933,220.5946832486125,0.17879206546160695,0.28832267637226466,749.0,84.5082,0.11282803738317758,110.25,0.6201110079554115,675.8,857.8000000000001,64.42307692307693,76.92307692307693,498.0,1138.0,14.857142857142858,210.9375,,,0.019695904575571646,0.0792228518474245,0.03172959235083454,0.1306483487738307,0.24861393040361687,0.15075509763745903,0.6063823430678759,-2.535490488352444,155.98399641879237,106.16153431795185,1.469308044772819,52023.20476877531,0.680592475864799,5.423167212349217,289.0109659322427,0.6730769230769231,0.6831683168316831,0.8985507246376812,0.34782608695652173,50.138022083533365,50.60149193746638,49.74334242398115,49.504950495049506,0.42063133896613436,0.5793686610338656,101.16534224025655,118.72944610562713,0.6685513979349332,0.33144860206506693,86.80297044847195,61.11886525503704,0.49911499336906556,0.5008850066309347,94.2581088004277,94.4250948175653,0.2508170954940379,4.90028505063571,1.1283786517981749,2.4711670400210086,-2.7206682931994344,-3.2256729164620137,-0.22597749429930916,0.04855434141803299,3.0992562206841137,0.6333991272513702,1.1738357099056973,6.462411953697211,1.2185589187538675,1.0530064442279474,1.2934231893465475,1.3656126012911531,1.6104465973423614,2.016768999313707,3.827721552921838,1.159691489678266,Stress
79.7296892393631,759.2884615384615,131.13719733838104,,,,,,,212.98746487569346,214.02376925342782,0.1727106415823472,0.2805092868712119,753.5,88.2147,0.11707325812873257,115.75,0.6157038275229815,675.8,843.8,63.46153846153846,75.96153846153845,498.0,1138.0,17.333333333333332,328.125,,,0.016344179802920543,0.09022668042144147,0.035726182673452324,0.14229704289781434,0.18114575119663287,0.1148595885766758,0.6340727718863042,-2.405430103839343,151.33765857420372,106.12265719654299,1.4260636001030478,50455.09159123166,0.7012309969399259,5.409875108847901,297.66598681538335,0.6346153846153846,0.6435643564356436,0.8769230769230769,0.2916666666666667,50.476368391556136,51.04522669412018,49.96189471917668,50.495049504950494,0.42711061867450045,0.5728893813254995,98.90716582220114,114.54943705410237,0.6607907032911746,0.3392092967088255,86.26608278744939,61.80761547709073,0.5041372682647838,0.4958627317352162,92.80211336621453,92.03736974831382,0.3452158223462917,3.0104648957091324,0.9578943969104637,1.5917796907829826,-1.3589849705861567,-1.7965388601030488,-0.28943940028132975,0.010117925273657595,0.9299970929437176,0.615949163968974,1.2350633913959672,6.450439718141092,1.197513219402047,1.1731217492954695,1.3888265036890546,1.5439583382794548,1.5675814879966536,2.0073259215625034,3.4139531085081427,1.09526418469614,Stress
79.77355240985881,757.9807692307693,133.77912391520226,,,,,,,211.4928445621054,212.51640310259387,0.1764940871138023,0.27902138569654905,753.5,88.2147,0.11707325812873257,115.75,0.6325468088161142,657.6,843.8,63.46153846153846,76.92307692307693,498.0,1138.0,17.333333333333332,328.125,,,0.02202043597242834,0.08485639676223944,0.03784206738566718,0.14471890012033495,0.259502368856502,0.15216005617868963,0.5863532454412012,-2.46679490107764,150.27178974721798,114.83971937449081,1.308534978713973,54214.99901045734,0.7642134266695714,5.441089564144446,351.04822184380635,0.6538461538461539,0.6633663366336634,0.8955223880597015,0.3333333333333333,49.3151545614476,49.709208123701586,48.95456508677697,51.48514851485149,0.4105048501121092,0.5894951498878906,96.28493763661206,115.38233544756032,0.6373849499999702,0.36261505000003,91.6838886208601,69.15363846804824,0.4941492787082939,0.5058507212917064,94.01256471432038,95.11915960179331,0.32726226253189095,4.923049968252746,1.2014797266843473,2.6363249334408545,-2.9807114277304585,-3.6812248499230042,-0.20854547160614081,0.047361785330279016,3.12362207019629,0.5974387999050896,1.235063391395967,6.443181184466443,1.2076989216579053,1.1009364118928302,1.4200176387209065,1.7114040026975241,1.5514111956059038,2.006485594525826,5.572150834038101,1.159691489678266,Stress
79.81926353872632,758.2884615384615,132.04498152949517,,,,,,,204.98870440109337,205.95631575097565,0.17413555424751462,0.27033077093801466,758.0,81.54299999999999,0.10757651715039576,112.0,0.6441573545005091,672.8,832.2,59.61538461538461,76.92307692307693,498.0,1138.0,11.555555555555555,281.25,,,0.018109548770998365,0.08338497038001663,0.022845136021092862,0.12433965517210786,0.2171800108396795,0.14564580178328126,0.6706224998340009,-2.484287197128222,145.6331074957126,115.11454041436545,1.2651147889006267,52667.19309121645,0.7904421075252712,5.428510283123156,363.96551972773614,0.625,0.6336633663366337,0.859375,0.3333333333333333,51.29006516824045,51.879915868232786,50.736031362617865,48.51485148514851,0.4198807420719216,0.5801192579280785,94.3835780415299,110.9410062273869,0.6612497744864572,0.33875022551354295,93.60799699909693,66.9992560602552,0.5126772919439461,0.48732270805605377,93.99658745429142,91.64280434211064,0.4307991590120291,4.704966021868691,1.4029051654992726,2.5695645101069173,-2.3277232910583834,-2.8994313438987156,-0.25203660575124026,0.04428107055258884,2.895271131897896,0.6073878678810356,1.1155618469818827,6.378230343099487,1.1628034872741582,1.019624350083779,1.2498194379104643,1.4793348148113346,1.4683110861053683,1.9710437276948862,3.302799944712803,1.09526418469614,Stress
79.62980648048845,759.75,133.6883602633487,,,,,,,208.4603755041706,209.4797440874489,0.17596361995833984,0.27438022442141574,757.0,74.87129999999999,0.09890528401585204,103.25,0.6413130550111382,656.6,832.2,61.53846153846154,76.92307692307693,498.0,1138.0,11.555555555555555,281.25,,,0.018784770386610382,0.08293106161880778,0.026771443180956627,0.1284872751863748,0.22651067066950725,0.14619946107007475,0.6454418268152523,-2.489745599216568,148.1245475654577,115.53696141774516,1.2820533424787426,53764.77728124906,0.7799987464379476,5.437467961054922,360.474740292363,0.6346153846153846,0.6435643564356436,0.8769230769230769,0.28,49.98712833054448,50.45252362007601,49.55228130084241,50.495049504950494,0.41678731171552796,0.5832126882844723,95.62782739636522,113.12029429060091,0.6379289091234627,0.3620710908765375,92.27989322860574,69.52129716398174,0.5004370730230383,0.4995629269769616,93.96877158618148,93.88666502692173,0.4169836404954032,2.963682222337493,1.0304602503881148,1.6424578338490825,-1.2800852901349362,-1.7201274125477777,-0.29350094323598647,0.00982482219333553,0.9053766303846548,0.6007300389819381,1.17760069998674,6.378230343099486,1.1761731372658268,1.1298908071216711,1.3030571769948125,1.5680663374383161,1.4610915793606332,1.9886435600063377,3.450361538950896,1.09526418469614,Stress
80.0153515159782,758.3653846153846,135.03635308397352,,,,,,,210.3609242387995,211.35792773179125,0.1780623902717541,0.2773872970817186,758.5,78.5778,0.10359630850362557,114.75,0.6419269813184586,656.6,832.2,62.5,76.92307692307693,492.0,1138.0,11.555555555555555,289.0625,,,0.018409048426310366,0.08984404886004202,0.031376165014803746,0.13962926230115613,0.20490003133082038,0.13184233822424155,0.6434471355027571,-2.4096799021137385,149.45262395668584,116.92699084425558,1.2781704453144933,54899.47485622035,0.782368269948497,5.446538300165316,365.9198701484159,0.625,0.6336633663366337,0.875,0.23076923076923078,51.187535626068794,51.76021582936939,50.648960349401925,51.48514851485149,0.4391316491027609,0.560868350897239,99.0526202007168,111.94354757259238,0.6284534885665664,0.37154651143343354,92.69394028704508,71.27239733553483,0.5110021138074053,0.48899788619259454,95.92598223256755,93.83792534229326,0.40968801700946816,4.695505895226286,1.3794894849542514,2.55533888667281,-2.366249946360014,-2.9600131797358444,-0.24957982633692502,0.0441636109878805,2.8844678705828906,0.5562475674601473,1.1233049012584813,6.351741040194069,1.1805490060818498,1.149646086905682,1.2154219727959474,1.4680865955015856,1.42333267327013,1.985330608258988,3.2220081871355752,1.159691489678266,Stress
79.64828643808359,761.3689320388349,143.81605832855385,,,,,,,221.46225279212868,222.51134178697504,0.1888914194902009,0.29087377153554855,759.0,99.3342,0.13087509881422923,133.5,0.6493930975385862,642.2,844.2,62.13592233009708,77.66990291262135,451.0,1138.0,11.444444444444445,328.125,,,0.015376468895718936,0.08837715392325551,0.02473191050197929,0.12848553332095375,0.17398692097588334,0.11967470966018322,0.6878373902413708,-2.4261417825220324,157.33927866848765,124.84468316115431,1.2602801712059142,61710.217768197566,0.7934743582001597,5.497327188953712,396.2442193839968,0.6504854368932039,0.66,0.8939393939393939,0.3333333333333333,51.3677075768579,51.771227581377985,51.03460608599823,47.0,0.420882637261416,0.5791173627385839,102.095034353312,119.75879223185112,0.6932946011189487,0.30670539888105125,103.95106918927166,69.14022076921842,0.5261039719018231,0.47389602809817677,103.02723141285682,97.78174278680031,0.38851951717604405,3.4417436482246186,0.9964983620126271,1.8939741310851859,-2.136384402130883,-2.692519882705116,-0.2392380546600236,0.012536533936426992,1.1958297374717992,0.5820596096876982,1.139997504830964,6.373251376634768,1.236624642879978,0.8267500846018806,1.3054038347195045,1.4448275132848878,1.3981488505611313,2.0185210843674866,4.440881084673468,1.1685146552359023,Stress
79.59653054179871,759.6826923076923,137.102984779324,,,,,,,212.3260453042987,213.33210917814583,0.18047401391078888,0.2794930665845693,760.0,98.5929,0.1297275,138.0,0.6457191089431941,645.8000000000001,848.2,62.5,76.92307692307693,451.0,1100.0,13.0,328.125,,,0.01413045201716225,0.09375431663982332,0.022490335186589903,0.13037510384357548,0.15071788183841514,0.10838305474422492,0.7191121147815928,-2.367077571033501,150.84858104469583,120.20763059262792,1.2549002114175858,56966.97241496575,0.7968761108665045,5.462593248877601,383.16235665252316,0.6346153846153846,0.6435643564356436,0.8769230769230769,0.24,48.813982521847684,49.30384568289857,48.354060423064304,49.504950495049506,0.38621792870091887,0.6137820712990812,93.76116926929343,118.199026239312,0.6984103274394169,0.3015896725605831,100.458655913586,66.01464159358457,0.5074459191889108,0.4925540808110892,97.1676345567529,95.73124544434538,0.3915350019910801,3.2803774287469327,0.9820212481975205,1.815983236336435,-2.039921135277716,-2.6038049433538166,-0.24577255018564179,0.010546621423037542,1.0556710699196288,0.5797525659200811,1.163150809805681,6.390202578655607,1.2416735828455432,0.9366835379532834,1.3627365788267192,1.5207931552979608,1.3955461688138455,2.0016412461062987,4.344442272792191,1.2885460996425178,Stress
80.14295198252604,755.1057692307693,133.44151973690123,,,,,,,206.25709755366512,207.2347664593682,0.17671897788946692,0.27314994264151954,759.0,94.8864,0.12501501976284585,127.25,0.6469669229306481,645.8000000000001,843.8,61.53846153846154,75.0,451.0,1067.0,13.0,328.125,,,0.01669240550196862,0.10855450721257431,0.020796119578771824,0.14604303229331478,0.15376980588453235,0.11429785618558898,0.7433049390165495,-2.220502861524693,146.53710866102972,117.50559930115476,1.24706490186455,54094.86641935651,0.8018828839660623,5.440126162655584,376.90291539908196,0.625,0.6336633663366337,0.890625,0.28,51.181355823086335,51.808446569971245,50.58967167617543,46.53465346534654,0.4113966212708176,0.5886033787291826,94.00323315257435,112.44076872108369,0.6983699283979778,0.30163007160202243,98.19770254936431,64.53508411050623,0.5236870282455175,0.4763129717544827,96.12334947636471,91.67252465089621,0.37789568248134797,3.2124841484813453,0.9956258698940151,1.8213792694293889,-1.826519661140857,-2.507097372774337,-0.24295487187828252,0.012184666200316439,1.097812514038028,0.6237964219456109,1.179802443398123,6.4094333478863765,1.2452756924344925,0.9115751009300588,1.3319679767674757,1.4443084801123003,1.4133150185797223,1.9891925281073704,3.72689956067841,1.159691489678266,Stress
80.39184032166106,753.2884615384615,125.41632982949795,,,,,,,194.42024845604107,195.34740198528988,0.1664917707266573,0.25809534910301335,752.5,73.3887,0.09752651162790697,102.0,0.6450785390177861,665.0,814.8,54.807692307692314,71.15384615384616,451.0,1067.0,14.857142857142858,328.125,,,0.01879939517855847,0.10771871325642127,0.016443971215171622,0.14296207965015137,0.17452302028345862,0.13149917253976212,0.7534775201929375,-2.2282319563716766,138.13147263097292,110.46862820905078,1.2504135777767873,47938.17269385416,0.7997353977697378,5.3876515855480225,353.38268928737,0.6057692307692307,0.6138613861386139,0.8870967741935484,0.17857142857142858,51.11317918247546,51.60375315368976,50.64593166039035,48.51485148514851,0.4239948362850121,0.5760051637149877,89.95499964306772,104.8475316922663,0.6698068310464014,0.3301931689535985,90.40943333628161,63.47796611582589,0.5198686650565827,0.4801313349434174,90.18250272910998,86.66734415038552,0.49269905792568497,4.093707430057911,1.442750107217406,2.3325603123620597,-1.5265882457402284,-2.115256353387146,-0.2826395216689762,0.03614583339118494,2.2770344881636833,0.592017923030872,1.1520130653952252,6.3444825065194195,1.1445919030324823,1.040892565958885,1.2791683549490827,1.353911887515661,1.4264206279771297,1.9686863380088306,3.835964813246018,1.09526418469614,Stress
80.40357953975084,751.2761904761904,129.94033358830617,,,,,,,199.24892625905068,200.21380282319714,0.17295947247568771,0.26521395032199585,752.0,80.0604,0.10646329787234042,102.0,0.6521507344002752,655.4,811.6,56.19047619047619,71.42857142857143,451.0,1067.0,15.0,328.125,,,0.021841653721115132,0.11465077451566154,0.024497449757745673,0.16098987799452236,0.19050594131077167,0.13567097505259484,0.7121613851994005,-2.1658645142220925,141.57253766342902,114.39038261171811,1.2376262272325538,50876.637684073896,0.8079983907872509,5.413488512061586,369.7089802872246,0.580952380952381,0.5922330097087378,0.8524590163934426,0.13793103448275862,50.02743860611882,50.64410161822944,49.453010854397476,47.57281553398058,0.393422663263591,0.606577336736409,88.79913517465691,110.26105386762816,0.6942084942802716,0.3057915057197285,95.30912320955687,63.25607217556881,0.5122296249009488,0.48777037509905125,92.11165880262249,89.88556799364615,0.46062733368215114,3.637255847380097,1.3412136280848908,2.0851055102949916,-1.0056515797647236,-1.6176687530474563,-0.2954799130377579,0.03283451066867009,1.908147969818438,0.6100955178480456,1.3079037271741678,6.426010636651929,1.2062191382391083,1.0770585331438187,1.2561796469756643,1.508644224822185,1.504952190721245,1.9975058391603868,3.434214610805958,1.1510135173141924,Stress
80.22919319168061,753.9904761904762,128.31830129364417,,,,,,,199.93946199172004,200.90340029709188,0.17018557308836335,0.2651750496928167,752.0,81.54299999999999,0.1084348404255319,104.0,0.641785768629097,668.0,818.2,57.14285714285714,73.33333333333333,451.0,1067.0,13.125,328.125,,,0.017786094653072775,0.10668496043496381,0.0234323467478376,0.1479034018358742,0.16671604489102615,0.12025480436758103,0.7213151226457268,-2.237875082483832,142.0601567135091,113.79509053042437,1.2483856381794234,50786.19639430869,0.8010345276467172,5.412715797749631,364.61518636621565,0.5904761904761905,0.6057692307692308,0.873015873015873,0.13793103448275862,50.46008119079838,51.0218920255978,49.92237405818371,48.07692307692308,0.40003636816707805,0.5999636318329219,89.85273820594894,110.03834283195964,0.6921932469388881,0.30780675306111194,94.67541220458092,63.13389701832265,0.51422556812738,0.4857744318726202,92.29558017373884,89.70598041915615,0.42757093483341607,3.9118143654094277,1.3289404677765408,2.1845460363040075,-1.398710742171696,-1.9997490036535486,-0.2812765411126775,0.034256929346535035,2.1062342820747326,0.6089042340824702,1.2527629684953678,6.406963017604311,1.1952883494888573,0.9413055746592259,1.2468488039706689,1.5444172287881115,1.5390300029882857,2.0080330942584474,5.288706371663751,1.1510135173141924,Stress
80.42020486859298,751.7403846153846,126.44627357427939,,,,,,,197.34996759244189,198.31390018807323,0.16820471024577655,0.2625240995844765,748.5,77.8365,0.10398997995991983,101.5,0.640721025277341,654.8,811.6,56.730769230769226,72.11538461538461,451.0,1067.0,13.0,328.125,,,0.023673815655871903,0.11896981308104393,0.04497893977098645,0.18762256850790227,0.19899010549629897,0.12617786785535245,0.6340911651896141,-2.128885489638553,140.22910362653872,112.2144522142379,1.2496527930182801,49435.2602006835,0.8002222742084263,5.401006934353084,359.1860165997209,0.5961538461538461,0.6116504854368933,0.873015873015873,0.13793103448275862,49.76170451359687,50.34185308959351,49.21247820451783,49.51456310679612,0.3939841587100421,0.6060158412899577,88.01971704246324,109.1647881891966,0.7001774958171052,0.29982250418289486,93.89724885283324,61.44420187137745,0.5135139099896212,0.4864860900103787,91.00594466947251,88.5786117637964,0.4826750680218008,3.5621227562974846,1.326988618531372,2.1171561542902126,-1.0621920060308714,-1.7788319481070631,-0.278175096756028,0.03280736033303945,1.8681718551459767,0.6698505952533655,1.2837547218037058,6.4094333478863765,1.212884040217726,0.9837129685782664,1.2364039229481987,1.5450229004297646,1.4844303614007164,1.9939370036754271,4.866997537959396,1.2885460996425178,Stress
80.46899375175717,751.5333333333333,134.00918931369154,,,,,,,209.88545410807734,210.8789059976654,0.17831436527147815,0.2792763072492824,746.0,69.6822,0.0934077747989276,95.0,0.6384872638419503,655.4,808.4,55.23809523809524,71.42857142857143,419.0,1128.0,11.666666666666666,359.375,,,0.02726940787263672,0.11307957528989951,0.057923578198043876,0.19827256136058008,0.24115237259007,0.13753495534384283,0.5703238739335802,-2.179663502001265,149.11390444014972,113.77912761358228,1.3105558775821498,53300.41792185866,0.7630349969090249,5.433700724250005,347.2698251477652,0.6,0.6153846153846154,0.859375,0.14285714285714285,48.92221180880975,49.38094443323068,48.43375475182753,49.03846153846153,0.36922441577876436,0.6307755842212356,90.61719333633843,118.44121068424417,0.7192117233483662,0.28078827665163386,96.49192675500655,60.29094419242655,0.49799419165438114,0.5020058083456187,93.60066147482316,93.97690764215379,0.46506510512363775,3.5976792531563255,1.3312198057210733,2.100860358884369,-1.0315153752680235,-1.714145445583455,-0.28607304903902364,0.03285849026286768,1.8928901157939464,0.684820310206387,1.2493558101737539,6.3951048033391995,1.1762789935052869,0.966470159493127,1.346521907635933,1.3782094527751116,1.3625452257848707,1.9998832951809502,4.685851258339927,1.1510135173141924,Stress
79.99111081503294,754.9423076923077,128.59991596753034,,,,,,,196.087879050898,197.02368723920821,0.1703440311361433,0.25973889269803335,749.0,66.717,0.08907476635514018,95.0,0.6558279715705936,663.8000000000001,809.8000000000001,56.730769230769226,72.11538461538461,451.0,1129.0,9.454545454545455,328.125,,,0.021278667371211497,0.0782686586298562,0.05779055541505247,0.15733788141612015,0.27186702498430937,0.13524185771215919,0.49745590779155574,-2.5476080290424563,139.31678530122156,114.80822495378054,1.2134739070942666,50248.87231263975,0.824080348290766,5.408096429708182,378.44480802622434,0.5961538461538461,0.6116504854368933,0.8571428571428571,0.14285714285714285,48.90230905861455,49.58475806670768,48.25107129870789,49.51456310679612,0.388241633351404,0.6117583666485961,86.81711112628504,108.97935584320545,0.6703196098207431,0.3296803901792569,93.99699389137899,65.92035843669194,0.5023109933372001,0.4976890066627999,90.47830028501217,90.06107276848844,0.43862454974054094,2.9237210461296277,1.1108789975823599,1.6994477679763809,-1.0326865502993794,-1.6342073202665928,-0.2986918857484169,0.011957744587430513,0.9815559452591455,0.6743394729489323,1.33500106673234,6.397461112330256,1.2046433044626554,1.4262374283178763,1.258482308809276,1.2679135136160347,1.4424501202224702,1.9926753467579568,3.1722997125583063,1.2241187946603918,Stress
81.00617335165006,745.7735849056604,130.5556099736717,,,,,,,198.8516316970304,199.8048558041831,0.17506065194061124,0.26663807316557736,742.0,75.6126,0.10190377358490565,115.75,0.6565478435328392,651.0,807.0,55.660377358490564,73.58490566037736,451.0,1129.0,13.25,328.125,,,0.02252343778706033,0.09216634153516401,0.055920176164593584,0.17060995548681793,0.24437812559226968,0.13201713653105426,0.5402166671468663,-2.384160274341486,141.28336845313817,116.49383836619589,1.2127969207179603,51706.348444699055,0.824540352071485,5.420513978495542,384.2154820024873,0.5754716981132075,0.5904761904761905,0.8548387096774194,0.13793103448275862,49.84014692878036,50.29685318755494,49.39902279856048,49.523809523809526,0.40508734901817406,0.5949126509818259,89.922108387888,108.97295888995016,0.6618405878353815,0.3381594121646183,94.77191443075343,67.74288606502772,0.5089988467270609,0.4910011532729393,92.37884319960152,90.73093293262804,0.4282577184982851,2.6395522039425305,1.0750865283147646,1.51987169057222,-0.6009467101427663,-1.1372689692552245,-0.3314921896247749,0.010133374605862673,0.8140026516183851,0.6309368529930204,1.2443240998495033,6.461272695068009,1.1673589844977046,1.2474680335646844,1.356534734076648,1.3927723979315587,1.5351790370409462,2.0002075214207857,3.3067116411817654,1.205948006006611,Stress
