PPG_Rate_Mean,HRV_MeanNN,HRV_SDNN,HRV_SDANN1,HRV_SDNNI1,HRV_SDANN2,HRV_SDNNI2,HRV_SDANN5,HRV_SDNNI5,HRV_RMSSD,HRV_SDSD,HRV_CVNN,HRV_CVSD,HRV_MedianNN,HRV_MadNN,HRV_MCVNN,HRV_IQRNN,HRV_SDRMSSD,HRV_Prc20NN,HRV_Prc80NN,HRV_pNN50,HRV_pNN20,HRV_MinNN,HRV_MaxNN,HRV_HTI,HRV_TINN,HRV_ULF,HRV_VLF,HRV_LF,HRV_HF,HRV_VHF,HRV_TP,HRV_LFHF,HRV_LFn,HRV_HFn,HRV_LnHF,HRV_SD1,HRV_SD2,HRV_SD1SD2,HRV_S,HRV_CSI,HRV_CVI,HRV_CSI_Modified,HRV_PIP,HRV_IALS,HRV_PSS,HRV_PAS,HRV_GI,HRV_SI,HRV_AI,HRV_PI,HRV_C1d,HRV_C1a,HRV_SD1d,HRV_SD1a,HRV_C2d,HRV_C2a,HRV_SD2d,HRV_SD2a,HRV_Cd,HRV_Ca,HRV_SDNNd,HRV_SDNNa,HRV_DFA_alpha1,HRV_MFDFA_alpha1_Width,HRV_MFDFA_alpha1_Peak,HRV_MFDFA_alpha1_Mean,HRV_MFDFA_alpha1_Max,HRV_MFDFA_alpha1_Delta,HRV_MFDFA_alpha1_Asymmetry,HRV_MFDFA_alpha1_Fluctuation,HRV_MFDFA_alpha1_Increment,HRV_DFA_alpha2,HRV_MFDFA_alpha2_Width,HRV_MFDFA_alpha2_Peak,HRV_MFDFA_alpha2_Mean,HRV_MFDFA_alpha2_Max,HRV_MFDFA_alpha2_Delta,HRV_MFDFA_alpha2_Asymmetry,HRV_MFDFA_alpha2_Fluctuation,HRV_MFDFA_alpha2_Increment,HRV_ApEn,HRV_SampEn,HRV_ShanEn,HRV_FuzzyEn,HRV_MSEn,HRV_CMSEn,HRV_RCMSEn,HRV_CD,HRV_HFD,HRV_KFD,HRV_LZC,Labels
111.61180847773315,537.625850340136,29.61007114959871,,,,,,,15.486848154270275,15.540036214727131,0.05507560905203035,0.028805996111370608,533.0,25.2042,0.0472874296435272,32.5,1.9119494718771528,515.0,553.8,0.0,15.646258503401361,491.0,639.0,7.7368421052631575,93.75,,,0.045521964689020505,0.018117044332413745,0.0009399886466773242,0.06457899766811158,2.5126595626625363,0.7049035496489096,0.2805408102727452,-4.010902107984924,10.98846498731808,40.490717224924005,0.27138232514572863,1397.7914222889497,3.684838352914154,3.852412481008735,596.806991069607,0.4421768707482993,0.43661971830985913,0.6290322580645161,0.1,50.253521126760546,50.2673607697434,50.2397158653927,43.66197183098591,0.467944141417026,0.5320558585829741,7.516877561585134,8.015287118139119,0.4892391458043805,0.5107608541956195,28.321488128459475,28.93771745625917,0.4877783645293174,0.5122216354706827,20.719678304528923,21.23247888453552,1.5271522122453158,0.8952330454279807,1.6757238013925464,1.9239780786354048,-0.842656911138457,-1.842656911138457,-0.22269312609637143,0.0011213223169749924,0.07876377024745634,0.871923937403302,0.7340518671125993,0.32032551399944786,0.6873514475557475,1.0686539770555072,-1.9044081531550006,0.0,0.0012601658278501853,0.07947071036864314,0.832189313571237,1.3599770528025175,6.059204722443543,0.9647239532899456,1.590717102601662,1.3189420136811354,1.575815093513111,1.6935548339496163,1.591179325853392,2.138552267569892,0.7836378062406927,Relax
111.60816002043732,537.5986394557823,29.614800969994803,,,,,,,15.285860598820577,15.336903050546454,0.0550871947889865,0.028433592418118173,533.0,23.7216,0.044505816135084426,32.0,1.9373983413325002,515.0,553.8,0.0,16.3265306122449,490.0,639.0,7.35,93.75,,,0.052037002133549275,0.017316673616822285,0.0007845200754676715,0.07013819582583923,3.0050229787202274,0.7419210249257453,0.24689362782900018,-4.056085448748655,10.844828149442044,40.55533725978712,0.2674081608537206,1381.7216562073966,3.7396016516751955,3.8473906744557134,606.643224803778,0.42857142857142855,0.4225352112676056,0.6,0.07317073170731707,50.910125142207065,50.91318617155994,50.90468096883216,45.07042253521127,0.4912059564987982,0.5087940435012018,7.601497130216498,7.736389606136123,0.4831348803402409,0.5168651196597595,28.18916513717455,29.156583289613693,0.48367360770340245,0.5163263922965975,20.644754657679837,21.330237613094134,1.4884318368240848,1.3877044062936745,1.5252088254340244,2.1556757147875367,-1.2547920504395407,-2.0897678117995273,-0.04567638000272438,0.002632222191113741,0.19553959113796007,0.7587889409746854,1.0945984971267888,0.21889182805066199,0.3811116038276927,1.0,1.9184485825449884,-0.35179974556621324,0.008185497408420611,0.2788169821153887,0.8097699724338607,1.3523928094442095,6.040463991136309,0.943949306250435,1.4087263024891732,1.1812151940731428,1.5508143048356455,1.7120160148826515,1.595317042207029,2.2257560601689015,0.7836378062406927,Relax
111.1815471511779,539.6802721088435,28.58201043442177,,,,,,,15.238964118248337,15.291235089801072,0.05296100656548977,0.02823702274441286,537.0,23.7216,0.04417430167597765,30.5,1.8755874882726062,517.0,555.0,0.0,17.006802721088434,493.0,639.0,7.0,70.3125,,,0.03896022994461676,0.017687748800738062,0.0006855204073400348,0.05733349915269485,2.2026675290069164,0.6795369290273906,0.30850635426298906,-4.034883037204789,10.812536024716023,38.90267430422726,0.27793811654591327,1321.4687498878936,3.5979232083297488,3.8280270073487648,559.8753389810905,0.41496598639455784,0.4084507042253521,0.5517241379310345,0.07142857142857142,50.315910396323936,50.34076671443418,50.29203092103154,45.07042253521127,0.4818168411738682,0.5181831588261318,7.505400354595258,7.783492700625449,0.48106564831883575,0.5189343516811642,26.98246549279473,28.02435769024735,0.4811195176003779,0.518880482399622,19.803844053019315,20.566324204529298,1.4657141766374566,1.3549674334995272,1.5797951703339483,2.119104934260483,-1.3027291420498415,-2.3027291420498415,-0.10197584783743609,0.0033524233251692966,0.21044960770748375,1.502031412060633,2.5200312756833334,1.8303978747959628,2.148066526538363,-2.230168707255549,-1.4173655304859283,-0.3739425757101919,0.0005769438252436936,0.2709545840811721,0.8064150108332386,1.3266220296334923,6.030193412875581,0.9793500954128703,1.4890444042914226,1.2234017096267196,1.7865280267503134,1.699355742677085,1.5894107337039116,2.0413134012607737,0.9795472578008658,Relax
111.1033088757299,540.0890410958904,28.2017170504103,,,,,,,15.054155114349545,15.106144242318482,0.05221679187044125,0.027873468944682303,537.0,22.238999999999997,0.04141340782122904,29.0,1.873351034062919,518.0,554.0,0.0,15.753424657534246,493.0,639.0,6.636363636363637,70.3125,,,0.027273029326427535,0.019512376994780284,0.0006334481429154881,0.047418854464123306,1.3977297247651215,0.5751515854745516,0.4114898433394923,-3.936706297079468,10.681657031325518,38.56069381221886,0.27700894292365624,1293.997214884659,3.609991754943451,3.8189034515483167,556.8151469080361,0.4178082191780822,0.4028776978417266,0.5357142857142857,0.07692307692307693,50.322580645161295,50.324662097717834,50.319719140765365,44.60431654676259,0.4771005142874532,0.5228994857125467,7.378177281686853,7.724195391394786,0.4798304019899717,0.520169598010028,26.71091221983632,27.811045928981027,0.47963585066345693,0.5203641493365431,19.594773941229857,20.409770578185544,1.479985051780381,1.4838177709178453,1.51367158227497,2.1783780436629847,-1.3711157065248294,-2.156808485734503,-0.05202958583192654,0.0031534935517988564,0.22468723001152976,1.0007672906636824,1.0856670361116267,1.1338706429201206,0.8024745225150373,0.7400844197842513,2.069704817688096,-0.8052465529320996,0.0006760886136018695,0.050111475670425024,0.8012910131087279,1.2882331479436757,5.988454076576883,0.9760246444186145,1.6327692766774988,1.2042540802128505,1.7310535301633383,1.6823983819959085,1.6030357051749857,2.3249425460236,0.9356621001282215,Relax
110.70417987258178,542.054794520548,28.0420326927934,,,,,,,14.860036663991526,14.908575150792242,0.05173283766929285,0.02741427031769981,538.5,22.9803,0.042674651810584954,30.75,1.8870769518856008,520.0,557.0,0.0,15.753424657534246,501.0,639.0,6.636363636363637,62.5,,,0.037406747531767405,0.02328300592962714,0.000597259650846666,0.06128701311224121,1.6066116052553203,0.6103535746351446,0.3799011364281463,-3.7600315437658076,10.541954586954448,38.28765206651204,0.27533562435850895,1268.0306419802191,3.631931038091606,3.8100998583672308,556.2324476640691,0.4246575342465753,0.41007194244604317,0.5614035087719298,0.075,51.291291291291294,51.31386475726079,51.266416678821834,44.60431654676259,0.4965176926200067,0.5034823073799931,7.429763716894965,7.481690614055385,0.49269572834518816,0.5073042716548117,26.87497897635497,27.27049331762742,0.49296515265517626,0.5070348473448237,19.716311570225432,19.99569328919613,1.3989904629770535,1.5096718543164522,1.4469939072789106,1.821748259731439,-1.3444949315523331,-1.2921340311073255,-0.2517643643014003,0.0008210142181696644,0.11313671633829532,0.9514009162922222,1.0218263082790364,0.8805381323501204,0.9307096511473978,-0.635445391292909,-0.22338207630286222,-0.4509001496724267,0.0013750497832348979,0.056510423133341044,0.7766790600336364,1.2380784168124468,5.989424689248637,0.9796256669621832,1.4619089731126098,1.1740321223184196,1.6317168665993376,1.6987062754126432,1.625869579503587,2.1133130911723312,0.7879259790553443,Relax
110.89016248275927,541.054794520548,26.11031790292814,,,,,,,14.248774901966012,14.289719129392811,0.048258176745417485,0.02633517907293007,538.5,21.4977,0.039921448467966573,29.75,1.8324605506488492,521.0,556.0,0.0,13.698630136986301,501.0,639.0,6.3478260869565215,70.3125,,,0.044729317179219776,0.02503701365305927,0.0004602963564961229,0.07022662718877516,1.7865276505832117,0.6369281705496629,0.3565173874256789,-3.6874000029193814,10.104357297644786,35.20533840897459,0.2870120769828751,1117.5503291260684,3.484173943174057,3.7552372007541686,490.6460909806963,0.4452054794520548,0.427536231884058,0.5932203389830508,0.07317073170731707,47.7602523659306,47.861094676862066,47.657296998003204,46.3768115942029,0.46010394374808933,0.5398960562519108,6.857933362172601,7.428828979051813,0.4750271034864403,0.5249728965135599,24.26429727858818,25.508032657708423,0.473890112288037,0.5261098877119628,17.82957336034295,18.78626133730072,1.4551906100225618,1.3365878366980182,1.5361805986484134,2.106797089364403,-1.3421959992269787,-2.3421959992269787,-0.0730796921467784,0.002901127753555988,0.1948657214194317,2.038185557658835,1.863308144697052,3.7118858605502183,2.8081904349276714,-2.178346470421637,-3.178346470421637,-0.9849951567025834,0.012223913038367276,0.7272473009663071,0.8035537113972269,1.2185716037470884,5.986927922285621,0.9946613238670827,1.4677006847952643,1.2469487362652556,1.7381417327788913,1.6986106557355762,1.6380207814100778,2.181607839808524,0.7386806053643854,Relax
111.13909560649958,539.8904109589041,25.334758265704295,,,,,,,14.071247279470288,14.116113316788507,0.04692574224592544,0.026063154658513422,537.5,22.9803,0.042754046511627904,30.75,1.800462870314793,520.0,556.0,0.0,14.383561643835616,501.0,639.0,6.3478260869565215,70.3125,,,0.03672684036674034,0.02719569714665182,0.0005206267730936575,0.06444316428648582,1.350465118385904,0.5699105680700136,0.4220105801408474,-3.60469651133184,9.981599450298878,34.3976889593927,0.2901822695728889,1078.646841054697,3.4461099276391756,3.7398493858897126,474.1528696432306,0.4520547945205479,0.4347826086956522,0.6,0.075,51.50187734668336,51.4844296413383,51.5174456437451,44.20289855072464,0.5167189132706373,0.4832810867293625,7.1770757740647175,6.940971353732367,0.4654545083449032,0.5345454916550967,23.4675572312762,25.14905094320465,0.469438034850239,0.5305619651497611,17.352761438311347,18.447924634999406,1.5020747778929295,0.8289315624120586,1.654277302979613,1.905342704897427,-0.813068940767792,-1.813068940767792,-0.19712167650215445,0.0006436517393183613,0.058350288282502265,-0.1595184550272136,3.827931677481762,-0.2005745668229264,-0.9434820153478631,1.1129512101224814,6.324183741164978,-0.6940754201270554,0.018386604334937103,1.5503552257785849,0.8427224844066772,1.2838535555653992,5.941345579600323,1.0191337739041262,1.4958807758877037,1.2575526481710382,1.777187039089456,1.7221661263899988,1.6253834958965903,2.146323881723293,0.8864167264372624,Relax
110.96666202257325,540.7808219178082,26.087781034802333,,,,,,,14.275129083298252,14.323800625805154,0.04824095082049219,0.02639725468198628,538.5,25.9455,0.04818105849582172,33.0,1.8274987835538916,519.0,558.0,0.0,15.753424657534246,501.0,639.0,7.684210526315789,85.9375,,,0.03868748002669349,0.030851090798466672,0.0006271130226088795,0.07016568384776904,1.2540068770798956,0.5513732341101323,0.4396891629446807,-3.478583171120762,10.128456554870935,35.56657725484027,0.2847745646790499,1131.7101609690899,3.5115495694885257,3.7607053251451448,499.5751961896589,0.4383561643835616,0.42028985507246375,0.5689655172413793,0.047619047619047616,49.32182490752158,49.302511639231355,49.34237282121782,46.3768115942029,0.49675104914038176,0.5032489508596183,7.13899697280912,7.185537171599939,0.4648734250374532,0.5351265749625468,24.249871014499107,26.017785712944075,0.46726491872469816,0.5327350812753017,17.87486394350488,19.086082859627343,1.463657949144186,1.6815458018008913,1.5973951335679955,2.3044308500446316,-1.4082453889456534,-2.411217157817405,-0.07953228766090138,0.0033378783776192443,0.28788306547640774,1.8826835794215437,3.0859206212751946,3.2110136982205724,3.1293129647681637,-6.987143299258147,-7.987143299258147,-0.5264753191929633,0.008730647124913766,0.895400272979015,0.8816803810301552,1.2939210409888755,5.962888367461465,1.005143161387772,1.634350264874696,1.195527846996563,1.7949003062042794,1.7450238481151088,1.6050853015247537,2.3040119471071883,0.8371713527463034,Relax
111.20150647096045,539.7891156462586,29.413730670424783,,,,,,,15.749755379705043,15.7746530481891,0.05449115185512663,0.0291776082977308,536.0,26.686799999999998,0.04978880597014925,36.0,1.8675674612906676,515.0,559.6,0.6802721088435374,17.006802721088434,481.0,641.0,8.166666666666666,109.375,,,0.04985820902876647,0.030397461123081573,0.0005482686354877705,0.0808039387873358,1.6402096486573956,0.6170269639947381,0.37618786385009356,-3.4933961897456967,11.154364141239553,39.19529726064115,0.28458424660145293,1373.4999673145055,3.5138979474167935,3.8447987633833662,550.913098370232,0.4217687074829932,0.40714285714285714,0.543859649122807,0.025,53.99087799315851,53.829714467251755,54.16767705284433,45.714285714285715,0.6069416832339296,0.3930583167660702,8.706121508693634,7.006154929528159,0.49104651254592707,0.5089534874540729,27.465991291404926,27.962307661037066,0.49975931574014476,0.5002406842598554,20.373723632950224,20.383533263728395,1.3967086198930772,1.6052478131320536,1.5264298980556728,1.7809379171746023,-1.0742956769518255,-0.9141369123629977,-0.34145250531607935,0.00038284709212832734,0.11439612377049303,1.1721065349920958,0.8376969823422205,1.1375847720310377,0.8325441935330656,0.6673865066202875,1.9021348602186507,-0.8641419092200516,0.0016043399221942047,0.05204421937995031,0.8034965213638388,1.341173925839421,6.088125770322084,0.9496370559790028,1.2361541823285627,1.162364722919203,1.9091641451298016,1.716995699779839,1.5932010072375637,2.0294905644987167,0.832615169130736,Relax
110.03860697621964,545.2965517241379,32.14488125354638,,,,,,,16.06172987777676,16.11417444686876,0.05894935728441627,0.029455036579622985,540.0,28.1694,0.052165555555555555,39.0,2.0013336980609107,519.8,564.0,0.6896551724137931,17.93103448275862,481.0,639.0,8.055555555555555,93.75,,,0.06787701522229532,0.0266224154719737,0.00056628082871457,0.0950657115229836,2.549618959021645,0.7140010223968608,0.2800422470465318,-3.626001731139455,11.394442024603883,44.071289185787165,0.2585456934688117,1577.6065129408344,3.86778826822977,3.9049688004902317,681.8336611141965,0.43448275862068964,0.42028985507246375,0.5689655172413793,0.025,51.39760410724473,51.421499993896916,51.371348386211444,48.55072463768116,0.5693020000538375,0.4306979999461629,8.599276274638026,7.479575920067657,0.38851127340977754,0.6114887265902225,27.469930928198014,34.4627541745768,0.3998439327437626,0.6001560672562372,20.353680964969485,24.936173335551775,1.561641607080401,1.2159030084760936,1.6557916742795074,1.9113814166068543,-0.4952593463910997,-0.7332324206083127,-0.2897943005769179,0.0005734025821889404,0.08293628046591353,1.1680782372158722,1.7089124439662338,2.846327808518387,1.99187158653527,5.194233980438069,4.194233980438069,-1.0,0.006855833042728773,0.34747882123263774,0.815013925615121,1.2870877110364427,6.1527852761743205,0.9129140071312842,1.3547920886651867,1.2743673849953425,1.9353600525194954,1.726491049281779,1.5183456702823606,2.1412278278061843,0.7427492162084415,Relax
109.46273383608327,548.1666666666666,31.641567773876364,,,,,,,16.06390211153414,16.119924470557297,0.05772253166411012,0.029304777339375143,544.0,26.686799999999998,0.04905661764705882,36.5,1.9697311122904073,521.0,569.2,0.6944444444444444,17.36111111111111,481.0,639.0,7.578947368421052,117.1875,,,0.0533385947556813,0.016718916338921766,0.0005628301955695227,0.07062034129017258,3.1903141133321324,0.7552865616510949,0.23674363552315972,-4.091214485691432,11.398507905346031,43.41540986163958,0.26254521013787263,1554.6827604217124,3.808867811661319,3.898611892743193,661.4542286083296,0.4375,0.427536231884058,0.576271186440678,0.02702702702702703,49.51511694238449,49.50018009303245,49.53167830392702,50.0,0.5539687271347661,0.44603127286523403,8.484036376597912,7.612767259815098,0.3865009450751259,0.613499054924874,26.99101306490862,34.00563228619758,0.39730066415188475,0.6026993358481152,20.00616979221041,24.640791916415715,1.5917275733785654,0.6438756511550574,1.653789826399434,1.781608396924502,0.18557887174182142,-0.42146379525126054,-0.3014856280156385,0.00011786787897880143,0.021955402382360448,1.9718595535622125,2.1488170004768135,-0.17695744691460114,0.8974510533238057,1.0427216780447446,-2.7110706660423216,0.0,0.00487642456835263,0.46441902314879585,0.8456625851521298,1.318416938716805,6.194628279142202,0.9168981992761466,1.1587853300300648,1.298616569003016,1.9808526169318517,1.750498854162114,1.4955219977886192,2.5034563420874587,0.7468671876502408,Relax
109.58590383416663,547.3931034482758,32.095191867259004,,,,,,,16.173752742569604,16.22567960703584,0.05863280276108144,0.02954686977363041,544.0,28.1694,0.05178198529411765,37.0,1.984399809871205,520.8,568.6,0.6896551724137931,17.93103448275862,481.0,639.0,7.631578947368421,117.1875,,,0.05943682321569001,0.015556929933554262,0.0006671178468345734,0.07566087099607884,3.820601074219185,0.7855688473209667,0.20561394190612092,-4.163249084740592,11.473288079495315,43.805048340356954,0.26191702815506634,1578.9265767728668,3.8180030028744683,3.9053320448821895,668.9912244181763,0.45517241379310347,0.44604316546762596,0.5967741935483871,0.05405405405405406,48.44192634560908,48.33057144399358,48.550215080396406,50.35971223021583,0.5351084446096259,0.46489155539037413,8.395178436401514,7.825009216018166,0.37954276913118895,0.6204572308688109,26.98699476850751,34.50484565195964,0.38953477240556217,0.6104652275944378,19.98470549713546,25.018144842257264,1.5987505923488328,0.2265083093137399,1.6359902887271933,1.687201639494936,0.4506895259656023,-0.5493104740343977,-0.2739096154004259,7.805198499542851e-05,0.004690945011757795,0.8112668998833721,2.4378215492225825,0.5122754278799846,-0.0022084355955160895,1.0,5.064842596140078,-0.7110424627428406,0.007179342590219854,0.5800428111109017,0.8379515553361321,1.3609765531356006,6.207090813973817,0.8992919610672695,1.3729455449941055,1.232455981527169,1.8922128510529965,1.7377850473984238,1.4842967699737384,2.426922351801963,0.7922658306223376,Relax
110.37775570220677,543.582191780822,33.76444913674432,,,,,,,15.564105477358627,15.618052478410705,0.06211470803730542,0.028632478607088434,538.5,31.875899999999998,0.05919387186629526,41.75,2.16937935725648,514.0,566.0,0.684931506849315,16.43835616438356,481.0,639.0,8.11111111111111,101.5625,,,0.06386197531685897,0.01591301703904556,0.0007572717949757505,0.08053226415088029,4.013190909062794,0.7929986321657505,0.1975980336183261,-4.140617822992044,11.043630816411575,46.45105053478813,0.23774770837832349,1611.6001274446137,4.206139385405637,3.914227403021945,781.5183725913597,0.4657534246575342,0.46478873239436624,0.6363636363636364,0.08333333333333333,50.02929115407147,50.02733820635793,50.0317985197716,48.59154929577465,0.5402419928825622,0.45975800711743786,8.117197107923946,7.488185138380772,0.3892517265508864,0.6107482734491135,28.980829657956576,36.30167500435682,0.39732969876785984,0.6026703012321404,21.28118155263453,26.20958340749249,1.6123658099030138,0.7034589756850069,1.6123658099030138,1.7528464192940958,-0.04974921305383262,-0.3503312902379685,-0.3003002104646028,0.0002697563074628013,0.023160216596102432,1.5981681059700856,0.958684962273632,2.5568530682437176,2.0775105871069015,3.3572703166233016,2.317990301081212,-1.0,0.004125338242296089,0.18629674859549855,0.8388564424878191,1.3319002890540916,6.191101699098337,0.856638661379122,1.0840671323858468,1.239913491526481,1.8265031205104236,1.6982425373808345,1.5025516104037209,2.0721061583043188,0.7879259790553443,Relax
110.1872148961498,544.4965517241379,33.549740050725646,,,,,,,15.944347657468532,15.999125850246568,0.061616074416800316,0.029282733943825832,540.0,31.1346,0.05765666666666666,41.0,2.1041776541425654,516.6,567.2,0.6896551724137931,17.93103448275862,481.0,644.0,8.055555555555555,117.1875,,,0.04873899810695196,0.01301201886508836,0.000732840849912008,0.06248385782195233,3.745690704285725,0.7800254306613665,0.20824608656792754,-4.341881820549737,11.313090381766337,45.97602391105362,0.2460650012635483,1634.0394580131847,4.063966817162058,3.9202326494228696,747.380142238285,0.4689655172413793,0.46808510638297873,0.6212121212121212,0.08333333333333333,49.31113662456946,49.35023898405901,49.272190742963495,48.93617021276596,0.5115548513986012,0.48844514860139854,8.091910836077037,7.9070208688847545,0.3947865827359722,0.6052134172640281,28.887675844502173,35.7672609934384,0.4014537132680335,0.5985462867319665,21.212930451449363,25.90191052792939,1.4565442681976106,1.253584643434472,1.5514013784369585,1.941550307702519,-0.8915043046257214,-1.4388774722392954,-0.18877336579629653,0.0006657226725633889,0.09987577238651625,0.7169777233448116,1.049154520668912,0.9060897957285294,0.8200404796287374,-0.3943760297109682,-0.5513470216099079,-0.5820177718387273,0.006682275512295648,0.1516618755725963,0.8321661672578129,1.3458533915613802,6.13291917602786,0.8738850355385773,1.3909231354106535,1.2467252515796177,1.7740317507700247,1.7141116728128891,1.4961662591226008,2.1984348353605725,0.7427492162084415,Relax
110.25714288652136,544.2344827586207,33.19617903738308,,,,,,,15.589570944135128,15.643859247891235,0.060996096515454123,0.028644952567346647,542.0,31.1346,0.05744391143911439,41.0,2.1293837499659762,516.6,566.2,0.6896551724137931,15.862068965517242,481.0,644.0,8.529411764705882,117.1875,,,0.04141674027366101,0.009667057494017216,0.0006126288644128228,0.05169642663209105,4.284317156414261,0.8011528643635724,0.18699662866091207,-4.639031308065486,11.061878958111777,45.783140295469956,0.24161468363074043,1591.0519222086555,4.138821304123633,3.908654462556684,757.9529456982889,0.4482758620689655,0.44680851063829785,0.6031746031746031,0.08333333333333333,50.26706231454007,50.26946568364933,50.26404726822228,49.645390070921984,0.5300168585878788,0.46998314141212116,8.05336223925407,7.583567070349514,0.3966891319714315,0.6033108680285686,28.835715304268565,35.56117908908332,0.40404329164699415,0.5959567083530058,21.17020453922767,25.710969912824623,1.6140843517027705,1.1289002707199334,1.74550855895562,1.8505594535156957,-0.1641241294209248,-0.20059400965170138,-0.4069440434334544,0.00020701146970734743,0.058874563724940536,1.2488969053664434,1.6722278643315769,1.673184591133781,0.9747945476276352,0.8255400138559681,2.9892891513956625,-0.9176404773552236,0.00042295321040426807,0.14715491175854994,0.8384478326151004,1.3577662775053525,6.165711503628991,0.8602656426252376,1.0617661274665453,1.2996347326576025,1.828724837059242,1.7401901999194733,1.4524024562515845,2.2089800196824965,0.7427492162084415,Relax
110.37807558266086,543.6643835616438,33.344446344649,,,,,,,15.647408070039742,15.700449636043752,0.06133277689850399,0.028781374213868376,541.0,31.1346,0.057550092421441774,42.0,2.1309884803537504,515.0,566.0,0.684931506849315,15.753424657534246,481.0,644.0,9.125,117.1875,,,0.058437733981077704,0.010326706205130534,0.000572193258137066,0.0693366334443453,5.658893825414008,0.8428118164690551,0.14893578894942325,-4.5730219038957225,11.101894405324398,45.9576292658734,0.241568039576147,1602.8931848323928,4.13962046367802,3.911874692338701,760.9885702845495,0.4452054794520548,0.44366197183098594,0.6031746031746031,0.08333333333333333,50.818713450292385,50.83606837475454,50.799280499203924,51.40845070422535,0.5389837192270858,0.4610162807729141,8.151133186387169,7.538558291285616,0.39231970363455393,0.6076802963654461,28.78575850693177,35.82574207075226,0.4004075632981899,0.59959243670181,21.15491509131645,25.887387431249024,1.6111287453024257,0.8501547850355928,1.6320801366775923,1.9388457320417856,-0.3204057495981374,-0.9195352876877187,-0.13916500763875592,0.00037827515368460537,0.04614878944433246,1.3120659017472234,0.9653813341135182,0.44081568843711594,0.923506355493875,1.0,-2.4554734575289947,0.0,0.0017163708175617742,0.1321084192263815,0.8343254631310653,1.3432107749835789,6.161207671861351,0.8657973536016754,1.1280066994061113,1.3064214457183427,1.7440044575003155,1.7567822553399013,1.4540032654415511,2.1225737154705673,0.7879259790553443,Relax
110.3425721547054,543.8620689655172,33.27591318758109,,,,,,,15.701645349028446,15.756425903895758,0.061184471369506194,0.028870638797985352,541.0,31.1346,0.057550092421441774,42.0,2.1192628191439864,515.8,566.2,0.6896551724137931,15.172413793103448,481.0,644.0,9.0625,117.1875,,,0.05709084531074524,0.009543951175801804,0.0004926082756701518,0.0671274047622172,5.981887821837997,0.8504849176424433,0.14217667448352833,-4.651847709895144,11.141475603908066,45.76176336215624,0.2434669205322138,1601.7522302052867,4.107334161922367,3.9115654473175416,751.8354158687666,0.45517241379310347,0.44999999999999996,0.6031746031746031,0.08333333333333333,49.88276670574443,49.87163286196557,49.89410421867168,52.142857142857146,0.5351529491296264,0.4648470508703734,8.150464399656618,7.596235725857722,0.3918384070175877,0.6081615929824121,28.645489773315916,35.68718119522526,0.39985818375909227,0.6001418162409078,21.059370293093007,25.799977702157385,1.6125765146380386,1.1272204790843192,1.6729168930313794,1.9727693364435033,-0.7165384314629346,-1.065330922474633,-0.23398953534298403,0.00042164607253804325,0.06740758684927231,1.9063116876205846,1.972960212130043,2.931273118035932,1.9447930119709107,4.021271129654032,0.6432743468878472,-1.0,0.00290055397327112,0.16719820014112113,0.8326775174589951,1.353718190685278,6.178815879697198,0.8632970138289059,1.2003135716360893,1.3861861024063238,1.762173051826866,1.777294745318534,1.4590833546476603,2.0951168107763163,0.7427492162084415,Relax
110.62063185002219,542.486301369863,33.925727456713005,,,,,,,15.667229141284595,15.720657761676835,0.06253748227567263,0.028880414310411866,540.0,32.6172,0.06040222222222222,44.5,2.1653942219633198,514.0,566.0,0.684931506849315,15.068493150684931,481.0,644.0,9.125,132.8125,,,0.05292509778509055,0.010280305446127506,0.0005379842475202587,0.06374338747873833,5.148202848878088,0.8302837341793888,0.16127642180228519,-4.577525306738212,11.11618370799462,46.821189164621515,0.2374177996400421,1635.113965263967,4.211984112042724,3.9205181377595513,788.8404194733309,0.4452054794520548,0.43971631205673756,0.5806451612903226,0.08571428571428572,50.69848661233992,50.69690068994432,50.69771069673621,50.35460992907801,0.5456563272645538,0.4543436727354462,8.211822439494036,7.493284030086913,0.40492409713838795,0.5950759028616119,29.794030016655565,36.11840985087659,0.4124342901055081,0.5875657098944919,21.85312623414726,26.0834126957292,1.616445488146876,0.8032017020858326,1.6665820255835295,1.915942700204834,-0.1843168369665431,-0.7126562656884836,-0.18954165065420026,0.0006052044745382188,0.047011724555515284,0.47608061242817606,2.6825496207932855,-0.37682842549578766,-0.36361905360084706,1.0,5.114241643400103,-0.4950758145189373,0.013201731804374403,0.8933942679524679,0.8295810417860601,1.3929389038385591,6.198084918335693,0.8575733873336249,1.2542130304267314,1.2844987679539015,1.7409323477224539,1.752959724135523,1.4623353370654453,2.2243898113654175,0.7879259790553443,Relax
109.96502924100035,545.6689655172414,35.71473691559538,,,,,,,16.26003963368137,16.313912625233257,0.06545128855136789,0.029798358824142442,544.0,34.099799999999995,0.06268345588235293,46.0,2.196472931198468,515.0,572.0,0.6896551724137931,17.93103448275862,481.0,644.0,10.357142857142858,140.625,,,0.03338931925547427,0.00653486884044077,0.0005468688489051498,0.040471056944820186,5.109409243051035,0.825017229003892,0.16147017977194578,-5.030603002430122,11.535678244987269,49.271897580871496,0.234122873511283,1785.6333770441468,4.271261432095003,3.9587624051239687,841.8126232932461,0.4413793103448276,0.43971631205673756,0.5967741935483871,0.08571428571428572,51.222222222222236,51.25350174127882,51.18757912927466,51.06382978723404,0.5611998318974575,0.43880016810254263,8.643280263088412,7.642812794553286,0.4145472159380564,0.5854527840619436,31.72387936527699,37.70033646053101,0.4221705901077014,0.5778294098922987,23.24984748002598,27.200440774460176,1.5998621371497255,0.6549257893652962,1.5998621371497255,1.7508767497215172,-0.23671148294388367,-0.6646315306242299,-0.26941721486010883,0.00025736725456826734,0.021276139981096558,1.6291229372882752,2.59137323709105,0.19895510947826978,1.4946417280237947,3.7927367660988462,-0.11113105973037829,0.0,0.0018535662464741769,0.26868764190832334,0.7789759919067869,1.1517221139820584,6.237369155529425,0.8434719158145587,1.5110387667966894,1.2303714225661062,1.6564630553982331,1.803854114516821,1.4472407153561764,2.122214099277599,0.6437159873806493,Relax
109.8240431176633,546.2916666666666,35.909340974609506,,,,,,,16.389490065752035,16.444457162762102,0.06573291002903121,0.030001354708111425,544.0,34.8411,0.06404613970588235,46.25,2.190998062206141,515.0,572.4,0.6944444444444444,18.75,481.0,644.0,11.076923076923077,140.625,,,0.060319555442374724,0.008156520655299199,0.0005505674017453892,0.06902664349941931,7.3952556477847935,0.8738590257960633,0.11816481639249655,-4.8089375912182675,11.627987172720776,49.53148363985329,0.23475951694216637,1809.4048642821333,4.259678214648706,3.964505863472065,843.9527271996476,0.4305555555555556,0.43262411347517726,0.5737704918032787,0.08823529411764706,51.153846153846146,51.13556120949716,51.16795692809538,51.06382978723404,0.5575601374570445,0.4424398625429553,8.684006669215881,7.735731981898975,0.4147994972557629,0.5852005027442372,31.90071722874935,37.89079191382029,0.4222586333503833,0.5777413666496168,23.378063772900564,27.3455084168516,1.6206055169296576,0.8635619299016337,1.6206055169296576,1.856655874704237,-0.5935814186595962,-1.0113370356490208,-0.2266549744712955,0.00032630388465176635,0.036232105194948634,1.5235037847963333,1.076674540143804,1.5861952391981853,1.3390439794247113,1.1011970770471429,1.7046961718495623,-0.7295505749959162,0.0033078182534254444,0.17071517485827326,0.7760551001743878,1.162561013268383,6.272990866052924,0.8469854714564843,1.3513599429048744,1.2431188802727289,1.6239539993348144,1.8208735410635677,1.439398042513387,2.341304661558341,0.5974937501201927,Relax
109.46417800580174,548.1180555555555,38.917070971180664,,,,,,,17.24403210843228,17.29985661515023,0.07100125707724683,0.03146043436017495,543.0,37.065,0.06825966850828728,49.0,2.2568428733179138,515.0,575.8,0.6944444444444444,20.833333333333336,481.0,658.0,10.285714285714286,140.625,,,0.06110437053301155,0.010191400068689108,0.0005024312031569752,0.07179820180485763,5.995679702609421,0.8510571155958593,0.1419450600780867,-4.586211044847037,12.23284592612768,53.74334598133775,0.22761600906604343,2065.390047498174,4.393364087628156,4.02197218991548,944.456344733537,0.4097222222222222,0.41549295774647893,0.559322033898305,0.09375,48.49740932642487,48.4863109410885,48.51505542920684,54.22535211267606,0.5400968910211185,0.4599031089788816,8.992563437813413,8.298141655188676,0.4308486311179916,0.5691513688820083,35.27662757933522,40.54512034633339,0.43623271385480916,0.5637672861451908,25.742053633638214,29.264021757340835,1.5875251745012435,1.1374537116012542,1.7000450752018972,1.8060873522904823,-0.3032643677322078,-0.34610253087845955,-0.4067722264149951,0.00010698396163573913,0.05367170149594299,1.1228278583996547,1.8399079549768464,-0.6573318493371871,0.2626221281512361,1.0,-3.428926783745217,0.0,0.006368071171291693,0.461715580875224,0.7566132548899973,1.1339289605930098,6.292122029262394,0.8273832834938908,1.4778016321658516,1.2373296420295874,1.6611963559755496,1.7606738206309205,1.4438696889204223,2.4537657233423786,0.5477026042768434,Relax
109.09128570507006,549.8041958041958,40.40067959637208,,,,,,,17.778567568528473,17.810399171536993,0.07348194121596,0.03233618023326259,543.0,37.065,0.06825966850828728,51.0,2.272437272611836,515.4,578.8000000000001,0.6993006993006993,23.076923076923077,481.0,658.0,11.0,140.625,,,0.05696744309212058,0.009922495162649897,0.00044254449331318957,0.06733248274808366,5.741241709701865,0.8460618228687241,0.14736565113414446,-4.61295086082041,12.593854029833075,55.07700791182677,0.2286590086737224,2179.1085610234795,4.373324304169086,4.045248976866609,963.4784692068203,0.38461538461538464,0.3900709219858156,0.5454545454545454,0.0967741935483871,53.76833586241779,53.62175610554044,53.92085108471106,49.645390070921984,0.589555065392242,0.4104449346077579,9.686760724480258,8.08246504073799,0.4724604870271449,0.5275395129728552,37.857600644506704,40.00348577262329,0.47829789570015163,0.5217021042998485,27.631786586215227,28.85831868885665,1.6500138780899982,1.0419358908927165,1.7042372695880856,1.7805621582483955,-0.32438838397155934,-0.20567247096095542,-0.42674703949883547,0.0001562975199661431,0.038637765180768446,1.0714119198585779,0.6221801347660532,0.6234041400325343,0.9344942074155609,1.0,-1.1452406036820628,0.0,0.002150298897977736,0.0838373500005338,0.8453356035447475,1.216395324324493,6.303901910247563,0.830418846565352,1.2286340275439682,1.30944105927268,1.7558944302434552,1.7804780338650565,1.4419980759500104,2.0906802955942676,0.5507593335983376,Relax
108.63056715922342,552.3846153846154,41.76778917241167,,,,,,,17.85031660270768,17.91336435500694,0.0756135996715432,0.03231501404194399,545.0,40.0302,0.07344990825688073,56.5,2.339890664240431,516.4,587.6,0.6993006993006993,23.076923076923077,481.0,658.0,11.0,140.625,,,0.04652388169224215,0.008138591660916452,0.0003150922617111663,0.05497756561486977,5.716453611459761,0.8462339350954973,0.1480347769111699,-4.811138128565874,12.666661409290793,57.882573961381205,0.21883376191497442,2303.349652934478,4.569678788360544,4.069329979673179,1058.019081788136,0.3986013986013986,0.40425531914893614,0.5964912280701754,0.09375,50.25693730729702,50.25055558596505,50.26194467210519,52.4822695035461,0.5479379392653493,0.4520620607346507,9.376294236905178,8.516567083844114,0.4318841699766598,0.5681158300233401,38.03920907590362,43.62809807078985,0.4371878754327477,0.5628121245672524,27.702854733197892,31.432012790848074,1.6724890998482755,1.390031835671043,1.8234834216970086,2.0434307736194284,-0.36358543989920733,-0.4236361340163519,-0.3417681190616477,0.0007700621597252875,0.11453386270811014,1.3840422535323413,0.5901928529890603,1.8748346474826691,1.6791386800268715,0.554412119580288,-0.43469132850993497,-0.831579697152695,0.0014038677801829688,0.06657029838113691,0.8234910903012223,1.194494060371392,6.281208815857099,0.8053863764029427,1.4290686958678411,1.4157346070686587,1.8000136872585222,1.757577528559965,1.4309262822784283,2.532350488034271,0.45062127294409443,Relax
108.2299550365794,554.5104895104895,41.37987316655066,,,,,,,18.0263891066778,18.08114016337,0.0746241485947001,0.032508653033040236,549.0,40.0302,0.07291475409836065,56.0,2.295516474301648,518.8,590.8000000000001,0.6993006993006993,23.776223776223777,481.0,658.0,11.0,140.625,,,0.05015899034708652,0.008357974416690304,0.00029210873230207463,0.0588090734960789,6.001333319102107,0.8529124396158168,0.14212049127499982,-4.784539175897889,12.785296821103367,57.068552840459894,0.22403401146066867,2292.226597055209,4.463607973986394,4.067227657369884,1018.9265900901628,0.4125874125874126,0.4184397163120568,0.6101694915254238,0.125,52.05063291139241,52.15540305803832,51.944281976662054,49.645390070921984,0.5653295191036559,0.43467048089634414,9.617876381992584,8.43351133722943,0.45332687762944707,0.546673122370553,38.42400182395851,42.194973718877904,0.4586848697395781,0.5413151302604219,28.008101169722824,30.426468087932705,1.6549973811760739,0.9303214107690243,1.7056069461090044,1.9689617600608025,-0.3079647161065182,-0.8344922288819729,-0.2169206137757239,0.0004705532131421624,0.054376352944560225,1.0002156096828552,1.211642194799309,0.09743729288191538,0.7032583902815699,1.0,-2.7077052623883784,0.0,0.004970081486795538,0.282115715589232,0.794761930630477,1.1614131899071403,6.321316071056469,0.8226080871472611,1.3647820389346168,1.3699808485947538,1.7311598016534893,1.7332947549552638,1.464359901899645,2.0135377742918856,0.45062127294409443,Relax
108.00261099576258,555.4685314685315,38.646065374821646,,,,,,,16.877771029658433,16.923922091145364,0.06957381595074397,0.03038474742221215,549.0,35.5824,0.06481311475409836,52.5,2.289761207621013,523.4,587.6,0.0,23.076923076923077,483.0,658.0,8.9375,140.625,,,0.06378420454208791,0.011761922963849673,0.00034372396070502437,0.07588985146664261,5.422940172123978,0.8404839818420816,0.1549867701219527,-4.4428878325450025,11.967020074921704,53.149310117041885,0.2251585213160571,1998.1750135515222,4.44131536374895,4.0076036339373236,944.2113903819028,0.42657342657342656,0.43262411347517726,0.639344262295082,0.15625,47.47102212855638,47.52743900883075,47.42056123804537,50.35460992907801,0.4771569839307787,0.5228430160692212,8.273044325479436,8.660049301286293,0.46652802768000806,0.5334719723199917,36.30249729521377,38.81981267405199,0.46704166180720885,0.532958338192791,26.32788039588784,28.12449386166084,1.5484214204429614,1.1580033339400844,1.6839642055022468,2.011070623940975,-0.48736345977344264,-1.199097264791324,-0.21752549509010924,0.0005917330511612523,0.09450647207419792,1.6977244747756337,1.3947424581266963,0.3029820166489374,1.0003532457122857,0.9995008749964946,-1.6591754788728994,0.0,0.003528789625380621,0.2514322705812351,0.7757395431813507,1.226445660177995,6.29334404308444,0.8485967552425684,1.1784446630775942,1.2583515898829718,1.6999359240596088,1.6979354991954314,1.4819040200594686,2.090964183490314,0.4005522426169728,Relax
108.7226121134993,551.8811188811189,37.25577552550604,,,,,,,16.473196325640586,16.529762359210817,0.06750688554273829,0.02984917541487606,545.0,34.099799999999995,0.06256844036697247,44.5,2.2615996792023476,523.4,581.6,0.0,21.678321678321677,483.0,658.0,7.944444444444445,125.0,,,0.06061377037320943,0.011865827921056196,0.0005150095731216058,0.07299460786738723,5.1082630539120535,0.8303869579425558,0.16255759524886287,-4.434092613100139,11.688307055600113,51.52551051607992,0.22684505089867013,1892.011571895573,4.408295424733299,3.983893898261721,908.5586890603305,0.3986013986013986,0.40425531914893614,0.5964912280701754,0.1111111111111111,49.08503767491927,49.0654190629991,49.10864751333962,50.35460992907801,0.5045933461358799,0.4954066538641201,8.303635023887374,8.227699281147368,0.4751106313227225,0.5248893686772775,35.51564266366938,37.32984543403856,0.4765538134729066,0.5234461865270935,25.79061097011257,27.029728037756893,1.6164867086467123,0.7346511537857543,1.6435982403453675,1.816395620109351,-0.15341914138322998,-0.7040434846040293,-0.2647898885429693,0.00021366144744937784,0.026594332053663083,0.7549380059087307,0.8279710927808777,1.5829090986896084,1.1689235522991694,3.7231985581958718,2.7753412860003697,-1.0,0.0012627167438381,0.06306639342590206,0.8016428905942425,1.204906947317733,6.207577172409682,0.8526676961289408,1.2433664159135975,1.2976372961149338,1.6720137595967048,1.625073607664522,1.4859428744560872,2.5552999644669336,0.500690303271216,Relax
108.48766934748292,553.2027972027972,37.776130670816244,,,,,,,16.47212754672246,16.52481387426385,0.06828622498264048,0.029775929604860595,545.0,35.5824,0.06528880733944954,51.5,2.293336459644689,523.4,584.6,0.0,21.678321678321677,483.0,658.0,8.411764705882353,132.8125,,,0.053431616681535746,0.011703454713176804,0.0005832947400735607,0.06571836613478611,4.565456781011646,0.8130393347264497,0.17808499208841286,-4.447871206132905,11.684807948337511,52.18214685986008,0.2239234805673697,1915.5495661776217,4.46581125599796,3.9892635040981275,932.142475235607,0.3776223776223776,0.3829787234042553,0.5740740740740741,0.08823529411764706,51.6424340333872,51.63930642615915,51.6387815055152,47.5177304964539,0.5223338264683746,0.47766617353162555,8.447795465501656,8.078515417297767,0.4852320711704901,0.5147679288295101,36.349353543366085,37.43929684013022,0.4870047382239048,0.5129952617760951,26.387883121307503,27.082866901704683,1.63163063364534,0.7582914664376696,1.6474064509764896,1.8913308671280045,-0.3583678558055965,-1.0182780351911624,-0.1783236697922605,0.00027941710065175105,0.03257655838535534,1.2403815187658904,1.6210677289163864,0.33217533558934975,0.8016661631071671,1.0,3.2149500270073186,-0.21038173227243773,0.010510486895813347,0.4971683059817898,0.8075529638360823,1.205970806988609,6.259214081397473,0.8434863953662156,1.0917473471651287,1.2333591928458714,1.6118081017455392,1.6398925233342636,1.483890789864274,2.1953468822086584,0.45062127294409443,Relax
108.32853471595706,554.0,37.475813796611675,,,,,,,16.83160173309149,16.88957271711681,0.06764587327908245,0.03038195258680774,545.0,35.5824,0.06528880733944954,52.0,2.226515003793904,525.0,584.6,0.0,22.377622377622377,483.0,658.0,8.9375,140.625,,,0.04731177787214966,0.010396768805834816,0.0005705881011908056,0.058279134779175276,4.550623251870101,0.8118133196626565,0.1783960734013825,-4.566260212856142,11.9427313996166,51.67054958809506,0.23113226963562655,1938.6375409178647,4.326526977719172,3.994466728378355,894.216106985878,0.3706293706293706,0.375886524822695,0.5660377358490566,0.05714285714285714,50.869794412229844,50.933356353263235,50.80689023449665,48.93617021276596,0.5153744810957268,0.4846255189042731,8.574454886215488,8.31473101026423,0.47648116517754047,0.5235188348224594,35.666948109867064,37.38602021162243,0.4784539163169984,0.5215460836830018,25.938894194507352,27.08181363052418,1.6731142587458667,0.63832713982631,1.7087416112747342,1.8810800487770236,0.008748528129750355,-0.6647927414771369,-0.230015494015838,0.0001268816427538946,0.021594163285089427,1.4597800173522841,1.7080839124652771,-0.248303895112993,0.6057380611196456,0.9716694607123775,-0.9460534210711948,0.0,0.01611555869544594,0.5736087131182568,0.8001273141988898,1.2286654169163072,6.1681682771411515,0.864693993785023,1.046972199518691,1.1471082849308556,1.6002033616676121,1.613081481730726,1.4706749721137962,2.04918898943975,0.45062127294409443,Relax
106.76913185632047,561.9929078014185,39.047497899335134,,,,,,,18.372339457533904,18.435610564779168,0.06948041044164326,0.032691408027565025,550.0,34.099799999999995,0.061999636363636354,53.0,2.12534163053051,529.0,592.0,1.4184397163120568,24.822695035460992,492.0,666.0,9.4,132.8125,,,0.048372259871726817,0.009640791861316183,0.0006380159585953132,0.05865106769163831,5.017457130862996,0.8247464500739701,0.164375385491757,-4.641752030443198,13.035945245669708,53.79101867058972,0.2423442717361499,2202.9374660821095,4.126361200271079,4.049972279141187,887.8446894615145,0.36879432624113473,0.37410071942446044,0.5576923076923077,0.05714285714285714,51.098901098901095,51.101740500910694,51.0912225255211,48.201438848920866,0.5188970712713729,0.4811029287286271,9.391753615338459,9.043261333145711,0.5090821551675895,0.49091784483241063,38.379888246741025,37.68896214792074,0.5096267664556234,0.49037323354437645,27.93940638062621,27.406554355910657,1.615890964465269,0.798012408076004,1.62610663513171,1.8769020827585234,-0.44336279733428086,-1.0362156539667273,-0.1857248770962377,0.0003216855657403413,0.03527754154557175,1.185312215739288,2.1919127869083375,1.690545581547008,2.2198616774330633,-1.5768180344708735,-2.4540041709500873,-0.2585140708847963,0.003951487597288302,0.4392373639541151,0.7393344176860319,1.2017965249033402,6.217288231708669,0.8696827975020615,1.5809297901941066,1.2505428174068736,1.680423336888031,1.619993304702983,1.496926986663656,2.341538893079628,0.6076213916935144,Relax
107.4346248358085,558.6382978723404,38.28600576035671,,,,,,,17.50183663831558,17.563363484714348,0.0685345167099621,0.031329460770903116,547.0,32.6172,0.05962925045703839,53.0,2.1875421735190788,528.0,590.0,1.4184397163120568,21.98581560283688,492.0,665.0,8.8125,78.125,,,0.05276907029413887,0.00873122807501573,0.0007283042596940195,0.06222860262884862,6.043716856410694,0.8479873894786061,0.1403089207561285,-4.740849246055557,12.419173420485706,52.7996620874297,0.2352131231431196,2060.0307702294213,4.25146346699173,4.0208438173411585,897.9033377368628,0.375886524822695,0.37681159420289856,0.5769230769230769,0.05714285714285714,49.21052631578948,49.16327785870978,49.258332933604436,49.275362318840585,0.4968053353231975,0.5031946646768026,8.754238439035232,8.81035198833017,0.5140245488572013,0.48597545114279883,37.8549845610206,36.80766850034996,0.5131217067843543,0.4868782932156457,27.47395627464845,26.762163240197236,1.651898375496027,1.1588469299495703,1.7531575377346171,2.0630270125022045,-0.45049766998835494,-0.9788708327258089,-0.2326053452278878,0.0007049850016744272,0.09049249012245106,1.1439316256730716,0.8800323604486309,0.3928114869431747,0.8328276671674901,1.3811345457423068,-0.4885549050091953,0.0,0.0018253608951117474,0.078826053875949,0.7773590177566776,1.1809372339241124,6.192396210401386,0.8541024792302216,1.3616024597065803,1.2333511417135794,1.687745040101633,1.6079056723329488,1.4425148763891038,2.32194756286527,0.6076213916935144,Relax
107.70372137828258,557.1760563380282,39.18030683789622,,,,,,,17.433968636295855,17.49612201930147,0.07031943744209689,0.03128987406759453,546.0,37.065,0.06788461538461538,54.75,2.247354440934726,523.4,589.6,1.4084507042253522,21.12676056338028,492.0,665.0,8.352941176470589,78.125,,,0.04542265213504047,0.0080926080272414,0.0005310062614933007,0.05404626642377517,5.612857064389921,0.8404401476853702,0.14973482097333976,-4.816804223196266,12.371626524315339,53.965227650213905,0.22925181756860985,2097.4455107015146,4.362015580097736,4.028660797122105,941.5886551750167,0.36619718309859156,0.3714285714285714,0.5769230769230769,0.05714285714285714,49.999999999999986,49.99991363867236,49.999899257961154,48.57142857142857,0.5045034534254247,0.49549654657457526,8.787369182119136,8.708575412447532,0.5154046897745933,0.4845953102254067,38.74254948624669,37.566749322308134,0.5148603676886999,0.4851396323113,28.09095048086777,27.268112699263074,1.6708317599108442,0.9277297279183134,1.7604012887371703,1.969250684509741,-0.4001725591683645,-1.0187614126601998,-0.274881207869454,0.00014111212640921498,0.04199862705564055,1.5956310815310992,1.914488173428562,-0.3166424357963378,0.6383869948168183,0.9044867783442017,-1.186106149923196,-0.0011567875591306214,0.0218249396570081,0.8769798333037229,0.8037601089189028,1.2102033540765718,6.231411711096877,0.8361012219765744,1.356470797783342,1.3700329993689695,1.7556392926430233,1.641525476720166,1.4360154196240922,2.050638435563273,0.6042039819299732,Relax
107.9669030608146,555.7622377622378,40.13936251519411,,,,,,,17.426303576433764,17.48796695196659,0.07222398318535317,0.03135568124707487,546.0,40.0302,0.07331538461538462,58.0,2.3033778987688507,520.0,589.2,1.3986013986013985,21.678321678321677,492.0,665.0,8.9375,54.6875,,,0.05649754028795033,0.006640985822342097,0.00043902211932105137,0.06357754822961348,8.507402635596227,0.888639808567431,0.10445489024455372,-5.014494859293766,12.365860020901813,55.493835492283196,0.22283303922327322,2155.8519904854647,4.4876648610353715,4.040589051113813,996.1509421711874,0.38461538461538464,0.3943661971830986,0.6071428571428571,0.08571428571428572,50.10384215991692,50.111593638005694,50.09594423496439,48.59154929577465,0.5047771439172581,0.49522285608274197,8.785666921891096,8.70212332448868,0.5108472686028721,0.48915273139712784,39.66343109203513,38.812085896689084,0.5105601168562909,0.48943988314370895,28.726083175878944,28.125655210204275,1.6445930805710878,1.3076704911536101,1.7647711257352428,2.0578056799965827,-0.6505327990416401,-1.0307075476330336,-0.2759110140943621,0.0005907350971997422,0.09862327599652983,1.1193026462099418,2.247453187703627,1.3801551173308253,2.161883072930104,-2.0557113109257994,-2.893418976662497,-0.15217164038107395,0.0027728355534942053,0.3988436568572116,0.803841058952294,1.11365016603265,6.306451056937076,0.8246424884772414,1.1189375931480734,1.2455233404053612,1.6089610957187082,1.6362604440515627,1.4389545697028867,2.1166207984867498,0.500690303271216,Relax
107.22070475032733,559.6524822695036,41.56303058790912,,,,,,,19.137845825932,19.20482981390056,0.07426578440135323,0.03419594557737719,550.0,44.477999999999994,0.0808690909090909,58.0,2.171771628110345,521.0,592.0,2.8368794326241136,25.53191489361702,492.0,665.0,9.4,54.6875,,,0.06451360719908705,0.008164257860874477,0.0005882647180418426,0.07326612977800337,7.9019560991887845,0.8805379429016315,0.11143290747869727,-4.807989449418875,13.579865392942667,57.36075324063474,0.23674489308000576,2447.14770623196,4.223955951024714,4.095630293480112,969.157180024157,0.36879432624113473,0.3785714285714286,0.6037735849056604,0.09375,50.879765395894424,50.90732676877793,50.848455311995146,48.57142857142857,0.5180396286761839,0.48196037132381636,9.774986430283686,9.42845074512443,0.5155875066243503,0.4844124933756499,41.18755750896797,39.92293975621593,0.5157176715140575,0.4842823284859426,29.932968891063695,29.006351047931588,1.581413107476058,1.1995112674392736,1.7616194833379009,1.9279548527704549,-0.34681518974224623,-0.7822710760386906,-0.36133071531070476,0.0002262542079355136,0.07683590173384393,1.2248809070726463,1.2408145421845558,0.1662967962015407,0.7867040672938186,1.0,-2.27288059563467,0.0,0.004732946181589552,0.2427110455045884,0.748809902240184,1.045748799111042,6.297040802615311,0.8290818694265581,1.201049285377151,1.3036679229587962,1.824626160206904,1.6728146276640874,1.4458038386591119,2.2690849461625353,0.7088916236424334,Relax
106.89885293873826,561.3262411347517,40.25197359028334,,,,,,,18.857927472854183,18.925334711340764,0.07170869743932115,0.03359530713321339,556.0,40.0302,0.07199676258992806,55.0,2.1344855445130806,525.0,592.0,2.8368794326241136,23.404255319148938,498.0,665.0,8.8125,46.875,,,0.05194969061139825,0.009726569189388183,0.0011544158252990082,0.06283067562608544,5.341008694831067,0.8268204996005212,0.15480605758996485,-4.632894046258856,13.382232510614205,55.509828717763455,0.24107861291836083,2333.717759857966,4.148024529818584,4.075018441213517,921.0245246692435,0.36879432624113473,0.3785714285714286,0.6226415094339622,0.09375,49.62630792227204,49.626380893277734,49.62780105251285,49.28571428571429,0.5035451021350956,0.49645489786490443,9.496307498976005,9.4292137499606,0.509517928803986,0.490482071196014,39.623206927237085,38.87598946749507,0.5091898515975107,0.49081014840248915,28.811268483995605,28.286504105484944,1.673720188614496,0.7885222389032824,1.7439785880603837,1.6287272753477926,0.20959475600900745,0.35466362590540346,-0.6461611442600385,0.00032801908584402447,0.027319065400975454,1.4601956240285465,1.1206880306080251,0.3395075934205214,0.899851608724534,0.9943885361504865,-1.0126983256780084,0.0,0.0032272890717855163,0.18400375362301932,0.7459285776714957,1.0275163669843792,6.277502593380111,0.8268508756256486,1.0664043169881978,1.1800604201332912,1.5705026915482625,1.6398484905405084,1.4418122162700484,2.7949472267268094,0.658256507667974,Relax
106.99319237008835,560.8652482269504,39.61839757669517,,,,,,,18.48300377566992,18.54905858829011,0.07063799674153434,0.03295444642737233,556.0,40.0302,0.07199676258992806,54.0,2.143504273306853,525.0,590.0,2.8368794326241136,20.56737588652482,498.0,665.0,8.8125,46.875,,,0.05075397481408219,0.00977688067435481,0.0007529768970343954,0.061283832385471394,5.191223714861541,0.8281788660807459,0.1595344203159302,-4.627734795263079,13.116165112406504,54.59907572374232,0.24022687084981115,2249.7902932361308,4.162731656381587,4.059112148635448,909.1252036975903,0.3829787234042553,0.39285714285714285,0.6545454545454545,0.125,50.385208012326665,50.41016723971148,50.35968281449357,48.57142857142857,0.504045831852301,0.495954168147699,9.312133339795425,9.237085092560003,0.5138235061944398,0.4861764938055602,39.13742739963943,38.06994676151913,0.513290016105406,0.48670998389459397,28.446915920712534,27.70058291292888,1.628987920197171,1.2414224112564698,1.8251308260141137,1.885624987300186,-0.13161088264675946,-0.24704044460912122,-0.4512702842017771,0.00016764354020688292,0.07697211579493426,1.1125746476940148,2.3587933982405977,1.7945110014427441,1.7269541541100317,0.21125850834943094,0.35838862689806694,-0.5286404258139362,0.0050187221225064015,0.5424286746384772,0.8125872392322595,1.252762968495368,6.24913379905387,0.8276380007687181,1.3688315329171286,1.1459089356131211,1.6267451761462879,1.6659824750112038,1.4434167199894685,2.1741840267180392,0.6076213916935144,Relax
107.18248293727422,559.7588652482269,38.50749476386194,,,,,,,17.958682738839332,18.006530732588057,0.06879300562177906,0.03208289114076915,552.0,40.0302,0.07251847826086957,52.0,2.1442271309009535,525.0,590.0,2.8368794326241136,18.439716312056735,498.0,665.0,8.294117647058824,46.875,,,0.06577332038446652,0.011748439809615025,0.0006478160367563794,0.07816957623083794,5.598472771732385,0.8414184079779995,0.1502942752935158,-4.444034829368724,12.732539986656986,52.48097193469923,0.2426125034898319,2099.2627081376795,4.121799106046119,4.029036900881159,865.264092819499,0.41134751773049644,0.4172661870503597,0.6724137931034483,0.15625,47.118463180362866,47.27024218169454,46.964499382883474,49.64028776978417,0.4635232104890148,0.5364767895109853,8.67664524236588,9.33451088837438,0.47699868936933876,0.5230013106306612,36.24603139997308,37.95362463537382,0.47624829570828664,0.5237517042917131,26.353927268148336,27.637028752093038,1.627694055418111,1.6926763578663797,1.8318405114684784,2.112861361774637,-0.5971761054588711,-0.7072006998544929,-0.33397839226608816,0.0012795413844431322,0.18398496301182615,1.1184111768068306,2.7535727606514566,2.5199171674631735,2.477403558261682,-2.7310712425719057,-3.7310712425719057,-0.5154394355613225,0.0256859206229729,1.3302830292195928,0.8307917171231134,1.2092778565556292,6.218179699929044,0.8058421263239722,1.1138988798648788,1.1811610243297113,1.5351771056145675,1.6362081580966017,1.4464678422760366,1.991806028198668,0.6076213916935144,Relax
107.64136768520827,557.4788732394367,36.984512439986744,,,,,,,17.356708188736025,17.417526023116988,0.06634244671026651,0.031134288709235687,547.5,34.8411,0.06363671232876712,49.5,2.130848317423955,527.4,586.8,2.8169014084507045,15.492957746478872,498.0,665.0,7.888888888888889,46.875,,,0.0677564681573672,0.011856849777520802,0.0006511174441234811,0.08026443537901148,5.714542178465104,0.8441655116293882,0.14772233457486297,-4.434849538104823,12.316050762439179,50.99045046379279,0.24153641810214127,1972.923253628093,4.1401624146679135,4.002080301562643,844.4349860687239,0.43661971830985913,0.43884892086330934,0.6885245901639344,0.18181818181818182,50.75208913649026,50.7786689512979,50.72269808704824,47.482014388489205,0.5031664194740684,0.49683358052593185,8.736826818539031,8.681671991697716,0.5025906088684007,0.4974093911315992,36.14897882048213,35.96216579597009,0.5026223534573425,0.49737764654265737,26.297155859719965,26.159594772360958,1.6222370331218519,1.6490272860601864,1.7883492341198113,2.1598677641251363,-0.6809358530321266,-0.9422834536663318,-0.2747044374911785,0.0019800576663821247,0.19998107535812018,1.7024388792950542,2.1044707910157463,-0.18771979400732475,0.8645156015005484,1.4286242354267347,-2.386329639992043,0.0,0.0022005690592072267,0.28159795828353135,0.8122006156409523,1.1415373333851435,6.118917567075491,0.7958957962695384,1.2216518163895422,1.0235008479305814,1.694272432743672,1.6055868644226727,1.46255565483755,2.136943717188574,0.654554313757471,Relax
108.40120278558747,553.4685314685315,35.01223210713654,,,,,,,16.29741187436879,16.343805188363,0.06325966178101894,0.029445959341403694,545.0,32.6172,0.05984807339449541,45.5,2.148330813323854,523.8,582.6,2.797202797202797,12.587412587412588,498.0,665.0,7.944444444444445,109.375,,,0.053156958481608826,0.009458897326710855,0.0005923784523754222,0.0632082342606951,5.619783854879109,0.8409815446254842,0.14964659964552593,-4.66079946437066,11.556815479083356,48.05335745108188,0.24049964647835786,1744.6639558406164,4.15801027004831,3.948681898747915,799.2254151676037,0.44755244755244755,0.44999999999999996,0.6984126984126984,0.16666666666666666,47.45562130177516,47.40619203064725,47.50973962170255,50.0,0.48006151235549904,0.5199384876445011,8.012844298928144,8.339005162020143,0.5176756132332658,0.482324386766734,34.57423584747925,33.37285390679567,0.5156162788272776,0.4843837211727225,25.09565159739815,24.323716666830805,1.6142419693037477,1.135313903625545,1.7238534967575205,1.8673711690700538,-0.4684223701779082,-0.7201919564284109,-0.3735876731058963,0.00020363858801541687,0.05605684020243016,0.8033130553213003,1.1885708897022824,-0.103384172874464,0.209027610470159,0.8017873792644515,2.7478066562012207,-0.23715342849859214,0.012437653830084267,0.3908378830432508,0.8069070061696761,1.0637655573379414,6.085585260255442,0.7860395120523764,1.2277642160106286,1.1474767210276615,1.6909435324372695,1.587267444622964,1.449111699600852,2.339350191195358,0.6008283639254592,Relax
109.34254542703698,548.6896551724138,35.674360003871456,,,,,,,16.366038684489972,16.421246684017103,0.06501737305884063,0.029827496345538534,543.0,31.1346,0.05733812154696132,44.0,2.179779767823713,519.0,576.4,2.7586206896551726,13.793103448275861,490.0,665.0,7.631578947368421,85.9375,,,0.055399576360398134,0.008795507407367353,0.0005116143983957591,0.06470669816616124,6.298621988993377,0.8561644764833585,0.13592885522888595,-4.73351420974872,11.6115748858056,49.220568217609355,0.23590899711822902,1795.5091518919278,4.238922687203983,3.9611577330724677,834.5687331787824,0.4206896551724138,0.4225352112676056,0.65,0.1388888888888889,48.95833333333334,48.918673827967005,49.0005344834705,50.0,0.49167746953590874,0.508322530464091,8.142953537119828,8.279640544881616,0.510701677919184,0.48929832208081614,35.17468892909703,34.42971963878873,0.5096985174693625,0.4903014825306377,25.530045373700705,25.039549136895836,1.575744829157531,1.3915555212764867,1.7534791757390455,2.018689917589409,-0.7333754889473934,-1.2027145622242985,-0.3094141859269234,0.00037284061041591724,0.10662108588404395,1.330604220760712,0.890256410060934,0.46316314052912366,0.9082913455595907,1.0,-0.8038874687078659,0.0,0.009184327646158274,0.24093129463442753,0.8101932625529078,1.0830391152051397,6.111165042354739,0.7847888412032715,1.1244429593028569,1.2268022814501294,1.8517157247281233,1.556596060985044,1.4500849793713535,2.271476259251293,0.5941993729667532,Relax
109.46950767582604,548.1458333333334,35.442649183136425,,,,,,,16.35360998191407,16.40935753390319,0.06465916007717488,0.02983441447044488,541.0,28.9107,0.05343937153419593,41.0,2.1672676077229114,519.0,573.8,2.7777777777777777,12.5,490.0,665.0,7.2,70.3125,,,0.06844705122280606,0.012477878882968389,0.0004149270120428851,0.08133985711781734,5.485471678702739,0.8414946085246179,0.15340423901771438,-4.383797891786524,11.603167987137507,48.88406818714418,0.2373609320467517,1781.942942050546,4.212993230929155,3.957863903742714,823.7929934908707,0.3958333333333333,0.3971631205673759,0.6071428571428571,0.1111111111111111,49.01392111368911,49.01142803468947,49.020308466286345,51.06382978723404,0.4908743855245266,0.5091256144754732,8.13032057646292,8.280088112751553,0.5089138764707772,0.4910861235292229,34.873014281690686,34.256751121995784,0.5079515424145357,0.49204845758546417,25.32024128801954,24.9207228686217,1.5724726449766664,1.8160724066019052,1.8190856440101193,2.2318431156619076,-0.718215900081093,-1.1618429901798226,-0.27271970536455187,0.0023594629012959677,0.2661989177339195,1.397547735526615,2.880577714813436,1.4930500542830873,2.618067269751216,-5.160757257131646,-5.704700332917209,-0.10944736547717429,0.0029921094399619156,0.47582119538379253,0.7834209766033475,1.0574363744839235,6.122230408104684,0.7782631151468183,1.1849029108504863,1.2989373407676232,1.8529979691428722,1.5540469638570256,1.442884923234741,2.4825660969237124,0.5477026042768434,Relax
109.7669763193659,546.6896551724138,35.37016893619131,,,,,,,16.106416940668918,16.162628962534992,0.06469880781818771,0.02946171888983213,539.0,28.1694,0.05226233766233766,39.0,2.1960296362924248,518.0,571.2,2.7586206896551726,11.724137931034482,490.0,665.0,7.631578947368421,70.3125,,,0.06594510948379675,0.01213870000585079,0.00036534119721542074,0.07844915068686296,5.432633597667919,0.8406096038824277,0.15473335147124195,-4.411356582622463,11.428704541210585,48.815336349727865,0.23412118804901563,1752.6821516901628,4.271292181340887,3.950673274040172,834.0182579204728,0.3931034482758621,0.3943661971830986,0.6071428571428571,0.11428571428571428,50.05910165484634,50.062676714250564,50.05501449759427,50.0,0.4989559910054609,0.5010440089945389,8.072876109004069,8.089750054485982,0.5136474351449701,0.4863525648550299,34.985561457399974,34.04331876370975,0.5128840022479537,0.487115997752046,25.3885883731337,24.742590894969023,1.6240700432303155,1.3340256713652465,1.8550075057147448,2.004536779820077,-0.24092984231204184,-0.6097430108363362,-0.3879112469010411,0.00037369663270841216,0.10787150362058498,1.7763826348311835,1.2810793893427626,0.8513255059717251,1.4918652006431063,1.7262493961380017,-0.15891281308771799,0.0,0.0004763174776752735,0.10750107342850719,0.7959339228823485,1.0718341695867168,6.136747841972301,0.7682041418618596,1.3729120843132614,1.291689096837949,1.7787646350631283,1.5412164359963934,1.420875287322645,2.005745014806356,0.7427492162084415,Relax
109.6413284371748,547.2916666666666,35.631540008209626,,,,,,,16.534558004119987,16.592496574613122,0.0651052120439308,0.03021160198697219,541.0,30.3933,0.05617985212569316,42.5,2.154973843227691,518.0,572.4,2.7777777777777777,13.194444444444445,490.0,665.0,7.578947368421052,54.6875,,,0.04559207230792189,0.009412032099855097,0.00027561952178063764,0.05527972392955762,4.844020061153829,0.8247521707239238,0.17026192301265383,-4.665766397598496,11.7326668447235,49.18195372336962,0.23855633939870366,1812.8104179451293,4.191881894736326,3.9653224983124686,824.6597654430118,0.3888888888888889,0.3900709219858156,0.5636363636363636,0.11428571428571428,49.68152866242039,49.676715341331345,49.687285445353886,50.35460992907801,0.48824657884639977,0.5117534211536001,8.198247837534177,8.393282021866748,0.5154616672517005,0.4845383327482992,35.31050785763019,34.234961762559436,0.513996244537995,0.4860037554620051,25.632432900228153,24.924684451187122,1.5907089219457162,1.586072379735751,1.835926001319261,2.1410393441305753,-0.7503784858073672,-1.1973612562577323,-0.30762962226090346,0.000716500747452461,0.16154620089830396,0.8389076380597263,1.8775966743050019,-0.6423176004632452,0.2964807366892558,1.0,-3.485453382788865,0.0,0.015710998152224636,0.6668530277688028,0.8266095025315767,1.0941579383187294,6.139523637241305,0.7794309188755699,1.4072155848675207,1.27357791063517,1.8162561365687462,1.5614109631980997,1.4508651167202473,2.255785729729257,0.647284895963542,Relax
110.43962598625251,543.445205479452,35.62177381823492,,,,,,,17.120465672042517,17.175279615920594,0.06554805058369735,0.031503572944282514,537.5,28.9107,0.0537873488372093,39.75,2.0806544927340838,515.0,565.0,3.4246575342465753,13.698630136986301,490.0,665.0,7.684210526315789,70.3125,,,0.05105374539810648,0.014368347531071394,0.000422201846813663,0.06584429477599153,3.5532092530267185,0.7753708285857737,0.21821704644197132,-4.2427275798618505,12.144756685192533,48.83426600654982,0.24869333929506868,1863.2166460801488,4.021016416581724,3.977233465516571,785.4535412162227,0.4041095890410959,0.4014084507042253,0.5789473684210527,0.1111111111111111,51.59663865546219,51.54950480875245,51.63778615018636,50.70422535211267,0.5522458295098939,0.4477541704901059,9.027542731982928,8.12873845617442,0.5192675455494983,0.4807324544505019,35.19008002473958,33.85917607164846,0.5211893515026824,0.4788106484973174,25.68889117814696,24.622349533907002,1.5845747232377845,1.5343966240451286,1.8436667106364268,2.0373850436781713,-0.49441603503782616,-0.7840065837502728,-0.3737495051761487,0.0004944399093588952,0.141744288527219,1.4793490855587366,2.7723740422558207,-0.3379626116114154,1.048224409516495,3.9204099528329266,-0.5707956303732402,0.0,0.003061655884057969,0.33352003430015126,0.8186889109320488,1.0851116014492073,6.083502343313772,0.7799195134427902,1.521615755606347,1.3164911733293658,1.767390122279507,1.548425037470716,1.4679128791759406,2.177667512334574,0.6894352316734264,Relax
109.3412574139027,548.875,40.82863300096236,,,,,,,16.871584088352513,16.930245475437264,0.07438603142967408,0.030738481600277864,539.0,31.1346,0.057763636363636364,43.0,2.4199644080337936,515.6,574.2,2.7777777777777777,13.88888888888889,490.0,666.0,8.0,70.3125,,,0.06026439103221578,0.020767557983112504,0.0005901999452324862,0.08162214896056078,2.901852547190228,0.7383337954178968,0.25443532481786574,-3.8743632222427866,11.971491382834554,55.86016269244827,0.21431178868465736,2100.8755472026382,4.66609889328776,4.0293704361592635,1042.5961732724284,0.4027777777777778,0.4,0.5535714285714286,0.1111111111111111,49.397590361445765,49.46157992488577,49.32897015189543,52.85714285714286,0.512541456823486,0.48745854317651394,8.570954882954046,8.35860019280134,0.4121162076406416,0.5878837923593585,35.86014519125859,42.829986725291455,0.4165264663831657,0.5834735336168342,26.07116492165032,30.85671693547242,1.6072408404583585,1.4835052203922965,1.8235878990776535,2.0691440519539284,-0.6020926989115605,-0.9141264955711641,-0.33447570692650463,0.0005084296697197007,0.1298940053121374,1.7495506533378526,1.7228334094688604,0.20636192688331878,1.0677786316177489,1.3592893660286531,-0.22078032862694563,0.0,0.006204124684114658,0.40416976663499576,0.753479137487282,0.9697212756000895,6.181704428360377,0.7228246291455008,1.2556136680243335,1.298079582452191,1.698612933474214,1.5588903150840416,1.4529039943344086,1.97713687043968,0.4979114584334938,Relax
109.99141581237086,545.4137931034483,36.848146758558016,,,,,,,16.409897081402498,16.463633666014726,0.0675599833089829,0.030087059199637885,539.0,28.1694,0.05226233766233766,39.0,2.2454831115497,514.8,571.0,2.0689655172413794,14.482758620689657,490.0,664.0,7.25,70.3125,,,0.05108229555755158,0.015029003519517456,0.0004169895859534916,0.06652828866302252,3.3989143386128973,0.7678281913471785,0.22590395486710926,-4.1977733768484615,11.64154700821015,50.874691561256576,0.22882786412951395,1860.6400210786803,4.370097163665398,3.976632468056857,889.3093811767974,0.42758620689655175,0.425531914893617,0.5833333333333334,0.1388888888888889,48.582995951417004,48.51540411981842,48.65363315276796,52.4822695035461,0.5198958145292312,0.48010418547076883,8.395803147377293,8.068110410400045,0.40147184750231607,0.5985281524976838,32.23512343213359,39.359002258290325,0.4073666555544886,0.5926333444455117,23.554115279228792,28.409729533757517,1.542047800657665,1.7043191529292319,1.817276684828907,2.139635828659249,-0.9565466203739899,-1.3938081828384377,-0.3108575243807477,0.0006736186284496587,0.18034470026613458,1.4612315519066856,0.87462211171246,1.6003803537644632,1.1630692979082333,1.2782976037155551,0.19580556814663108,-1.0,0.002979071498177614,0.132139440113841,0.8046188247576929,1.0946597143522863,6.108983486462213,0.7727636371445848,1.1642490031342674,1.3071822233128032,1.702559056874621,1.5663337892680447,1.4488229457087933,2.2720770480278394,0.6932326017945455,Relax
110.21222044536852,544.5103448275862,37.36106061897484,,,,,,,16.312699551780714,16.368212069614273,0.06861405108989224,0.029958474998204063,538.0,29.651999999999997,0.05511524163568773,41.0,2.2903052005819884,510.0,571.0,2.0689655172413794,14.482758620689657,490.0,664.0,6.904761904761905,54.6875,,,0.05853350810304983,0.011490251091209568,0.0002640142290566338,0.07028777342331603,5.094188772587394,0.8327694171008261,0.16347439293614036,-4.466256334339397,11.574073750323745,51.64353545482246,0.22411466698380272,1877.8118871760391,4.4620015881078965,3.9806221939231308,921.7341488596971,0.42758620689655175,0.42142857142857143,0.576271186440678,0.1111111111111111,50.90273733255679,50.95808739772553,50.84692961673499,50.71428571428571,0.5382186382734412,0.46178136172655854,8.491871885037368,7.865788540930233,0.4138673360840034,0.5861326639159966,33.22358870353038,39.53792999048069,0.4198154541928086,0.5801845458071914,24.247873457823466,28.50542524943964,1.5972939517231919,2.28398215808245,1.901337704168442,2.2300509987325468,-0.8430387111214284,-0.53547515994366,-0.35607886935505634,0.0028507812975932345,0.36034592763204215,1.3989316738645123,2.894600771334957,-0.5583608705146372,0.8889395151528412,3.90447246299577,-2.0005968914162287,0.0,0.005684066753649815,0.40582904567041994,0.8024887378569701,1.0288789506534344,6.108983486462212,0.7590879983594213,1.0906057399398505,1.2741765967799223,1.6129834161451018,1.4918978900486932,1.4213480706443666,1.9279841057894638,0.6437159873806493,Relax
110.08103119580643,545.1241379310345,36.90545028226046,,,,,,,16.26580428041875,16.322041610856846,0.06770100187148471,0.029838715897178986,539.0,28.1694,0.05226233766233766,38.0,2.2688979681557044,516.0,571.0,2.0689655172413794,14.482758620689657,490.0,664.0,6.590909090909091,54.6875,,,0.05649155771130819,0.008117417430995883,0.00015838732093642112,0.0647673624632405,6.95930179660325,0.8722226066156493,0.12533191289985016,-4.813743225767261,11.541426305845874,50.969121773090464,0.22643957565577005,1848.0618678558776,4.416189162623165,3.973686616033467,900.35713281097,0.42758620689655175,0.42142857142857143,0.576271186440678,0.10810810810810811,50.55849500293945,50.59807708272255,50.519457358556274,50.71428571428571,0.5332948371348329,0.4667051628651672,8.428639157180596,7.884879749959962,0.4156340404195266,0.5843659595804735,32.859632729507084,38.96275030336066,0.4213731873798256,0.5786268126201745,23.987469866161906,28.109315536609564,1.60019578239863,2.163821615033065,1.9018888143233685,2.164817323172583,-0.6416490718678656,-0.32928654419648407,-0.37848882411446066,0.0023963247131570417,0.3184710336449366,1.7442380418589676,2.5571098512715,1.5072809119199633,0.9777663923180162,-1.174642162427908,3.660709353985622,-0.707075389951922,0.006180076698931375,0.3556558630015576,0.778259127808818,0.999630455119259,6.081286849007018,0.7541588288216211,1.438127643045367,1.3141642496986852,1.7963565344375614,1.5214362624940605,1.4118745766697938,1.925763436681429,0.7427492162084415,Relax
109.58070518168283,547.6551724137931,36.41874122815996,,,,,,,16.172893989635867,16.22631409873386,0.06649940156256383,0.029531162680987287,541.0,28.1694,0.05206913123844732,38.0,2.2518382456162955,519.6,571.0,2.0689655172413794,13.793103448275861,490.0,664.0,6.304347826086956,70.3125,,,0.04364889318569086,0.0063037992485204895,0.000159362366348437,0.05011205480055978,6.92422005601389,0.8710258112425929,0.12579406838551893,-5.066602772028725,11.473736732877594,50.2786096929633,0.22820314250820248,1812.3330626906088,4.3820606018344215,3.965208123388965,881.2956586021791,0.41379310344827586,0.4028776978417266,0.5178571428571429,0.08108108108108109,51.33689839572192,51.31964388972739,51.348608359562164,50.35971223021583,0.5405017921146953,0.4594982078853046,8.436931799049828,7.779073596128655,0.4201991493101524,0.5798008506898474,32.591987453098334,38.28447396157381,0.4261561159179579,0.5738438840820422,23.80566596762982,27.624399835366642,1.5613333353028578,1.0152187100661019,1.8270081089264427,1.6133870033344366,0.848384130095261,0.9572276072425128,-0.7104188028391409,0.0005543209283567181,0.08069215843824594,1.7315495076172163,2.378705030389056,3.195781535240643,2.713169479614408,-4.5467377351503195,-5.5467377351503195,-0.7028885672921371,0.007648983245687343,0.6782875174103222,0.7382656150639217,0.9894815532451529,6.120262603864971,0.7405141746063509,1.1226412487964461,1.2376273248852483,1.8597397853535342,1.5317335896126556,1.4378874515990716,2.126331966513198,0.7427492162084415,Relax
110.17845322023693,544.6,33.52246344700156,,,,,,,14.397627119309163,14.447820267760479,0.06155428469886442,0.026437067791606983,540.0,25.2042,0.04667444444444444,34.0,2.328332520991838,519.6,563.0,0.6896551724137931,11.03448275862069,490.0,655.0,6.041666666666667,70.3125,,,0.04814558313882583,0.012206607218996872,0.0003012529498065058,0.06065344330762921,3.9442231797135183,0.7937815318189843,0.20125167761846557,-4.405777898514304,10.216151684697875,46.44575584709798,0.21995877768315403,1490.6759338615825,4.546306405832455,3.8803533500393934,844.626549325567,0.4206896551724138,0.41007194244604317,0.5263157894736842,0.07894736842105263,49.80694980694981,49.80603220626446,49.80879306112372,50.35971223021583,0.5137018425460635,0.4862981574539365,7.322252700869084,7.124271524531105,0.3839781816246989,0.6160218183753011,28.78056455188227,36.453907064719054,0.3899648577210726,0.6100351422789274,20.99924142130433,26.26444921408422,1.593884742629854,1.9610886236783553,1.8034229108544482,2.333772891331125,-1.1048045541271847,-1.3893369555770647,-0.22956348118428463,0.00313504752645874,0.31202801585928447,1.5024808570894688,0.9899259629658583,0.5125548941236104,1.0075178756065397,0.9734504781231665,-0.5393239613658327,0.0,0.007635267841282895,0.2558470426658154,0.7853645537437113,1.1382907724862859,6.106199845124917,0.7786920228579952,1.2057541569108543,1.3216953564424405,2.022086219166903,1.5225189548593365,1.416336574802708,2.263185998422782,0.7427492162084415,Relax
110.25402176161269,544.2344827586207,33.241543158687456,,,,,,,14.212670403551895,14.257313176786818,0.061079450515874,0.026114975904339213,541.0,22.238999999999997,0.0411072088724584,31.0,2.3388668149498524,519.6,559.4,0.6896551724137931,11.03448275862069,490.0,655.0,5.37037037037037,70.3125,,,0.04804751868944973,0.007407867812657028,0.00020483289623290216,0.055660219398339664,6.486011886896267,0.8632290567450221,0.13309088416705026,-4.905212625661255,10.081442828806276,45.96162274491367,0.21934479739234047,1455.6867132755897,4.559032226377848,3.870038027977544,838.16207708273,0.41379310344827586,0.4028776978417266,0.5357142857142857,0.05,48.21664464993395,48.216598672088914,48.22221576803658,50.35971223021583,0.49979372937293726,0.5002062706270627,7.129668143200483,7.132610032388275,0.37835318198686413,0.6216468180131361,28.271187380844054,36.23824953585601,0.3839314477040552,0.616068552295945,20.61664623253457,26.11594202108259,1.6297517009259113,0.9731481194767841,1.7706083444009435,1.9923440135828843,-0.05240653767565462,-0.5916043390938679,-0.27214602305232055,0.0007264018560085938,0.0715232102003182,1.6324690459562528,0.9580757595896618,0.8514192759647043,1.3304571557595353,1.0,-1.5322323163196696,0.0,0.004241164365004532,0.21290658787672626,0.8152399278986469,1.1472944673074976,6.057948380143195,0.7771225235105905,1.152011133233444,1.2173205269681364,1.9295674453271787,1.4899566049458741,1.4273954351526863,2.314649659232827,0.7427492162084415,Relax
110.31186485051278,543.8965517241379,33.432711056424594,,,,,,,14.41498063358625,14.463575878565686,0.061468878503538535,0.02650316606694993,539.0,23.7216,0.04401038961038961,32.0,2.319303223934127,519.6,560.2,0.6896551724137931,13.10344827586207,490.0,655.0,6.041666666666667,70.3125,,,0.04938192343685227,0.0063894090398742935,0.000209411270511634,0.0559807437472382,7.7287153050736315,0.8821233897823753,0.11413583693570548,-5.053113496892222,10.227292583939974,46.230192213592105,0.22122539609370379,1485.3754862869446,4.520276684582963,3.878806362274533,835.8930399475568,0.38620689655172413,0.3785714285714286,0.49056603773584906,0.025,51.03359173126615,51.00972776139717,51.05443399871038,48.57142857142857,0.5234944188222712,0.4765055811777287,7.400623674341965,7.060676090371718,0.3958023361717532,0.6041976638282467,29.08471923463163,35.934798999692774,0.40176144633380007,0.5982385536661999,21.221335063169114,25.895587712981797,1.561077216954081,1.328473673365031,1.671076205335331,1.9908063175931194,-0.5765285255857275,-0.8887140563037867,-0.2593252176026113,0.0008859845123654368,0.11308075091104255,1.3006201809419837,1.7717512927764556,1.3006201809419837,1.4686019163320827,-3.4081252348012967,-2.1312400880847138,-0.40518887381373936,0.006517003733429622,0.265082784385698,0.808585358759284,1.145443588352209,6.077924910848297,0.7844937798280393,1.3759491230139915,1.4226166107936036,2.030501556655806,1.5199347910366587,1.4351851175686041,2.1627413654845755,0.8912990594501298,Relax
110.59296626601024,542.486301369863,33.90702018682752,,,,,,,14.404501212204947,14.452283092647969,0.06250299795811798,0.0265527464487699,538.0,25.2042,0.046847955390334574,33.75,2.353918381991462,515.0,559.0,0.684931506849315,13.698630136986301,490.0,655.0,6.083333333333333,70.3125,,,0.04126844295558443,0.005635613047256676,0.00026523909506796144,0.04716929509790907,7.322795694014732,0.8749005655039731,0.11947630414147302,-5.1786493446383055,10.219307378439066,46.931584366086675,0.21774903865857254,1506.7338691367613,4.592442777981611,3.8850066606360736,862.1224627250778,0.3767123287671233,0.36879432624113473,0.5,0.02564102564102564,48.83570504527815,48.776752912414466,48.89607304837927,51.77304964539007,0.5063817057767732,0.49361829422322673,7.2731908785316195,7.180945078624555,0.3881907717802345,0.6118092282197656,29.240703650904162,36.709056935736044,0.3935425882624915,0.6064574117375084,21.306314270135456,26.449204461886303,1.6608368082272846,0.8705773524640099,1.7740639400130593,1.4881478389243754,1.000352186233271,1.6798604542443751,-0.8284212485880211,0.0004569237249560309,0.05238815665710672,1.4920767911849675,2.5933745007727165,3.5094004431154513,2.7887640415713255,-3.0250282291292727,-4.183166527298247,-0.7778759493969755,0.016084470338997563,1.0279120741780279,0.8609803012892616,1.18519290967434,6.109086846693974,0.7745835751041662,1.3070869985925262,1.3551456823056904,1.9401619444066833,1.5518580643751327,1.3999082606487896,2.1242332370857286,0.8371713527463034,Relax
109.79081097690072,546.7241379310345,39.6432849082184,,,,,,,16.238029779228484,16.27949925395729,0.07251058103679177,0.02970059057695528,538.0,29.651999999999997,0.05511524163568773,38.0,2.441385158618792,515.4,571.0,1.3793103448275863,15.862068965517242,490.0,665.0,6.904761904761905,70.3125,,,0.04023236994428891,0.007299707932043149,0.0003504746510729255,0.04788255252740498,5.511504065482259,0.840230268034738,0.1524502673048863,-4.9199209409373434,11.51134431679454,54.50655755442244,0.2111919158589489,1971.1726803541758,4.735029728447945,4.001694781344231,1032.3606816621966,0.3586206896551724,0.3546099290780142,0.46,0.0,53.022142429682816,52.855117994332005,53.19087109420747,50.35460992907801,0.6060733756485555,0.39392662435144465,8.970035588643919,7.231680496067479,0.4158329184075365,0.5841670815924633,35.148612634123715,41.659810925277675,0.42397026800402704,0.5760297319959733,25.650404563721988,29.898470271295555,1.5274502664271574,1.5526611674986555,1.767550418014216,1.6987457210406074,-0.26930809941020684,0.18831499754483794,-0.5443140450820017,0.0001777653415472576,0.11014824492848167,0.3403829156688923,1.700349290936312,-0.3052002932112653,-0.05655860722356931,1.0,2.505670833791362,-0.35377022985037426,0.0156819304190708,0.6018300294268839,0.7907591897670634,1.009622671666374,6.172921031612554,0.7135990837706315,1.4466490274233457,1.4147066189418007,1.743385316549388,1.5408396920071996,1.3846731222149256,2.083851088682117,0.6437159873806493,Relax
109.31786012755671,548.8620689655172,39.455956579185155,,,,,,,16.86836289231017,16.926959274245043,0.07188683425245772,0.030733336927624234,540.0,28.1694,0.052165555555555555,40.0,2.339050732491181,517.0,576.0,1.3793103448275863,17.93103448275862,490.0,665.0,7.25,70.3125,,,0.05213293468803273,0.008819476801886666,0.000344101702962161,0.061296513192881555,5.9111142144940425,0.8505040820835302,0.14388219398605015,-4.730792730236892,11.96916768768719,54.545565591702555,0.21943429420608912,2051.0359543462846,4.557172813930426,4.018943383512668,994.294274539863,0.3724137931034483,0.36428571428571427,0.47058823529411764,0.0,50.40276179516685,50.43102627743822,50.37618273471782,50.71428571428571,0.559135061258359,0.440864938741641,8.95013380374255,7.947379389511938,0.41239433530018343,0.5876056646998168,35.02803661019887,41.81214389329126,0.4191357246259424,0.5808642753740576,25.564313445409866,30.09498476585536,1.6383910020220795,1.096872504617492,1.8457103992670527,1.914245700629226,0.0929573090684297,-0.1760977787034106,-0.4375175318246552,0.00046083504070503693,0.07454952889547825,1.57079589918514,0.40705995733879696,1.3424133694377511,1.5459433481071496,1.5688526722576785,-0.4194841615347835,0.0,0.0007084796153656852,0.022810079878885663,0.7964074936889527,1.0527025873640319,6.220195190042023,0.7452361981222914,1.1673194325327352,1.3657331239741444,1.8036417144307606,1.5947183099367794,1.3743110513150079,1.937119480608511,0.5941993729667532,Relax
108.74579730804274,551.4055944055945,40.2499650533026,,,,,,,17.843213883438736,17.892976988526446,0.07299520618156106,0.03235950825394401,542.0,31.1346,0.05744391143911439,47.0,2.2557575847174482,518.8,577.6,2.097902097902098,20.27972027972028,496.0,665.0,7.944444444444445,62.5,,,0.06290705210741794,0.007952563962997369,0.0002781159140570617,0.07113773198447237,7.9102855884114005,0.8842993774548367,0.11179108106417025,-4.834260891242561,12.652245364201898,55.01043571140956,0.22999718509005973,2186.5658605731705,4.34787929951591,4.046732673029692,956.7149387479536,0.36363636363636365,0.35507246376811596,0.4897959183673469,0.0,52.71317829457364,52.51501469144662,52.91855112352818,49.275362318840585,0.597434195974342,0.40256580402565817,9.78673295047799,8.033617310539418,0.4525941100912304,0.5474058899087694,37.00833389768253,40.70050686756575,0.4598813777593081,0.540118622240692,27.06840334898172,29.33487912339989,1.5981160607645615,1.142088060914797,1.8422781628406255,1.9117466120033186,0.13676756784050959,-0.17491671997805192,-0.43917417444408813,0.0007608442692937251,0.09290739008790719,1.4894877730959892,1.8951299721543562,1.8116867779475336,2.4370527591731674,-2.1419143116279873,-3.248124073889416,-0.17001419933497924,0.005688397429465398,0.3896948308928655,0.6772291803588222,0.8455326348626345,6.200022518833067,0.7459852613424023,1.1894805785992157,1.2759042592575232,1.6169814160869294,1.6390100135269807,1.3894453048619397,2.316793783907181,0.6008283639254592,Relax
107.86453694713016,556.3098591549295,47.411161133007724,,,,,,,18.426584249181904,18.488428430118198,0.08522437694170713,0.03312287917595613,541.5,33.3585,0.06160387811634349,54.5,2.5729761138509795,518.4,584.8,2.112676056338028,21.12676056338028,496.0,701.0,8.875,93.75,,,0.03551968201752974,0.00384440555093594,0.00021456460921375197,0.039578652177679426,9.239317118580866,0.8974454677757127,0.0971333115053375,-5.5611362911144235,13.073293116418732,65.90895250467439,0.1983538293298099,2706.944058257172,5.041495812703795,4.13944939068935,1329.118832288037,0.352112676056338,0.34306569343065696,0.48936170212765956,0.0,51.433207138994064,51.497002945565406,51.36575556138929,49.63503649635037,0.586924281984334,0.4130757180156658,10.017662972398872,8.404080641484317,0.4450428063911702,0.5549571936088297,43.9688697779835,49.099170163151975,0.45041586249255855,0.5495841375074417,31.88741978415502,35.22326704139413,1.6859618381371715,1.3098826240648425,1.784163004546818,2.0334220801726,-0.5529835847982625,-0.7306426063121547,-0.3097088463909244,0.0006394970939650558,0.09399639384148498,1.1336005686265194,1.4409530775289296,-0.005448046239472593,0.7150284925249922,1.0,-1.7009862431529048,0.0,0.02051872340638816,0.6864498448248535,0.6330098107701638,0.7628440295486912,6.292362570477537,0.6882804495443126,1.5266046823216148,1.2914923684912867,1.5906788146776705,1.523567549408033,1.357215795640679,1.8697740350879608,0.5538536501024754,Relax
107.51821463547967,558.1560283687943,46.99852333363301,,,,,,,18.518137826774822,18.582737682427073,0.0842031993652129,0.03317734985483164,544.0,35.5824,0.06540882352941177,53.0,2.537972434014356,521.0,585.0,2.127659574468085,21.27659574468085,496.0,701.0,9.4,93.75,,,0.027844865575973234,0.004466122481973034,0.00028158026956214525,0.03259256832750842,6.234684715514562,0.8543317389465107,0.13702885998718875,-5.411234700509647,13.139979828254972,65.35726211525744,0.20104850483306103,2697.978112211672,4.97392408279953,4.138008532027013,1300.3282400836815,0.375886524822695,0.3676470588235294,0.54,0.02631578947368421,48.999459167117365,48.96159665663788,49.043301646682025,50.73529411764706,0.5661021891728634,0.4338978108271364,9.887496646171748,8.65630721937819,0.44503401717478275,0.5549659828252171,43.6003981436706,48.688571481569184,0.44973845581926053,0.5502615441807396,31.61295073395279,34.96790419507674,1.7345404612718123,1.1175896376718812,1.8229095406519171,1.9109012534009984,-0.1891495992291734,-0.18803752021558395,-0.4212665277280289,0.00027065024493580725,0.05449125649680525,1.424075428670383,4.911798126023838,1.7929959681150416,3.2282872543095786,-5.831821007601562,-4.6277051495123125,-0.20778699584780708,0.013967978671168136,1.607455241640786,0.6455446054485572,0.7859289140109114,6.290978724797769,0.6926719079417563,1.1722049196281172,1.1470796799933258,1.6152201521917682,1.5226178306389988,1.311787420258006,2.168286109593328,0.5569862757190548,Relax
107.40984541609362,558.6595744680851,46.99283072786346,,,,,,,18.35113854000034,18.408758081432854,0.08411711331110114,0.032848517019462085,545.0,38.547599999999996,0.07072954128440366,53.0,2.5607583216394048,521.0,589.0,2.127659574468085,21.27659574468085,496.0,701.0,10.846153846153847,117.1875,,,0.0477293149040313,0.005162909348636016,0.0003016755398884149,0.05319389979255573,9.244654841100564,0.8972704593978805,0.09705829745083935,-5.266255031124489,13.01695767260383,65.18471875444106,0.1996933931960392,2665.662493552652,5.00767693910784,4.132775271368755,1305.6960515553794,0.3617021276595745,0.3529411764705882,0.5416666666666666,0.02702702702702703,52.095808383233525,52.232575411123165,51.9600370835881,47.794117647058826,0.5946719833711582,0.40532801662884177,10.042535436114303,8.291019671562998,0.4599705367483286,0.5400294632516716,44.20901137128458,47.902096746063336,0.465140563628513,0.5348594363714869,32.056896328340805,34.375513667896335,1.7452748463653616,0.659462369692279,1.8972808412027025,1.7718726745858446,0.6012479448798818,0.3382039616756467,-0.6901672822899301,0.00019230939329832958,0.02643172460563677,1.7735219670822873,1.9891894656235687,1.7064543538843209,2.5649237239173543,-3.3690069527193796,-3.9883708140551883,-0.06843257775652781,0.0015460097848364598,0.1958366801740389,0.6605452912809628,0.8226052477968321,6.267963742543609,0.7001200087176922,1.3811625214906855,1.275999385476989,1.5867557117160058,1.5480927336522003,1.3201900754792595,1.7977693433579847,0.5569862757190548,Relax
107.14267657649796,560.1205673758865,45.06051093130293,,,,,,,17.1045106832755,17.146804316047533,0.08044787775319034,0.030537194453345223,548.0,37.065,0.0676368613138686,47.0,2.6344226833312647,523.0,583.0,1.4184397163120568,19.148936170212767,501.0,701.0,10.071428571428571,54.6875,,,0.05499803213933167,0.005195188585784072,0.00024269397954479867,0.060435914704660545,10.586339885683133,0.9100223337083119,0.08596194185480645,-5.260022353687695,12.12462160755597,62.371664540180795,0.19439310617957134,2375.775508104901,5.144215346177176,4.0827755108343275,1283.4130955768512,0.375886524822695,0.3676470588235294,0.58,0.058823529411764705,46.73975764570109,46.78699204373517,46.70279772346998,50.0,0.5193486169095926,0.48065138309040745,8.747455950818546,8.415256785303104,0.448406406632103,0.551593593367897,41.76603411694927,46.32302809245825,0.45099515820103353,0.5490048417989666,30.1738263356645,33.29143642453165,1.7372788224011646,1.0890130963097615,1.8594728451793006,1.8155189836944219,0.4063755988320965,0.615280590478168,-0.5403611872380792,0.0004377393659108365,0.06140030296679926,1.3836565489984254,1.5997088310243726,1.4862009037612873,1.84951436166463,-1.5730848888506124,-1.1768508023954398,-0.27288775878626925,0.0020351065821257973,0.14887887298320496,0.6773018746069304,0.8467122088331291,6.228887324073207,0.7021249598202131,1.2339247411405827,1.3598004532444554,1.63772729165051,1.5600027496505124,1.335456466928384,2.0555796687964043,0.5063511597445953,Relax
107.87265343139225,556.1267605633802,41.84806343840896,,,,,,,17.54972671586137,17.611393912522843,0.07524914534955138,0.03155706209512872,545.5,33.3585,0.06115215398716774,46.0,2.384542170710091,523.2,578.0,1.4084507042253522,19.718309859154928,501.0,701.0,9.466666666666667,54.6875,,,0.053112391552478266,0.00785039799457085,0.00040816082276436106,0.06137095036981348,6.765566738044306,0.8654321178412556,0.12791716516145438,-4.847191048527687,12.453136061692383,57.87076359114408,0.2151887289698399,2264.059409635923,4.6470835381910565,4.061857928652289,1075.7210913078081,0.3732394366197183,0.36496350364963503,0.56,0.05555555555555555,49.305941143809,49.331076884541744,49.2842455546402,48.175182481751825,0.5585004720565547,0.4414995279434452,9.307063369905062,8.274962235563374,0.4736683150286825,0.5263316849713175,39.82872281047168,41.98449854301822,0.47742308317957854,0.5225769168204215,28.92186533822478,30.25866089162489,1.6671875921178505,1.6233962858100393,1.8601872639983164,2.264282455296327,-0.6435716796917212,-1.1174130157576672,-0.2510803770895805,0.0019749478261176508,0.21131102391574838,0.9129492404602279,3.0696158549671173,-0.2357722224835439,0.13608923427529973,1.0,5.226938626171618,-0.3788573312334461,0.03645318767193542,1.6820041845671774,0.7117354863001495,0.9674830110588317,6.132820161801105,0.7297346491937908,1.0816599251068955,1.3679698375543332,1.6722846910152107,1.5533591031312821,1.3794201612350936,2.338621074922379,0.654554313757471,Relax
107.72412693927959,557.0985915492957,41.23334563588599,,,,,,,17.25055246314413,17.307941615294986,0.07401444961692637,0.030964990263519065,549.0,34.099799999999995,0.06211256830601092,43.75,2.3902623248722725,524.0,578.0,1.4084507042253522,18.30985915492958,501.0,701.0,10.142857142857142,117.1875,,,0.039361553422451595,0.0058741423135993094,0.0003640072224902047,0.04559970295854111,6.7008171271787385,0.8631975839456412,0.12881974952643951,-5.1371952187839565,12.23856288455593,57.03519461278925,0.2145791378050567,2192.922200030156,4.660285292545501,4.047993334116764,1063.2011144458086,0.39436619718309857,0.38235294117647056,0.5961538461538461,0.05405405405405406,51.49971703452179,51.60704842980772,51.39477331886108,46.32352941176471,0.5836650063156892,0.4163349936843109,9.352234263227462,7.8986888604556205,0.49151585273691567,0.5084841472630842,39.98634351021564,40.67069900065376,0.4955738661075073,0.5044261338924926,29.0376647910197,29.295861848698568,1.6950387871583759,0.7316998045082332,1.788981457762668,1.941038023231065,0.07965955967510752,-0.5931429850221797,-0.2921872268770218,0.00012286487693883202,0.030365536163062572,1.398467864959892,1.531299118810443,1.5242677441986174,2.10854117367352,-1.7640066279041893,-2.6528541265210017,-0.11844591804585985,0.0005227597244045668,0.13586456987946535,0.7674258752787408,1.014593432614934,6.169757573757698,0.7418958147738582,1.0313331798389234,1.4247316081746826,1.666748829929404,1.5578280944830154,1.3712045641294455,1.7897695919866943,0.6042039819299732,Relax
107.33499103811235,559.2411347517731,40.09754191062801,,,,,,,17.3824624262502,17.444805043954567,0.07169991515095873,0.031082231520693924,552.0,31.1346,0.056403260869565215,43.0,2.3067814517507332,528.0,578.0,1.4184397163120568,19.148936170212767,503.0,701.0,8.294117647058824,85.9375,,,0.0463527023053087,0.0051159473555601985,0.0004310295137852949,0.051899679174654184,9.06043379334834,0.8931211722777967,0.09857377611803488,-5.275392685474818,12.335339943057562,55.316804817067826,0.22299444054750486,2143.67074853688,4.4844167305012625,4.038128191787432,992.2544199981273,0.3900709219858156,0.3868613138686131,0.6037735849056604,0.05263157894736842,49.80259447264524,49.77552568902453,49.829646064817354,48.175182481751825,0.5704593272026667,0.4295406727973334,9.316767587172135,8.084535375036454,0.4787379233385281,0.5212620766614718,38.27418947013127,39.937893229038394,0.48308288569983027,0.5169171143001696,27.854225333590673,28.813148281681112,1.7005963614471236,0.46434507065274033,1.7758488871777725,1.8590446344539995,0.41534570149530836,-0.39348961125966575,-0.32083206534468667,4.6220334259358454e-05,0.012076098859057067,1.5938857692193389,2.7380047247495956,1.6320223492153554,2.910035798211232,-5.098584107195549,-6.098584107195549,-0.0332318321281358,0.006574235865553068,0.6178711816695959,0.76583625318501,1.0453677741492973,6.146549448367981,0.7631182321964805,1.3399148189367023,1.3572385338346449,1.7411483192227337,1.5721934942562203,1.3730800761761166,1.857962067307613,0.658256507667974,Relax
106.82418224578542,561.7092198581561,40.64032814249767,,,,,,,18.894065583820606,18.961127541808576,0.07235118581952464,0.03363673750733836,554.0,29.651999999999997,0.05352346570397112,41.0,2.150957291971023,530.0,582.0,2.127659574468085,21.98581560283688,503.0,701.0,7.833333333333333,85.9375,,,0.055888120225375454,0.005978236508747024,0.0004917222025946919,0.062358078936717166,9.348596386844692,0.8962450604370347,0.09586947851318378,-5.119629652713461,13.407541863755855,56.07911200883888,0.23908263493264004,2362.110240919841,4.182654253755165,4.080270272462795,938.238145562329,0.3971631205673759,0.39855072463768115,0.6363636363636364,0.07894736842105263,50.620475698035165,50.62742134079705,50.61173621860514,49.275362318840585,0.5903997759013967,0.4096002240986033,10.302440864658442,8.581182357197754,0.4766550603039135,0.5233449396960865,38.71713672219771,40.56907846789901,0.4828056985741059,0.5171943014258942,28.329816128375548,29.321381433878837,1.6446196650903644,1.5267452140709183,1.815173836230448,2.0392856271782773,-0.3521294513277322,-0.4441007317419219,-0.35320943607201033,0.0012103096632164383,0.1487553931920067,1.1043441943270305,2.6289179741299584,2.046550800408502,0.8069676110327019,0.7809739067042996,4.120893909725967,-0.9715183971405729,0.0016525514712980493,0.4281175633096295,0.7543134440928272,1.1073459686368643,6.213534153602423,0.7855219247530022,1.3329873151192262,1.3349727391366022,1.8088389767120414,1.6022458250916947,1.3998726509107113,2.0385029015890335,0.7088916236424334,Relax
107.29181914804238,559.2957746478874,41.6928636056196,,,,,,,18.82939455454636,18.896135348381602,0.07454528622510681,0.033666255688058214,551.0,31.875899999999998,0.05785099818511796,44.5,2.214243452429693,526.0,580.4000000000001,2.112676056338028,21.830985915492956,498.0,701.0,8.352941176470589,93.75,,,0.05398050217800711,0.006688558402529583,0.0005787768857667678,0.06124783746630346,8.070573497211585,0.8813454386484323,0.10920480916913038,-5.007356913483906,13.361585443059454,57.57060816086762,0.2320903994226294,2416.621768091036,4.3086659443376245,4.090178793102179,992.2100751101442,0.3873239436619718,0.38848920863309355,0.6481481481481481,0.08333333333333333,49.56387891226268,49.5280090894112,49.60141350215482,51.07913669064749,0.5914264567622172,0.40857354323778267,10.275838512883372,8.540868139213282,0.46680338550502387,0.5331966144949762,39.3339730431828,42.03823841040828,0.4731734572530851,0.526826542746915,28.74677627582516,30.332819826235696,1.6886790513199452,0.5548048545230593,1.8743781581699481,1.7362399627164127,0.5222890673508189,0.03723087946512038,-0.7489851960150684,0.00026915149037008305,0.02068240591188473,1.2979404993520067,1.6842889890954473,1.2163195546604388,0.8837276565936227,1.0,2.6958668760189886,-0.6974672400164746,0.012995377333315718,0.46261116282140685,0.7649675168550831,1.1008620084021252,6.240180108968965,0.7692445633005197,1.5159201701132874,1.4071604722644593,1.6859271486637166,1.6319714619851973,1.3815640638071671,2.041951574151914,0.6042039819299732,Relax
107.21714665221809,559.6879432624113,42.0340227420892,,,,,,,18.89879058866693,18.965803325623416,0.07510260538591132,0.03376665660958535,552.0,35.5824,0.06446086956521739,46.0,2.224164691644121,524.0,581.0,2.127659574468085,21.27659574468085,498.0,701.0,8.294117647058824,93.75,,,0.04345377789422649,0.006228616310590967,0.0005447461449162973,0.05022714034973376,6.976473702568399,0.8651453694487871,0.12400897736205647,-5.078601071879598,13.41084814219869,58.10382028008831,0.23080837159333006,2447.9965721452645,4.332598480274959,4.095780915306459,1006.9620937747198,0.3829787234042553,0.3840579710144928,0.660377358490566,0.11764705882352941,50.64466219700875,50.6562743373089,50.63121281788672,50.72463768115942,0.5978041317520948,0.4021958682479052,10.369434886054066,8.505393971986544,0.4686583578522051,0.531341642147795,39.77707746163523,42.35372521693779,0.4751908572796236,0.5248091427203763,29.06665676720531,30.546519984857333,1.6795582967918823,0.996572132121277,1.8859566674788282,1.959280237588501,-0.05173565177176265,-0.5875723552203507,-0.42642422184373324,0.00021490375649066464,0.056304530518213276,1.3487368217509905,5.796477549934387,1.5946423680173494,3.9498378220808394,-7.399598264345187,-6.844851949790142,-0.09368505548854415,0.04998934736228273,3.4210540503388507,0.7991955333922118,1.145826026148375,6.2200567389821675,0.7743896736524662,1.3001426733225019,1.4534094506287034,1.7308478676548449,1.6239398190063947,1.367383289548041,2.0093604332477106,0.658256507667974,Relax
107.05005614946633,560.581560283688,41.69312311030421,,,,,,,18.861525464742847,18.929164217288,0.07437476732057505,0.03364635371737483,554.0,32.6172,0.05887581227436822,44.0,2.210485211720527,526.0,581.0,2.127659574468085,21.27659574468085,498.0,701.0,7.833333333333333,93.75,,,0.046148954622487,0.006927332969668525,0.0005244622434174672,0.053600749835572996,6.661864649000009,0.8609759147783321,0.12923947875578207,-4.972280392716878,13.384940380238092,57.60014648976462,0.2323768461702881,2422.0879090551484,4.303354729529249,4.091160011660944,991.4954512732246,0.3900709219858156,0.391304347826087,0.6481481481481481,0.11428571428571428,50.207468879668035,50.20827403995928,50.20694004134519,51.449275362318836,0.5967955667991808,0.40320443320081917,10.34025450892542,8.499259383731175,0.46818288827779647,0.5318171117222036,39.41226154763915,42.005362935497025,0.4747720940928565,0.5252279059071434,28.811865816091014,30.304190513976526,1.6428724158669332,1.6557146752693428,1.9558166720823569,2.1963346234778696,-0.270320502390776,-0.7074046889599934,-0.3547346623255687,0.001410725720411805,0.2156222230409746,0.9893305780337359,3.1680570081725876,1.8207329417644944,1.7917256268434076,-0.43681926369905355,0.21908779799836653,-0.5091561846413297,0.005906125179168035,0.8503376972216581,0.7701253230082514,1.050159905282163,6.208640849092545,0.7612665546569534,1.1464629774830901,1.3310747909002643,1.6685889248431247,1.6108935964655484,1.3659551179170166,2.0047228624470153,0.7088916236424334,Relax
107.30272127100264,559.2411347517731,41.451503627599024,,,,,,,18.43753934620499,18.50280387629633,0.07412098476267817,0.03296885404252094,554.0,32.6172,0.05887581227436822,42.0,2.2482123481478027,526.0,578.0,2.127659574468085,18.439716312056735,498.0,701.0,8.294117647058824,93.75,,,0.05410375469102883,0.008145853950422137,0.0005478035828554674,0.06279741222430643,6.6418763484244705,0.8615602582121589,0.1297163953400805,-4.810246198909751,13.083458091893872,57.31823139774344,0.22825997545362076,2355.945294017199,4.380969541474371,4.079135311704063,1004.4377036987757,0.41134751773049644,0.41304347826086957,0.6666666666666666,0.10526315789473684,50.699677072120565,50.71775837989706,50.67994845264994,51.449275362318836,0.6098083711548158,0.3901916288451841,10.217420587077612,8.173038673044386,0.461817999713345,0.538182000286655,38.951860783831336,42.049163987435996,0.469147540644913,0.5308524593550872,28.474928814451975,30.28969092936872,1.6539643640417654,0.4812726263562497,1.6046731810853334,1.7886268409615702,0.8835688075542052,0.09551648007084523,-0.11777659936954354,0.0005028931020210431,0.030921675830106632,1.2392107773377423,2.5246631455757185,1.3231044329155996,0.6225503403265213,-0.5338669417692294,3.6288862103428627,-0.7774841839065725,0.004736624942675931,0.3322460438219217,0.7437901247573091,0.968397648669581,6.276794327634648,0.7353500894042048,1.2476317478134795,1.292449437034681,1.6925376607604063,1.5764176160068823,1.3641372687891122,1.9513824175878043,0.7088916236424334,Relax
107.12548709560987,560.3617021276596,40.7022773311176,,,,,,,18.06535753471663,18.122876244432543,0.07263572292070195,0.03223874412923573,554.0,29.651999999999997,0.05352346570397112,39.0,2.2530568383658647,531.0,578.0,2.127659574468085,17.73049645390071,498.0,701.0,8.294117647058824,39.0625,,,0.053730000800954754,0.008634309317172443,0.0007215734657380658,0.06308588358386526,6.222848733724797,0.8516960966319358,0.13686594887260548,-4.752011557013102,12.814808687042843,56.1086424122005,0.2283927775849436,2258.8727193565323,4.3784221662967475,4.060861870391479,982.6692946335859,0.41134751773049644,0.41304347826086957,0.6666666666666666,0.10526315789473684,48.03278688524591,47.91226425757648,48.15620951568235,52.17391304347826,0.5808492011381045,0.4191507988618952,9.770569521628635,8.299908987972886,0.462302658149396,0.537697341850604,38.149860659002115,41.14326050568802,0.46818438887465946,0.5318156111253405,27.846686491199055,29.6787497567497,1.663547315133748,1.8085654963181739,1.9296723228575257,2.380591784233536,-0.9181119903928749,-1.521614087596392,-0.25067562535391774,0.0017514014797468313,0.25562224030509373,1.927143992062358,3.416003227438914,3.88541053234829,2.1774089186288332,6.162487825558678,1.5361177611879562,-1.0,0.0058374365763074485,0.4815840014590025,0.725737401483864,0.9409833444645264,6.232364097092166,0.7346896900681668,1.1837662081812386,1.2643248688956081,1.6368930787462699,1.5703298853972791,1.400741811498436,2.1886157225295437,0.7088916236424334,Relax
107.72598304522762,556.887323943662,37.4154552568683,,,,,,,16.756283885318666,16.814380876360545,0.06718676049565364,0.03008918171571424,553.0,28.1694,0.050939240506329114,38.0,2.2329208261773696,528.4,575.6,1.4084507042253522,16.901408450704224,498.0,701.0,8.352941176470589,109.375,,,0.052581016799698344,0.012095152949895927,0.001167187038351035,0.0658433567879453,4.3472800234535915,0.7985774019547702,0.18369587366041348,-4.414950489287335,11.889562739127943,51.46288242488176,0.2310318073707326,1922.2499705010882,4.328408332084413,3.9907799728730375,891.0094763237549,0.39436619718309857,0.4,0.6428571428571429,0.10810810810810811,50.924369747899156,50.86460002055683,50.983484782281266,49.28571428571429,0.5818535451766904,0.4181464548233094,9.07016301633312,7.6890460117903165,0.48973626675011717,0.5102637332498826,36.01432176884311,36.76135056016627,0.49440481440613776,0.5055951855938622,26.261180758037362,26.556715945113258,1.662446540904137,1.9086910091690283,1.8813017173645363,2.355601679992328,-1.1514071845904574,-1.4927410875987919,-0.2515051098636003,0.0018805886240806056,0.2595075307478664,1.753274354120552,2.026290806626327,2.157007508941903,2.714193442501849,-3.1605049202192745,-4.1605049202192745,-0.2250217334363607,0.005992792091597156,0.3960263521239415,0.7604961646025066,1.0422593521169778,6.197926587842205,0.7891541823240323,1.0441198860689962,1.2260283321612453,1.5563641946513578,1.5770185598937345,1.4097240217304525,2.216917340245169,0.654554313757471,Relax
105.07684343042872,571.0289855072464,45.6402853853718,,,,,,,21.337571811312543,21.415212206947967,0.07992638997971255,0.037366880408633424,562.5,41.5128,0.07380053333333333,56.0,2.138963411065109,530.4,601.6,3.6231884057971016,26.811594202898554,507.0,718.0,9.857142857142858,23.4375,,,0.048261150130793656,0.014632944528403764,0.00027480022578379385,0.06316889488498122,3.29811611307039,0.764001811630047,0.23164794247307363,-4.22447981773506,15.142841772081834,62.95625692121689,0.24052957581375115,2994.9953755758215,4.1574928846768024,4.183366266115017,1046.9607607833757,0.30434782608695654,0.3037037037037037,0.4146341463414634,0.0,49.477984566500226,49.46802463236927,49.49111466692136,54.074074074074076,0.5756472945891782,0.42435270541082176,11.489445284311007,9.86470982847443,0.4249474399508341,0.575052560049166,41.03992020101999,47.74112729528055,0.43318975652673336,0.5668102434732668,30.13538122412976,34.47120345610363,1.608040209052491,0.7431432169292167,0.9662095505038173,1.3377811589684256,1.0,-1.2734710677224594,0.0,0.0017934787296628133,0.08872107829687814,0.8864082527364741,1.9255422681326664,1.4508029367045236,1.5549956304596693,-0.21347576029200965,-0.6251082476057339,-0.4458891682205508,0.0031818864309143564,0.33885282277488554,0.6703124453882614,0.9038682118755976,6.322990920590428,0.7941549346945118,1.124328222998552,1.1563678100916834,1.808665370814404,1.5557214318714958,1.429831884710986,2.4085827037979075,0.7211546550354664,Stress
105.54086302914995,568.5035971223022,46.4137620303238,,,,,,,21.254326072863243,21.32800491149389,0.08164198479176696,0.03738644079026082,557.0,40.0302,0.07186750448833035,55.5,2.1837324726839125,530.0,601.4,3.597122302158273,25.899280575539567,507.0,718.0,8.6875,23.4375,,,0.06562225373405633,0.016124965342621648,0.00032264940707644644,0.08206986848375443,4.069605877576867,0.7995900925203278,0.19647850837988798,-4.1273865655973925,15.081176902097319,64.02796967141242,0.2355404517665168,3033.5757047116963,4.245555243272038,4.188924947457877,1087.3371294181122,0.302158273381295,0.30147058823529416,0.3902439024390244,0.0,48.75283446712018,48.687084509648045,48.822829873030386,55.88235294117647,0.5742769605877351,0.42572303941226486,11.43068606609445,9.841814561787533,0.4158237892791941,0.5841762107208058,41.288052320202546,48.9374870201518,0.4241553607561613,0.5758446392438387,30.2932653269451,35.2968762762099,1.567064290813741,1.2941214714832343,1.7805496104442489,1.842682807318869,-0.09600193749485975,-0.14903888762968798,-0.45198812611971634,0.00021424587666246813,0.08807162187596924,1.7159956286160918,3.2367630461814287,-1.1331471964583835,0.4852343266323309,1.775240442213907,-0.6215070987144462,0.0,0.015735299622049476,1.2363237166738748,0.654912228834196,0.8778468597588673,6.2345313388609975,0.7762856371016692,1.3608266518539303,1.0836868096197623,1.630467886027708,1.5196085668491561,1.4554221895161732,2.3251413916487604,0.6658002442115512,Stress
106.37697822315681,563.9428571428572,40.25883368429509,,,,,,,20.608722048211327,20.67258702840255,0.07138814362905706,0.036543989851423465,555.5,37.8063,0.06805814581458146,52.25,1.9534852083557135,529.8,590.0,3.571428571428571,23.57142857142857,507.0,687.0,8.75,23.4375,,,0.0761165763029137,0.017993755111502027,0.00032757836535395534,0.09443790977976968,4.230166289984585,0.8059959869973663,0.19053529619052006,-4.017730519532858,14.6177264724525,54.493678005345785,0.2682462811744605,2502.510019748829,3.7279174780045716,4.1053459349794466,812.5917387075275,0.3142857142857143,0.31386861313868614,0.3953488372093023,0.0,47.85046728971962,48.0011721200448,47.694702230007216,55.47445255474452,0.5668066942204757,0.4331933057795245,11.010864200178958,9.625976329175918,0.37216380499649904,0.627836195003501,33.24399343563454,43.17867347431826,0.3852419773438513,0.6147580226561487,24.76289795221164,31.281442288453153,1.585488780149415,0.28626219797669483,1.4985738529696921,1.5636595318932718,1.0,0.3803254735547732,-0.2726361378358508,0.0006500083581974094,0.0209950304829542,1.2865987802911316,2.092910427378266,-0.6711103092576415,0.37534490443149143,1.2704026756589855,-0.6471454965434127,0.0,0.012389491184481067,0.6244838902299528,0.6834795858147262,0.9616242731756763,6.2083333526100475,0.8253784768906196,1.2980692414007513,0.9693688416494132,1.6057320638751205,1.603271755346955,1.4680189688617629,2.096645305770886,0.6620048515734611,Stress
106.67175731067046,562.5071428571429,38.24034112844357,,,,,,,20.008091888213485,20.08029705168922,0.06798196540973574,0.035569489458545135,557.0,35.5824,0.06388222621184919,47.5,1.9112437778722153,529.8,585.2,3.571428571428571,20.0,507.0,687.0,9.333333333333334,23.4375,,,0.05917317749395081,0.013052718800724901,0.00036759184842799335,0.07259348814310371,4.533398627316214,0.8151306543818723,0.17980564282837666,-4.3387588296923205,14.198914213489683,52.36115241814835,0.2711726835211585,2335.684638068292,3.6876870745794506,4.075384314330051,772.3661799299609,0.32857142857142857,0.3284671532846716,0.4222222222222222,0.0,49.72999509081983,49.721284296300276,49.74045103388501,54.01459854014598,0.590475334711115,0.40952466528888487,10.91087079243794,9.086540452301103,0.3980032882075213,0.6019967117924788,33.03334296894761,40.626205026465904,0.41118736774768194,0.5888126322523182,24.599276911663438,29.436828567661188,1.5699117907852016,0.5715098502981268,1.7477825852024544,1.5351943967825767,1.0204923062733577,0.7570972524372355,-0.8719764205446005,0.0005838453810850501,0.036970295678796415,1.1891968351202038,5.954231209609195,2.140740895465523,2.183742867355059,-4.191181996646268,-0.186563083340328,-0.49277791365909046,0.0022752434578727724,1.662274428603291,0.7286348792848223,1.073843220555701,6.20951047429848,0.8225641491462398,1.3164741728979723,1.0980925626988747,1.5453982016482781,1.6276768885994248,1.4518558728504254,2.482043158977697,0.7129283016944966,Stress
107.09485711049095,560.2836879432624,38.72177797001408,,,,,,,20.041385751917026,20.11272957752333,0.06911102144015172,0.0357700682407633,554.0,35.5824,0.06422815884476535,48.0,1.9320908468772031,527.0,584.0,3.546099290780142,19.858156028368796,507.0,687.0,8.294117647058824,23.4375,,,0.06558484659165231,0.013890167849613652,0.00033840012386391634,0.07981341456512989,4.721674158421097,0.8217271112756781,0.17403299840378214,-4.276574038083451,14.22184747243799,52.98157972672348,0.2684300382471345,2367.17732759079,3.7253654864040726,4.081200902537921,789.5029941164055,0.3262411347517731,0.32608695652173914,0.4222222222222222,0.0,49.45972495088409,49.41283819311139,49.506996644861864,55.072463768115945,0.5842758571631811,0.41572414283681897,10.87122133145168,9.170056055311436,0.3899883570113767,0.6100116429886234,33.08649204443987,41.38033149374681,0.40304751133810174,0.5969524886618982,24.62619955498811,29.970166520974885,1.5372769475194674,0.9145199620120623,1.6701696250793865,1.6801400628161853,0.060065571110838434,-0.15202266062395875,-0.48909762700547005,4.068086266904763e-05,0.034968878696199905,0.9360453935755079,2.617932236686696,2.8492466408120904,1.826698849461932,-0.04110511301306907,-0.19949321624401062,-0.8905936819221547,0.008709330912279272,0.7488438007408837,0.6947554104605715,0.985816794522765,6.174918242694223,0.8187929690213807,1.299569065689048,1.2129481368260895,1.6464960677407812,1.6020710227947188,1.4441523276864159,2.175344269528437,0.658256507667974,Stress
107.66436316777025,557.443661971831,39.875964542528415,,,,,,,19.928773880216372,19.99844218857071,0.07153362261125402,0.035750292342947874,548.0,32.6172,0.059520437956204375,49.75,2.000924130215254,522.0,583.8,3.5211267605633805,19.718309859154928,506.0,687.0,7.473684210526316,93.75,,,0.06150917442068016,0.011535656392887674,0.00028667490808555727,0.07333150572165338,5.332091415153777,0.8387823734883121,0.15730832579210788,-4.462312484520482,14.141034084705488,54.7339216420506,0.2583595996863728,2431.574654526866,3.870574196638784,4.092857717837342,847.4068191542806,0.323943661971831,0.32857142857142857,0.45652173913043476,0.0,49.18679152291769,49.13433921342386,49.24133907340889,54.285714285714285,0.5814032393435595,0.41859676065644025,10.783254213296253,9.149746288441944,0.40790839934648915,0.592091600653511,34.95730068693056,42.116378132522975,0.4187658883948234,0.5812341116051766,25.86785111625091,30.47545868518238,1.6003832779107219,0.5085443606632039,1.7032055199423928,1.6417637046073712,0.7489982356083029,0.2835406580298816,-0.6208189886421982,4.097679360147111e-05,0.014420745792055866,1.4342910658028285,0.6542133406389263,1.4826861212033369,1.4145604701900543,0.7625953200828359,0.7970019179333772,-0.6041336927595344,0.00039265313217914125,0.023513180330074518,0.7075587334253912,0.956564631012095,6.07923114437549,0.793125292653603,1.2375840166828471,1.2113170198014094,1.6987716270762145,1.5603765606849496,1.4457310750491768,2.26436898898833,0.654554313757471,Stress
107.90436492070724,556.0,39.59565131219436,,,,,,,19.24330960461342,19.311880631776067,0.07121520020178843,0.034610269073045714,547.0,34.099799999999995,0.06233967093235831,47.75,2.057632087502331,522.0,580.8,3.5211267605633805,18.30985915492958,506.0,687.0,7.473684210526316,101.5625,,,0.055932242325839196,0.009029066628769502,0.0002983842694921575,0.06525969322410086,6.194687072927464,0.8570717936685462,0.1383559465681798,-4.707306280265538,13.655561752194004,54.4501045035342,0.25079036811229005,2335.9210528324825,3.987393963839374,4.075428270791453,868.4560721112616,0.3380281690140845,0.34285714285714286,0.5208333333333334,0.0,50.128534704370175,50.1196919871652,50.13725613866572,52.142857142857146,0.5747419225097196,0.4252580774902803,10.352535921212732,8.905054744357274,0.42068297084735856,0.5793170291526414,35.31638021138948,41.443541948177796,0.4297992861396509,0.570200713860349,26.02327526691656,29.973881707332907,1.606383143012957,0.9833650601909172,1.6718941908098817,1.7612038491911721,-0.461271407617188,-0.6121070034262646,-0.40917954888090974,0.000311239113910985,0.03728701143155939,1.7037970232293356,2.3224633988164056,-0.4325591451100404,0.7211733447723777,1.3572160419024897,-0.5699939372057381,-0.0032289893264223057,0.012218560436279976,0.7595281018465081,0.7209880487307916,0.9421441107004888,6.070462746503402,0.7799525141406985,1.3003790735767116,1.259816451698857,1.7402271336725992,1.5296411251586912,1.4321257362576116,2.363032094004552,0.7552549774124664,Stress
107.7539302238615,556.9647887323944,39.658902387831304,,,,,,,18.497268343466633,18.54928810383482,0.07120540326811624,0.03321083974727537,550.5,36.323699999999995,0.06598310626702997,49.75,2.144041036299239,522.0,582.8,2.8169014084507045,16.901408450704224,506.0,687.0,7.888888888888889,101.5625,,,0.04382296452248205,0.007536035947619403,0.00031393890437670074,0.05167293937447815,5.815121481251096,0.8480834466352558,0.1458410541154842,-4.888058971600104,13.116327404404554,54.37611380731636,0.24121487333358752,2240.6307269517774,4.145681342862521,4.057340397348347,901.7041620334422,0.323943661971831,0.32857142857142857,0.5,0.0,47.309536494405975,47.29555531920854,47.33170859235109,54.285714285714285,0.5343780444831374,0.4656219555168624,9.595385795861914,8.95684096096386,0.41692040316807927,0.5830795968319206,35.110316176924236,41.52140954667402,0.4233880144856251,0.5766119855143746,25.737188372227223,30.035416184419958,1.5405622409956314,0.369559649875544,1.2870221495700407,1.3806560987409107,1.0,0.8613135081827084,-0.2466337323287247,0.0008073439888820916,0.03085544168740296,0.40998654196995554,3.1775967533456724,-0.9922170030021182,0.04049803197662305,1.358504156318836,4.889357691321489,-0.17500123044517782,0.03972185422151224,2.038632000027338,0.7007134116102502,0.9103559963543405,6.031661514078565,0.7648696072774689,1.3797671917941634,1.2049889732435186,1.8513822684838064,1.5587876900598057,1.4248912101016824,2.29506429707234,0.6042039819299732,Stress
108.20192893540836,554.3169014084507,39.991376680108836,,,,,,,19.304025229752522,19.349703965858566,0.0721453316297874,0.03482489020396705,544.5,33.3585,0.061264462809917354,45.25,2.071659988222131,522.0,577.0,4.225352112676056,16.901408450704224,506.0,693.0,7.1,93.75,,,0.046939177057423793,0.009912478191604087,0.00036399085289016167,0.057215646101918045,4.735362454283277,0.8203905794196781,0.17324768427760165,-4.613960892113973,13.682306888210825,53.81149459320573,0.2542636474166685,2313.0459187573647,3.9329255682440274,4.071154364463924,846.5464118041762,0.30985915492957744,0.3142857142857143,0.45454545454545453,0.0,53.49815886375593,53.187046977280495,53.83002859775991,50.71428571428571,0.6361836971623239,0.3638163028376758,10.926213564503616,8.26265263528781,0.45397262139960903,0.5460273786003907,36.25683460920035,39.76328576055683,0.4650621101453505,0.5349378898546495,26.776297342388947,28.717506185662522,1.5730875131828357,1.3749429353835732,1.706430231471892,1.79320473825056,-0.6167877747149184,-0.44846736896169936,-0.43688864857910614,0.00023843198567072822,0.07575957616298551,1.273223748535171,2.141692519596565,-0.8624933093796417,0.20835295041864071,1.1381555426377297,-2.956967061101464,0.0,0.012487458431404821,0.6223043085985894,0.7000743091890103,0.8987010388471686,5.946859795909789,0.7355998028718214,1.2104513015078857,1.1310600012348397,1.6893799399531075,1.548826177223662,1.438429064512333,2.16199947689443,0.654554313757471,Stress
107.08235651639707,560.3120567375887,44.58957833904579,,,,,,,18.937113975320678,19.002250096656145,0.07957990159745652,0.03379744152853292,549.0,34.099799999999995,0.06211256830601092,50.0,2.3546131895892923,522.0,585.0,3.546099290780142,17.02127659574468,506.0,707.0,7.421052631578948,93.75,,,0.05218215394008004,0.011027980730216705,0.00042188990764234924,0.06363202457793908,4.731795894156829,0.820061192240791,0.17330865713237187,-4.507319533172793,13.436619901148287,61.63946244012436,0.21798729854596666,2601.9488041940467,4.587423242869041,4.122268857116352,1131.0652107031187,0.3120567375886525,0.31654676258992803,0.4772727272727273,0.0,48.78048780487805,48.80951159785874,48.7598133787438,51.798561151079134,0.5604509421184719,0.43954905788152804,10.060607702228006,8.909618115499045,0.42021141504357773,0.5797885849564225,39.95699004942706,46.934659646123876,0.4265749137559224,0.5734250862440778,29.135690150982718,33.780494157586844,1.6036853424859279,0.5202116248972573,1.6566499094604616,1.6595361768272117,0.49748500999153045,0.024097711542912847,-0.49445174381229934,3.148861611569251e-05,0.010944081566080817,1.7894809275274917,0.640906293879631,1.6506371297706859,1.592951427842436,0.17018522501053202,0.3215284590225984,-0.5900064525487152,0.004950568173926776,0.10094207377568155,0.6594335662525861,0.7789958632901973,6.076038962482472,0.6923245063309788,1.4012922403677897,1.198145744605926,1.7190381350117363,1.497555656627559,1.4356523139866215,2.3332440090512327,0.5569862757190548,Stress
