PPG_Rate_Mean,HRV_MeanNN,HRV_SDNN,HRV_SDANN1,HRV_SDNNI1,HRV_SDANN2,HRV_SDNNI2,HRV_SDANN5,HRV_SDNNI5,HRV_RMSSD,HRV_SDSD,HRV_CVNN,HRV_CVSD,HRV_MedianNN,HRV_MadNN,HRV_MCVNN,HRV_IQRNN,HRV_SDRMSSD,HRV_Prc20NN,HRV_Prc80NN,HRV_pNN50,HRV_pNN20,HRV_MinNN,HRV_MaxNN,HRV_HTI,HRV_TINN,HRV_ULF,HRV_VLF,HRV_LF,HRV_HF,HRV_VHF,HRV_TP,HRV_LFHF,HRV_LFn,HRV_HFn,HRV_LnHF,HRV_SD1,HRV_SD2,HRV_SD1SD2,HRV_S,HRV_CSI,HRV_CVI,HRV_CSI_Modified,HRV_PIP,HRV_IALS,HRV_PSS,HRV_PAS,HRV_GI,HRV_SI,HRV_AI,HRV_PI,HRV_C1d,HRV_C1a,HRV_SD1d,HRV_SD1a,HRV_C2d,HRV_C2a,HRV_SD2d,HRV_SD2a,HRV_Cd,HRV_Ca,HRV_SDNNd,HRV_SDNNa,HRV_DFA_alpha1,HRV_MFDFA_alpha1_Width,HRV_MFDFA_alpha1_Peak,HRV_MFDFA_alpha1_Mean,HRV_MFDFA_alpha1_Max,HRV_MFDFA_alpha1_Delta,HRV_MFDFA_alpha1_Asymmetry,HRV_MFDFA_alpha1_Fluctuation,HRV_MFDFA_alpha1_Increment,HRV_DFA_alpha2,HRV_MFDFA_alpha2_Width,HRV_MFDFA_alpha2_Peak,HRV_MFDFA_alpha2_Mean,HRV_MFDFA_alpha2_Max,HRV_MFDFA_alpha2_Delta,HRV_MFDFA_alpha2_Asymmetry,HRV_MFDFA_alpha2_Fluctuation,HRV_MFDFA_alpha2_Increment,HRV_ApEn,HRV_SampEn,HRV_ShanEn,HRV_FuzzyEn,HRV_MSEn,HRV_CMSEn,HRV_RCMSEn,HRV_CD,HRV_HFD,HRV_KFD,HRV_LZC,Labels
101.98767121749619,588.3185185185185,17.87128600466333,,,,,,,12.590863780784408,12.637929401877015,0.030376888440748262,0.02140144051982291,586.0,16.3086,0.027830375426621156,22.0,1.4193852237475284,575.0,603.2,0.0,11.11111111111111,544.0,630.0,6.136363636363637,78.125,,,0.02577805907176254,0.02477460184057105,0.008148691187878416,0.058701352100212004,1.040503465510724,0.43913910241378307,0.4220448244237559,-3.6979362699115303,8.936365580224084,23.656123790583724,0.377761194493799,664.1319656708093,2.647175026381422,3.5292244939505886,250.48760047768263,0.4962962962962963,0.4961832061068702,0.7384615384615385,0.10810810810810811,49.66241560390098,49.6551929758491,49.66965212357437,46.56488549618321,0.4223508920585604,0.5776491079414394,5.807695180385303,6.7920231851318364,0.5511663442454945,0.44883365575450557,17.56244306747376,15.848431666797952,0.5350791651042123,0.46492083489578795,13.079922205550917,12.192300136654538,1.3191682331234766,0.5575398768016377,1.3191682331234766,1.5248746395247936,-0.21399533631974954,-0.9587019480855083,-0.1310462893141122,0.00023764710718048108,0.020463310009242175,1.897815249138104,1.6689417310021235,0.22887351813598045,1.0633443836370422,0.9512673747310745,-3.784976028513803,0.0,0.001580486846181974,0.2078627805304632,0.8049437045765027,1.774367726516186,5.735092012257435,1.132483102666896,1.3834257861868278,1.4465560179554233,1.9908025438710852,1.8639636267581268,1.7486594536742872,2.9276763887043282,0.7338919878423084,Relax
101.53858502731623,590.9701492537314,18.18862748814126,,,,,,,12.89430718940482,12.937332522418423,0.030777573979175764,0.021818880709436113,588.5,17.049899999999997,0.028971792693288017,25.5,1.4105936225163578,576.6,607.0,0.0,11.940298507462686,544.0,630.0,6.090909090909091,78.125,,,0.03771106938380502,0.03259667241826745,0.007104681888444364,0.07741242369051683,1.156899357698592,0.48714492565906703,0.4210780500631787,-3.423545068878565,9.148075557067328,23.903109082968854,0.38271488137019805,686.9640480269715,2.6129112001597488,3.543904118997961,249.82680576611816,0.48507462686567165,0.48854961832061067,0.71875,0.08333333333333333,51.870873074101254,51.840325686604785,51.90133042552867,44.274809160305345,0.44955456066567195,0.5504454393343282,6.1363916946608805,6.790144372990945,0.567575403209844,0.43242459679015594,18.008028801038822,15.718445296315542,0.5524856686602854,0.4475143313397147,13.452590908991226,12.107344530063658,1.238547842759477,0.5777376322646797,1.2913331567069761,1.3588691385472482,0.4224836667730951,-0.08973029507989683,-0.38310267832902434,8.638718070884449e-05,0.016471333921348974,0.7517529347349805,7.407381933072985,0.7263494804230644,4.2116295283676655,-9.739656325336988,-10.252027579529372,-0.029485575411835486,0.02397078947389805,4.0443044024213,0.8168545956099504,1.8658674413817768,5.702340500744747,1.1550666680660937,1.6050178324914819,1.4514839931216375,1.8379164804178365,1.8540776877144205,1.720992859219125,2.942643546936194,0.8437121421442116,Relax
101.41574033766925,591.6842105263158,18.196889686382484,,,,,,,13.280197150781925,13.330788561226306,0.030754394595380465,0.02244473811286751,590.0,17.7912,0.03015457627118644,25.0,1.3702273753753023,577.0,608.2,0.0,12.781954887218044,544.0,630.0,5.32,78.125,,,0.05288663205188028,0.03451687247475875,0.006276744763070268,0.0936802492897093,1.5321965247736404,0.5645441003079166,0.36845410571031006,-3.3663070172549543,9.42629099020718,24.021060233080025,0.3924177741840883,711.3492652237852,2.5483045513909035,3.5590529972114973,244.85190848477146,0.45864661654135336,0.46153846153846156,0.6666666666666666,0.08333333333333333,50.000000000000014,50.00270272234736,49.997272972656226,43.84615384615385,0.41975945017182126,0.5802405498281786,6.107185106386094,7.180337868679785,0.5519932610799425,0.44800673892005755,17.846746715658785,16.078089637403465,0.5343476311960335,0.4656523688039665,13.337992319995948,12.451148908770982,1.2890242735805275,1.088342907373483,1.355842116207602,1.6905071043526783,-0.9281546489509402,-1.5216603571251337,-0.19250041886823227,0.0002433342934137434,0.06080151203377459,1.0928853600252981,1.5459936588703722,-0.15800550868226892,0.6149913207529172,1.0,-4.131125377021891,0.0,0.003863071485681097,0.31623602251543764,0.8174193464430819,1.952382663560931,5.687392093927967,1.1695126864039227,1.4721992464064073,1.3462799093510045,1.7810785236963202,1.8324934647195041,1.7175409366135441,3.2280071503168557,0.8487557817144289,Relax
100.99585311508028,594.1428571428571,16.918764397691362,,,,,,,12.890565025113006,12.93877824292603,0.028475919880701982,0.021696070011010107,593.0,17.7912,0.030002023608768972,23.0,1.3124920718937254,580.0,611.0,0.0,12.030075187969924,552.0,630.0,4.75,70.3125,,,0.07527025560472676,0.03185951651690142,0.005325659393646838,0.11245543151527503,2.3625674157608767,0.6693341049916532,0.2833079388661977,-3.4464191498538788,9.149097835841959,22.14337755533643,0.4131753529008079,636.4613116439125,2.420279895640514,3.5107421194436483,214.37268607503262,0.45864661654135336,0.46564885496183206,0.6721311475409836,0.07894736842105263,50.727802037845706,50.74260252573759,50.71272188550891,43.51145038167939,0.4282392632442784,0.5717607367557218,5.987582570467646,6.918555645056305,0.5284278159262886,0.4715721840737114,16.096694448071577,15.206103952150226,0.5138165647799738,0.48618343522002594,12.14402563388159,11.812959189325491,1.2388347880072428,0.9681519019475742,1.2574926399417392,1.617563799459575,-0.9488517181665852,-1.627063480338169,-0.12808402401162264,0.00036154660674711297,0.05357747155525035,0.9875763443006083,1.4279491766216785,1.3792784941829295,1.4608999771966122,0.35482586398545735,-0.05264925565829026,-0.4428400643734482,0.0023012449575212247,0.20885339454671442,0.8286350630736674,1.7520942128356238,5.608344630905582,1.2234472655321784,1.5174360374733098,1.2176818732293897,1.8201900963662498,1.786741865563076,1.704104252911615,2.93322395711416,1.0078974907858844,Relax
100.91703318077231,594.578947368421,17.09076062916957,,,,,,,13.133348715573211,13.176983487267998,0.02874430839640806,0.022088485933955123,594.0,16.3086,0.027455555555555552,21.0,1.3013254272997223,581.0,611.6,0.0,13.533834586466165,552.0,630.0,4.586206896551724,70.3125,,,0.0668971596700722,0.028823103694234527,0.004457128347216158,0.10017739171152289,2.3209561461437485,0.6677869979157919,0.28772064436689815,-3.5465780018346185,9.317534379430361,22.149177216168255,0.42067180593186243,648.3484464211174,2.3771500392920872,3.5187785844834902,210.60766995880707,0.45112781954887216,0.4496124031007752,0.6206896551724138,0.08571428571428572,51.94805194805194,51.94923728653511,51.946775893383645,43.41085271317829,0.4465917076598734,0.5534082923401265,6.229699856762243,6.934810960180178,0.5309220575855074,0.46907794241449285,16.138864762033435,15.16980868521493,0.5182319465801067,0.48176805341989315,12.23258182299526,11.79437786827812,1.2775214782233222,0.9502504997766765,1.3367889195723093,1.513477800863606,-0.5448110781871716,-0.8949557610537928,-0.314060733108984,0.00010587423295786973,0.03501294053788595,0.5990808151682582,1.8194288790536373,0.6839670282838326,1.5041284495416036,-2.717844309954126,-3.7085106996471797,-0.04922040058835823,0.0009659531594085501,0.21495819988571888,0.8275479101814764,1.7272209480904839,5.619313267518245,1.234241493286937,1.3212144554681011,1.2199096144211559,1.8750727103101628,1.8243765114321089,1.6958355109649372,2.7751098540989534,1.0078974907858844,Relax
100.58589842129301,596.5227272727273,18.078905049044874,,,,,,,13.741062327677936,13.793707025083375,0.030307152137690953,0.023035270408725918,595.0,17.049899999999997,0.028655294117647053,26.0,1.3156846696364544,582.2,614.8,0.0,15.909090909090908,552.0,644.0,5.28,85.9375,,,0.055582880899322985,0.0308175411094653,0.00461120839598357,0.09101163040477185,1.8036118034819872,0.6107228345665227,0.3386110211673507,-3.479671234574525,9.75362377513697,23.73086026072452,0.411010122177475,727.1589507270621,2.4330301032542403,3.5685994642572365,230.9515895618501,0.4393939393939394,0.4375,0.5892857142857143,0.05714285714285714,49.757449757449756,49.76122860407423,49.753788930622946,43.75,0.4144734182332728,0.5855265817667273,6.279392425288392,7.463500931456105,0.5417732170326539,0.458226782967346,17.467157962568972,16.064000791356346,0.5233760852804575,0.47662391471954246,13.125021457508286,12.525094162890422,1.3221397927634735,0.7048947425477827,1.410720237847341,1.466120446115438,0.11902780249429235,-0.3234282815949614,-0.42140641017145664,6.812536021737702e-06,0.019181567648245572,1.3464677122066275,1.596263391246882,-0.03795812653446573,0.7601735690889753,1.480579591836408,-1.7190128555857531,0.0,0.0004243675526292505,0.14357137770439854,0.7652797798795623,1.798679912072629,5.668462991004047,1.2281328091123054,1.4571165268276334,1.2872038684838811,1.7577452923901038,1.8135200928642932,1.6911773159062877,3.141313348672712,0.9605991980943345,Relax
100.57784085263023,596.5563909774436,17.880670761363557,,,,,,,13.50981685720245,13.558519424839657,0.029973144252241603,0.02264633664399594,595.0,16.3086,0.02740941176470588,26.0,1.3235316918327347,582.4,614.6,0.0,15.789473684210526,552.0,644.0,5.115384615384615,78.125,,,0.054447153423744274,0.028703067624530045,0.0042822511114752005,0.08743247215974953,1.8969106067677928,0.6227337747497617,0.32828841408128234,-3.5507512760563227,9.58732102815365,23.361066265722506,0.41039740734013685,703.6226380984376,2.4366625668548663,3.5543099138044507,227.69214276600812,0.44360902255639095,0.4461538461538462,0.6206896551724138,0.05128205128205128,48.72881355932204,48.75026877078439,48.707666572236974,44.61538461538462,0.40594388178648505,0.5940561182135147,6.109684466059533,7.390937301754986,0.5276624988418319,0.472337501158168,16.969567599924897,16.05531664412313,0.5101109072972945,0.48988909270270525,12.753322484812143,12.497982772062269,1.3303581297424114,0.6151266441526415,1.3882534562861677,1.5321497754260665,0.06146882733912129,-0.639809587703609,-0.26607041735589104,4.623778635093362e-05,0.01804679168159509,0.9328457379640998,0.4987706435308472,1.1720728094483404,0.9905467572691184,-0.6718546388888198,-1.6920701850558886,-0.8639469454220097,0.000522520236493927,0.025118851508427693,0.7440685160695453,1.70810943994113,5.672863338506383,1.2122891773194147,1.5572097641170708,1.4429620942798431,1.8495734207686576,1.8540114626310438,1.6595092758622547,2.5462158216732735,0.9018030180715806,Relax
100.47194021076453,597.203007518797,19.13340700485879,,,,,,,13.71849006621974,13.7686008603164,0.03203836344420379,0.022971234058609374,595.0,17.7912,0.029901176470588237,26.0,1.3947166862024183,582.0,615.0,0.0,15.789473684210526,552.0,655.0,5.541666666666667,85.9375,,,0.060308675402843265,0.0250285713550665,0.003021970549946103,0.08835921730785587,2.409593202395672,0.6825397195712973,0.28325931484729494,-3.687737252472,9.735871035780658,25.236831031795802,0.385780252025877,771.8972703709356,2.592149273449391,3.594529615116523,261.6705328929381,0.42857142857142855,0.43076923076923074,0.6071428571428571,0.05405405405405406,51.109570041608876,51.09483825011486,51.123626768805266,43.07692307692308,0.4282666451976492,0.5717333548023509,6.372352017034812,7.362738869749635,0.5586455061082132,0.4413544938917869,18.862661655544866,16.765966592948015,0.5417507928137191,0.45824920718628104,14.078474259673351,12.948118771851975,1.3418612737070137,0.5838382526492492,1.4265069657028053,1.4135097667834984,0.37321463438687097,-0.04322324158753599,-0.5222616432896103,1.3492180568988493e-05,0.01295923186659142,0.45638776761761124,3.1988206181067707,0.6201687170240788,0.27608000167635627,0.8680951045038272,4.259120050603291,-0.6075673682356632,0.009454425510651574,0.9500875428167745,0.7138196450187917,1.6739764335716716,5.730078680419443,1.187727184561527,1.5146096333407129,1.5041908721997186,1.994933789146161,1.8091656436533956,1.646875629734388,2.812430925502372,0.8487557817144289,Relax
100.34480823833606,598.0151515151515,19.424539782923937,,,,,,,13.751335812975457,13.804115736772928,0.032481685010336714,0.02299496221481112,597.0,20.7564,0.0347678391959799,29.0,1.4125565724746079,582.0,616.0,0.0,15.909090909090908,552.0,655.0,5.076923076923077,46.875,,,0.05720902001224393,0.020856984668382653,0.002545461995524035,0.08061146667615061,2.7429190231398954,0.7096883653299111,0.25873471267026726,-3.870066390750488,9.760983845756071,25.657196271090243,0.38043844473974947,786.7788252888323,2.6285461257315372,3.6028227731257623,269.7644954220316,0.4318181818181818,0.4296875,0.6,0.05405405405405406,50.070224719101134,50.07567661385036,50.06471078185552,45.3125,0.422129823994833,0.5778701760051672,6.341863351510404,7.420087082217587,0.539178074927584,0.4608219250724159,18.839757498341537,17.41709671262495,0.5243791613905591,0.4756208386094409,14.056238710365355,13.386802273220875,1.342947093472956,1.4768993741204488,1.5595697449150647,1.8190332510420295,-0.7410741783001384,-1.1044168621757722,-0.3243187649250069,0.0003767296110609401,0.12258323881573986,1.014670662291698,2.876125553723178,2.949972523551331,1.9083118856749064,-0.2163829216379085,0.10297581334812644,-0.8621749532206557,0.00966935112249008,0.8126913532455563,0.6955880429269761,1.59601489210196,5.7494475056699015,1.1838422284453576,1.4188830323593211,1.6381852706255458,2.094751597624204,1.7617544496468442,1.617882272182711,2.4579751729224486,0.8004993317452788,Relax
100.20820791642191,598.7121212121212,19.128943859398905,,,,,,,13.728279165829992,13.778062166502396,0.03195015297280343,0.022929683030362632,598.0,20.0151,0.03347006688963211,28.0,1.393397062248799,584.0,616.0,0.0,16.666666666666664,552.0,655.0,4.551724137931035,46.875,,,0.043006713141990914,0.02015649910734961,0.003061562991430221,0.06622477524077074,2.1336400191791984,0.6494051959502036,0.30436493040659546,-3.9042285062482165,9.742561189543657,25.219877470210843,0.3863048581838414,771.9087911220357,2.5886291068182805,3.5945360970170093,261.13963555911346,0.4393939393939394,0.4330708661417323,0.6181818181818182,0.08333333333333333,48.694424841213824,48.71285112608753,48.6765733581605,46.45669291338583,0.4022034104256957,0.5977965895743044,6.179992531735592,7.534280630251611,0.5210561792668713,0.47894382073312863,18.20477214369031,17.453609678481005,0.5056170739133666,0.49438292608663326,13.594227386946091,13.442356107173891,1.3869904179675312,1.128991034358072,1.532337470180707,1.840525630196432,-0.6438072390611058,-1.3921389383065934,-0.22702337694740318,0.00028184452104898684,0.07718047442220484,1.2621571371079852,2.0913863042207286,-0.7478035636599203,0.297889588450444,1.0,-3.9141583980293095,0.0,0.006890069750233621,0.464588123212579,0.6857316988937345,1.5632250692789686,5.6895980016555825,1.1998530605420747,1.3124732842465452,1.479494280561038,1.847827229202162,1.7747162900843205,1.6057879095866456,2.535249926642124,0.8004993317452788,Relax
100.42815068798903,597.530303030303,19.460054758535026,,,,,,,13.600347997343853,13.652296604735625,0.032567477598785706,0.02276093434654498,597.0,21.4977,0.03600954773869346,30.0,1.4308497666629982,582.0,615.0,0.0,15.909090909090908,552.0,655.0,5.076923076923077,78.125,,,0.041673589198019716,0.019864033675512642,0.0030328006857212146,0.06457042355925358,2.0979419325790194,0.645397488523172,0.3076336282242945,-3.9188445354740113,9.653631507978638,25.845548290028862,0.3735123511271371,783.8380463293054,2.6772876371620105,3.601196449621684,276.78386765027204,0.4393939393939394,0.4330708661417323,0.6,0.05405405405405406,49.6057347670251,49.60067012423566,49.610912808393095,45.66929133858268,0.409227848623664,0.5907721513763361,6.175634504928343,7.420087082217587,0.5316194447754302,0.4683805552245696,18.844567677351655,17.68826264690591,0.5166344236921318,0.4833655763078681,14.022414066143325,13.563412693227674,1.3553918964180403,1.298653808625848,1.519711335852438,1.9047669976792494,-0.7658749417803268,-1.52990502209013,-0.2034962980363083,0.0006691009121262705,0.1189001793275364,1.3727527859765505,0.7980111878714655,1.0559167410688337,0.9737471920408177,1.0033231857970635,2.4809783804979353,-0.6029679160854708,0.0010417515145635077,0.05552235742097855,0.6808845827865939,1.7083778602890038,5.696761002318514,1.1770619579937058,1.3585103270370757,1.4812186702154202,1.7221333129409035,1.779630277491523,1.5962196112280327,2.767353747432126,0.8538659538616307,Relax
100.62838531293627,596.2932330827068,19.674157005115305,,,,,,,13.751583930808138,13.803895697701885,0.032994097389641965,0.023061780962556674,596.0,22.238999999999997,0.03731375838926174,29.0,1.4306829747109078,579.0,615.0,0.0,16.541353383458645,552.0,655.0,5.32,78.125,,,0.055422576928323516,0.016903088222834504,0.0020187934162827566,0.07434445856744078,3.278843262111876,0.7454836311444453,0.22736177717268666,-4.080258938668165,9.76082825463681,26.01916809756751,0.3751399052435245,797.8659857967506,2.6656721559676346,3.6089000608154826,277.43428767650835,0.48120300751879697,0.4765625,0.6557377049180327,0.08108108108108109,49.790502793296085,49.78460641166368,49.796182406345046,46.09375,0.41779504847367993,0.5822049515263201,6.3091476057745215,7.447782599462404,0.5260623074010335,0.47393769259896645,18.871742394273003,17.91241043225824,0.5127054285648788,0.48729457143512117,14.070323459452723,13.717213877871279,1.3556758855135143,1.354609955434534,1.5289821746130028,1.8208709467525206,-0.6450540978541319,-1.0960278734758688,-0.28452190538797184,0.0004891202333177289,0.11020850234098262,1.5499959562390362,2.1703727734686025,-0.6203768172295661,0.46480956950473507,0.9060291072542319,-4.144741221517714,0.0,0.005414169212070065,0.4539478933055036,0.7205985469800069,1.828938472469809,5.759959646216713,1.1870661757634753,1.530286675979993,1.5094557184093274,1.818009317918462,1.795056045788819,1.617168846155162,2.4752080938286705,0.7957085453572771,Relax
100.66088861340009,596.0977443609023,19.604755399328166,,,,,,,13.655945536097034,13.707959936683608,0.03288849116573512,0.022908903221464227,594.0,20.7564,0.03494343434343434,29.0,1.4356205029894504,579.0,615.0,0.0,15.789473684210526,555.0,655.0,5.541666666666667,70.3125,,,0.05355117632682679,0.021539571287179895,0.0012815801568955378,0.07637232777090222,2.486176517296787,0.7011855981065138,0.28203371451231907,-3.8378635105541044,9.692991427462495,26.08531528226122,0.3715880495434921,794.3351695574513,2.691152208012427,3.6069739015261595,280.79821527423036,0.49624060150375937,0.4921875,0.6825396825396826,0.08108108108108109,49.93026499302648,49.93255484504894,49.92796613238912,44.53125,0.41200844978875534,0.5879915502112446,6.22172995750556,7.4326492456701,0.5670409313291759,0.4329590686708242,19.642795479961325,17.164039708279105,0.5482315400976508,0.45176845990234926,14.56964889645099,13.225893805647734,1.3206606195716097,1.3231827653368375,1.489768155961722,1.9124859970561574,-0.9117812360142956,-1.7735731040433125,-0.1805295140109947,0.0006600281578432516,0.12492490017758565,1.2262164804792715,1.8639853485382663,-0.5961364529304976,0.3358562213386356,1.0,-3.8536502517488938,0.0,0.0035795498299471106,0.3242867038399432,0.7287668924271307,1.8142323250801133,5.717293691023424,1.1632950856165105,1.5025432474681781,1.434307834992697,1.7650258227711897,1.8370809264067962,1.6276524990999828,2.8298670470345333,0.7957085453572771,Relax
100.98471703959659,594.2706766917294,20.217427158326938,,,,,,,13.458972449408588,13.501747644352179,0.034020570005029005,0.02264788248401202,592.0,20.7564,0.035061486486486486,32.0,1.5021523548192812,577.4,614.6,0.0,15.037593984962406,553.0,655.0,6.333333333333333,46.875,,,0.05399869236690857,0.019518279739514668,0.0017932489294933958,0.07531022103591663,2.766570265800037,0.7170167823721529,0.2591717229219935,-3.9364038299793336,9.547177317190918,26.75534227538415,0.35683256147220566,802.482134462321,2.802434833509138,3.6114054825143427,299.92041269998475,0.48120300751879697,0.4765625,0.6557377049180327,0.05263157894736842,47.78325123152709,47.74289167559292,47.82302610866387,45.3125,0.3847183304755133,0.6152816695244866,5.925427159530422,7.493508641199074,0.5653420046303419,0.43465799536965827,20.117135375127777,17.639421888818838,0.544918160944671,0.455081839055329,14.829191190420977,13.551787268243741,1.3032199577952404,1.2215424423760752,1.4721507222181707,1.8504421111139322,-0.6829665059810246,-1.5601942553529264,-0.19031662284289483,0.0006041643758132459,0.10972647531314082,1.6380208229044766,3.4238828950529356,2.18317733254157,2.5268152617145505,-2.6246423677053023,-1.5120090350061286,-0.39963502266111595,0.0013081201829110878,0.5941574986525036,0.8400021497685248,1.4708517491479536,5.779434010621097,1.1450361104411748,1.283788021586815,1.2985652792825935,1.8875949784395716,1.8298730315847047,1.628566537024116,2.763609469598064,0.7957085453572771,Relax
101.07505449927572,593.7293233082706,21.713397560711876,,,,,,,14.238498814300913,14.291039414299417,0.03657120628592913,0.02398146471015401,590.0,20.7564,0.03518033898305085,33.0,1.5249780081382807,576.4,615.0,0.0,16.541353383458645,536.0,655.0,7.0,109.375,,,0.05381688119050377,0.01690346512108644,0.0029664134152777286,0.07368675972686795,3.1837780481689064,0.7303466917256894,0.22939623324111283,-4.080236641319594,10.105290880055344,29.007482563037456,0.34836842039274124,920.892066884707,2.870524253813324,3.6711788416751916,333.0667289570644,0.46616541353383456,0.4609375,0.6271186440677966,0.05405405405405406,50.968603874415486,50.948801903258165,50.98752537427066,44.53125,0.45017002354172114,0.5498299764582789,6.780922948281772,7.494017970589039,0.5699302791384173,0.4300697208615827,21.898829647747117,19.02302038856801,0.5569663331563186,0.44303366684368156,16.21017667965995,14.457448081307186,1.323289167740766,0.8763176954241074,1.5140681659189703,1.6866749409013442,0.31737604595614677,-0.5417791021013367,-0.3030317362257096,0.0006774054405920303,0.07473152566884282,-0.18658022815958228,4.242583696411457,0.5562626268999036,0.2925722722361255,-2.5109214519187883,0.4958274196971155,-0.5621532475332939,0.0016987890352134234,0.8424589226886832,0.8183967444029441,1.4408984951547426,5.83589848433784,1.1187107372569296,1.399863982418741,1.3783701676901228,1.916130636325186,1.773317317974385,1.6230443569010933,2.9021845758443,0.7957085453572771,Relax
101.20748954967237,592.8872180451128,21.21950722564183,,,,,,,14.087389589790774,14.140393511520546,0.03579012429312861,0.023760656598805042,590.0,19.273799999999998,0.03266745762711864,27.0,1.5062767371053434,576.4,613.2,0.0,15.789473684210526,536.0,655.0,6.65,93.75,,,0.04710943317698169,0.015048856600329584,0.0029400593471706803,0.06509834912448195,3.1304327250981947,0.7236655585059214,0.23117109424008517,-4.196453264073405,9.998768140642433,28.393444962936233,0.35215058101242946,891.8964984159145,2.8396943066940565,3.6572845688503652,322.51481603472416,0.47368421052631576,0.46875,0.65,0.05263157894736842,50.608930987821374,50.612171218905154,50.60473263132024,44.53125,0.4444953428004275,0.5555046571995723,6.666539438989546,7.452649510933975,0.5739530588025248,0.42604694119747527,21.510785807652603,18.53304645223177,0.559669028041061,0.4403309719589389,15.924142899294639,14.12472646696928,1.3479298863864186,1.3923522780743904,1.3359205580532416,1.99416021404854,-0.9729898541388007,-1.8730982313886528,-0.02724632525783107,0.0008989366813241755,0.14781114011918564,1.11976097660901,1.625444434774107,-0.35530278847647034,0.4574194289105832,1.0,-4.297598628179047,0.0,0.002607503529839745,0.30297214280830886,0.8286312379832146,1.4505139538541845,5.888677055831479,1.1270675255763094,1.3285413917656008,1.3200157613180956,1.872481990967259,1.7883905359207717,1.6194189138765889,2.643586847818201,0.7957085453572771,Relax
100.63603242016502,596.2481203007519,22.910367513896013,,,,,,,14.271979328018729,14.325620339209367,0.03842421759307158,0.023936309133888486,594.0,23.7216,0.03993535353535353,34.0,1.6052691072021392,577.4,617.0,0.0,15.789473684210526,536.0,660.0,6.333333333333333,93.75,,,0.046973190539770386,0.018117394830113414,0.0024324940126854867,0.06752307938256928,2.5927121962201194,0.6956612608502607,0.2683141082394166,-4.010882761876206,10.129743286558872,30.78107039190534,0.3290900270064274,979.5622275315219,3.038682177933241,3.6980021400987213,374.13556007036533,0.47368421052631576,0.4645669291338583,0.6610169491525424,0.05263157894736842,50.63375583722481,50.61695092057332,50.64998152039782,43.30708661417323,0.4363075092051921,0.5636924907948081,6.691398146897653,7.605743109274386,0.5737321083111447,0.4262678916888554,23.315154396608847,20.0967129136514,0.5603020978243691,0.4396979021756309,17.151840042660353,15.194163323098737,1.3408641170102933,1.3660382827681934,1.444642580963782,2.0167671007261014,-0.9229809845993682,-1.908748669262791,-0.08117973194503453,0.0013073412017537058,0.16241784727955375,1.3100025657940457,3.375352390183709,-1.0479481778882977,0.6397280172035567,4.044192858922925,-2.6409398214359303,0.0,0.0018534981518517676,0.4027457696688234,0.8086404958147244,1.4845645825526925,5.894352901712408,1.0843528906392328,1.119080689770848,1.3383196492080072,1.7512685101500527,1.760968055004647,1.636228604569158,2.6639350369153196,0.7426613090001253,Relax
100.63460571115876,596.2631578947369,22.935315740882473,,,,,,,14.12605587364904,14.178034246700935,0.03846508951158681,0.023690975514108197,594.0,23.7216,0.03993535353535353,34.0,1.62361779862887,577.4,617.0,0.0,15.789473684210526,536.0,660.0,6.333333333333333,93.75,,,0.042174020781394275,0.01670768997183129,0.0017518490313760834,0.06063355978460165,2.524228116065029,0.6955557439018233,0.2755518566151271,-4.091886188191423,10.025384159737335,30.915591021627197,0.3242824681153278,973.7073523948947,3.0837313093483676,3.6953985593071885,381.34150392160427,0.5037593984962406,0.49606299212598426,0.7142857142857143,0.10810810810810811,51.008064516129025,51.00533578900409,51.009197210348404,43.30708661417323,0.44589977220956706,0.5541002277904328,6.69538977766113,7.463652381390026,0.5721559019588817,0.42784409804111845,23.38485840073786,20.221823997700017,0.5601394478109168,0.4398605521890832,17.199997771763943,15.241854753673932,1.3143105636321293,1.507985429350759,1.5340977488517415,1.9385787858585921,-0.5418733287201807,-1.2499041885686903,-0.23177390899526534,0.0016926850009084836,0.19720146322402715,1.4926118586033714,5.740065483451426,1.994588171144117,3.7763341143309637,-9.059751263087708,-8.571572873403387,-0.189594840281246,0.005010669571328417,1.740866057967184,0.8088705482641267,1.47962630091211,5.90172470615862,1.071523620624044,1.524755408247282,1.337532541325056,1.785137084220094,1.7545079119392222,1.6396826625315453,2.5949178582204797,0.7957085453572771,Relax
100.73271678453138,595.9323308270676,24.21281763256615,,,,,,,17.072927355460997,17.13439683615096,0.0406301460418539,0.028649104054761135,594.0,25.2042,0.04243131313131313,36.0,1.4181995347635195,574.0,617.6,0.7518796992481203,18.045112781954884,536.0,660.0,7.0,93.75,,,0.0400029959701822,0.01402045683418124,0.0019278430177847336,0.05595129582214817,2.8531877700772705,0.7149610278435611,0.2505832372273902,-4.2672378134428435,12.115848194383668,31.791848096118024,0.3810992100161389,1210.0950114036586,2.6239886457850483,3.78978958053311,333.6857937309468,0.518796992481203,0.5118110236220472,0.7384615384615385,0.1388888888888889,51.43212951432129,51.348226332944094,51.517207919405664,45.66929133858268,0.5913816405031707,0.4086183594968292,9.319191394336464,7.746459422716049,0.5524362999190916,0.44756370008090834,23.62962767199333,21.2688105320822,0.5573770672662158,0.442622932733784,17.961161323273444,16.00577919123897,1.349513444884141,1.162626123961734,1.5425653592858186,1.8778426064812002,-0.2667340245790033,-1.1607662238113874,-0.2116207521185748,0.0010382864095429905,0.1231428692663756,0.8538187754412829,3.0092891925144993,1.4144877025544802,1.5212919449122007,-1.4171671807690238,-0.33150875001767766,-0.46450848172937576,0.0015377187611158598,0.5092327232740086,0.7958695472870785,1.5985682401971966,5.944847544455684,1.05911495920499,1.3412641601815973,1.386778646178288,1.8029769345953497,1.802078515299363,1.6366731620211055,2.8136357854170826,0.7957085453572771,Relax
100.26320549761506,598.2727272727273,27.711185194278805,,,,,,,17.602263907136734,17.6572542020043,0.04631865022596366,0.02942180564937002,595.5,27.428099999999997,0.04605894206549118,38.25,1.5742966552753177,574.0,620.6,1.5151515151515151,18.939393939393938,536.0,682.0,7.333333333333333,93.75,,,0.026839046094632578,0.009395697325400775,0.0014951034366210553,0.03772984685665441,2.8565251907460474,0.7113478672892884,0.24902558870958302,-4.667503425837491,12.4855641833719,36.569448244685454,0.34142063341593887,1434.4203966881635,2.9289383889746956,3.863646561994263,428.43864330993006,0.5151515151515151,0.512,0.734375,0.14285714285714285,52.59701492537313,52.4412510173903,52.75949917327188,44.800000000000004,0.5645618270960113,0.4354381729039886,9.38800380190674,8.244811888510439,0.5218861560578104,0.4781138439421896,26.41838689531288,25.28622903420533,0.5263471200955642,0.473652879904436,19.825057144117576,18.806518841178605,1.3849582622281436,1.4077954276805174,1.5642173783960729,1.9903391711043492,-0.5869869778985883,-1.278484683241576,-0.19731270301797027,0.001613687696476234,0.17328621487183865,1.6517909564699722,3.749168129995997,1.6517909564699722,3.1704704769701806,-6.080640069763319,-5.852834500220313,-0.09492893680875554,0.008564222090159616,0.9456152589244554,0.8752924666038835,1.529395204760564,5.986152903380784,0.9939122035345341,1.4432128850150483,1.418387347166062,1.7469630013948279,1.7142192413633421,1.618226301910781,2.5424267324759318,0.8004993317452788,Relax
99.95626010577786,600.2748091603054,28.14032240674594,,,,,,,17.24796532035903,17.31457863402119,0.04687906601663002,0.028733448509169243,598.0,29.651999999999997,0.04958528428093645,40.0,1.6315154793087316,576.0,622.0,1.5267175572519083,16.793893129770993,536.0,680.0,8.733333333333333,132.8125,,,0.026333708189672855,0.00899370516795105,0.001361415093500044,0.03668882845112395,2.92801550616899,0.7177582196377309,0.245134705784685,-4.7112303721414595,12.24325596550409,37.98022898402784,0.32235866641701544,1460.8458149220673,3.1021346846818196,3.871574490672163,471.27914265404206,0.5190839694656488,0.52,0.7538461538461538,0.14705882352941177,49.75155279503106,49.746666615968174,49.75661256755854,46.400000000000006,0.545818896416197,0.4541811035838029,9.045320859834899,8.251145093187805,0.5278741361456619,0.4721258638543381,27.594515337842502,26.096752996278365,0.5295633541124507,0.4704366458875494,20.53381486947554,19.353577347581002,1.3811492930079068,1.9459678963460698,1.6402062560773711,2.089497170541239,-1.056830136927907,-1.401587927837654,-0.26911699555398716,0.0019551493098837473,0.2767411637339219,1.2714065346731165,0.8915158427031604,2.162922377376277,1.7171644560246966,3.7725202898286856,2.8120588515355536,-1.0,0.004066407178320453,0.16741404928335787,0.8468647864862806,1.4874795053672363,6.003400459500131,0.9465032984999058,1.5526072812797327,1.4117506848303405,1.7314302727095954,1.6822009041267907,1.5801287996137097,2.5586476525870223,0.7516635268818649,Relax
100.24994004844727,598.560606060606,27.937842014439482,,,,,,,17.191778613872298,17.257440717823247,0.046675042980711456,0.028721867827251533,595.5,28.1694,0.04730377833753149,38.25,1.6250699035814729,574.0,620.8,1.5151515151515151,15.909090909090908,536.0,680.0,7.764705882352941,125.0,,,0.02154229585638635,0.009700028326889107,0.001216521540465414,0.03245884572374087,2.220848757386585,0.663680281170011,0.2988408278423273,-4.635626473179218,12.20285335749766,37.705376537668045,0.3236369578568427,1445.4881882390819,3.089881967195907,3.8669846571593722,466.02065212028856,0.5227272727272727,0.5238095238095238,0.7424242424242424,0.15151515151515152,50.42839657282742,50.413799414724636,50.441776483154435,46.03174603174603,0.5564853556485355,0.4435146443514644,9.103253856134671,8.126878481074627,0.5273583303708633,0.47264166962913656,27.381433908884148,25.92204654229171,0.5301199707209756,0.4698800292790244,20.40358000052713,19.209355152983292,1.3903447134347544,2.225761887350701,1.6486283748241335,2.1742881849245843,-1.665328988613986,-1.819575023771825,-0.26382926983886057,0.0018868135456219836,0.3202674078627642,1.6334054577273238,2.922857226951411,-1.1616548526619768,0.29977376081372886,1.287648344233416,-6.343449196328013,0.0,0.00396670079570804,0.5528869019540517,0.8698617819793077,1.4701758451005926,5.961568717791114,0.9552361498340901,1.259319454087851,1.2913086083707817,1.6185115782628245,1.6386566162611054,1.5627601054899203,2.6595081920698598,0.640399465396223,Relax
100.04832989243599,599.810606060606,27.9003495493049,,,,,,,17.43165498223985,17.498403584595803,0.046515265431111424,0.029061931893345883,598.0,29.651999999999997,0.04958528428093645,39.25,1.600556549434407,574.0,621.8,1.5151515151515151,17.424242424242426,536.0,680.0,8.8,132.8125,,,0.0443400679018867,0.00827569778878515,0.0026261595233431057,0.055241925214014956,5.357864561218554,0.8026524732819695,0.14980827979336234,-4.794432036345438,12.37323983460668,37.59705467531157,0.32910130704285395,1461.4606544260694,3.0385780262786524,3.871757237697901,456.9663367567953,0.5151515151515151,0.5158730158730159,0.7230769230769231,0.15151515151515152,50.29832935560861,50.29621269616173,50.299648518997344,45.23809523809524,0.5467266241270158,0.4532733758729839,9.148980607359825,8.3304353935526,0.5272283017248757,0.47277169827512444,27.299405001913737,25.851131634801884,0.5291337784006791,0.4708662215993208,20.358798584547653,19.205170666333697,1.3645148520310177,1.792545236997551,1.5789951257558241,2.090464949812187,-1.1293638210912924,-1.6958349298293927,-0.21466838688374945,0.0019462215775901983,0.24928134938442648,1.107346433051324,1.176209880468831,1.1151249338134681,0.642238157658538,0.7355580029159494,2.5857536996582824,-0.9020428530718004,0.001409369994093173,0.09547069127067602,0.8984423137586015,1.589235205116581,5.985200653236293,0.9798824907677747,1.2969503064695218,1.352882766386784,1.5924775118306898,1.6640279744070665,1.590716107639836,2.418996297501415,0.640399465396223,Relax
100.16209784002328,599.0530303030303,27.252372792258566,,,,,,,17.54166251140758,17.608040788544287,0.04549242122767159,0.0292823199684578,597.5,28.1694,0.04714543933054393,38.0,1.553579814600582,574.0,619.0,1.5151515151515151,17.424242424242426,536.0,680.0,8.8,125.0,,,0.03527722553658542,0.00721033081425259,0.001947669229393468,0.044435225580231476,4.892594590369318,0.7939022493064533,0.16226610127664912,-4.932240446039857,12.450765044988989,36.59245243035618,0.34025500391605745,1431.3222661492753,2.9389722075820077,3.8627075373296322,430.17680280033403,0.5227272727272727,0.5238095238095238,0.7272727272727273,0.14705882352941177,49.28486293206198,49.28018380635909,49.290747977188815,44.44444444444444,0.5282808236169684,0.47171917638303157,9.050074372835073,8.551877886441982,0.5305892628461446,0.46941073715385534,26.65451260283242,25.07079042976762,0.5303497140920064,0.4696502859079937,19.904357415505764,18.730712054777083,1.3277908870859338,2.23638112851876,1.5769299123748324,2.06509945034997,-1.5162573347548793,-1.5358338570149215,-0.2817145155850646,0.0020675361886693987,0.321626371719042,1.308487966136118,1.0760439060914602,2.384531872227578,1.8465099191818481,4.15547306133023,3.145917602173867,-1.0,0.005781689870878486,0.23081388758561078,0.8996928836410909,1.625002428975212,5.958611448658059,0.9993123828789293,1.3757058600882273,1.4796860362759365,1.7983945337649831,1.6490196021594488,1.6096895171993877,2.6434026363323504,0.693766087512575,Relax
100.27452503319856,598.4242424242424,27.29038675697657,,,,,,,17.493728429101242,17.56045509343841,0.045603745340299116,0.02923298755116169,595.5,27.428099999999997,0.04605894206549118,37.25,1.5600097410668814,573.2,619.0,1.5151515151515151,16.666666666666664,536.0,680.0,7.764705882352941,93.75,,,0.024784859899745493,0.00923241229033375,0.0014246845957378766,0.03544195678581712,2.6845486445286904,0.6993084509843909,0.2604938645494964,-4.685034911381924,12.417116877292148,36.685264505332235,0.33847696192806,1431.0746753686103,2.9544108240150786,3.8626324063731103,433.5333701456389,0.5151515151515151,0.5196850393700787,0.7272727272727273,0.15151515151515152,50.4739336492891,50.46800188843683,50.47863580159036,43.30708661417323,0.5390371663756549,0.46096283362434515,9.116763933292592,8.430713082350927,0.5365139859348036,0.46348601406519635,26.87089788910176,24.975257325193983,0.5367733557822811,0.4632266442177189,20.06440303101388,18.639211377316624,1.3355728084406255,1.4263046076507857,1.4880790852740002,1.9232461704989823,-0.9325743434131564,-1.5982622742663954,-0.1948989136747375,0.0009166712165145402,0.14397121858788373,1.389879653606829,4.419089183413867,1.620873406981144,2.8056306370864164,-6.109178857732456,-5.096228025621663,-0.23190013124152087,0.0059274088816441495,1.0105678613721343,0.942202367773012,1.6856270507916469,6.01303832021135,1.0018568416858071,1.2046603195508667,1.537885638983289,1.8942842184493434,1.636490884683916,1.6058901746195005,2.5081951779014133,0.7471327096289269,Relax
100.14195386621294,599.2045454545455,27.319913782894492,,,,,,,17.385173994215883,17.450189156150643,0.04559363574615428,0.029013755196112226,599.0,26.686799999999998,0.04455225375626043,38.0,1.5714489709440893,573.2,619.0,1.5151515151515151,16.666666666666664,536.0,680.0,7.333333333333333,93.75,,,0.056389341389626604,0.014285297154472068,0.0023124383581139356,0.07298707690221261,3.947369157243866,0.7725935026165867,0.19572365082672613,-4.248524441662619,12.339147085302077,36.71315626080999,0.33609605770870987,1423.169856578843,2.9753398680644065,3.860226846569341,436.93647002106536,0.5075757575757576,0.5118110236220472,0.7230769230769231,0.15151515151515152,50.96038415366145,50.96098323324559,50.95774329311469,41.732283464566926,0.5408647774915389,0.4591352225084607,9.075537703926122,8.361771987397812,0.5392412591891632,0.460758740810837,26.959589792606693,24.920601133299904,0.5394060683301515,0.46059393166984863,20.114483170106652,18.587033001722723,1.3995698826695744,0.9769667048941697,1.4988402647276182,1.811352788083044,-0.40582730197793104,-1.1802080605140768,-0.18011957645037777,0.00040215670807183427,0.06618739393969783,1.153810528123133,1.0867778379645396,1.2466920292104118,0.9039000263718304,0.3107883736878678,1.5380130631423437,-0.8154204942940383,0.00041184048828772136,0.05696682621232821,0.8895238808489965,1.5099083170870673,5.986449115633115,0.9895892052304862,1.2731370800994846,1.4094065888291036,1.752960010797587,1.6165400695150123,1.597795708563577,2.3640911636202206,0.693766087512575,Relax
99.855348231688,600.9770992366413,26.58729183097558,,,,,,,17.39672825120154,17.46359020096427,0.04424010809188346,0.028947406271052252,602.0,25.2042,0.041867441860465114,33.0,1.5282926448620748,578.0,619.0,1.5267175572519083,16.793893129770993,536.0,680.0,6.238095238095238,93.75,,,0.06144927938707939,0.01398098202680634,0.002461997832949036,0.07789225924683477,4.395204805303378,0.7889009765701005,0.1794912891472521,-4.27005729952149,12.348623054964778,35.62299947829561,0.34664748156562586,1381.970877243461,2.884775032789858,3.847469001056607,411.0573579522933,0.48854961832061067,0.49606299212598426,0.7142857142857143,0.1111111111111111,50.483091787439626,50.485972841658075,50.47922624706286,40.15748031496063,0.5347702318015454,0.46522976819845474,9.030525322310947,8.422929207473404,0.5470834529742347,0.45291654702576567,26.348583603230487,23.97394906839971,0.5457625059860448,0.45423749401395547,19.695154803825808,17.967971092590446,1.3591221804218925,2.128688112850366,1.5915200698312058,2.0384408390982465,-1.4652251601339437,-1.4828011404026231,-0.29004873162531886,0.0015282055209928024,0.2733399653067527,1.3969091711893369,1.9327737491650105,-0.009555550456632478,0.9568313241258728,2.0870327699443534,-1.7468736030120091,0.0,0.0007987938664374035,0.15351125109342337,0.871594747796788,1.4193248867963724,5.962599100966188,1.0043009996993395,1.3159010868604473,1.1981236084219757,1.7718644777481989,1.5990927785421012,1.6011242562240815,2.3738350524355414,0.6979732749617317,Relax
99.72948712285198,601.7272727272727,26.26787749181597,,,,,,,17.349351572897472,17.413117941750627,0.043654124854203905,0.028832583064189784,602.0,23.7216,0.039404651162790696,32.0,1.514055287971148,581.0,619.8,1.5151515151515151,16.666666666666664,536.0,680.0,6.0,93.75,,,0.05824313600976482,0.01414645002590292,0.0021545851917964846,0.07454417122746422,4.117155604630029,0.7813238117845809,0.18977271855013877,-4.2582915679305655,12.312933778213006,35.06825991958303,0.35111333742958667,1356.5182259456176,2.848083206752415,3.8393957432045838,399.50928866797284,0.4772727272727273,0.484375,0.6774193548387096,0.11428571428571428,51.235684147076554,51.260182696387766,51.20972954323143,39.0625,0.5367857776876062,0.46321422231239384,9.02262114397431,8.381527307120106,0.5545968308049013,0.4454031691950987,26.115774414876505,23.404041969256415,0.5526414927912793,0.44735850720872083,19.537673423368638,17.578384176293277,1.3045402905882515,2.068054122675548,1.5291640324034792,1.9569553606705963,-1.449229387168712,-1.485241765741467,-0.29314306933434536,0.0012833833118893192,0.2498550085407877,1.2537226138367714,1.258549178726393,-0.004826564889621521,0.624448024473575,0.8215307248410335,-1.6183813670143605,0.0,0.009459222333325886,0.4386815668529649,0.8269230060067998,1.334289576129576,5.938989551190007,1.00358926315965,1.0958712877056198,1.1574715606431265,1.7217852038589894,1.603926473994774,1.609484270538241,2.236610260753773,0.693766087512575,Relax
99.4267493718971,603.5343511450382,25.12011076345119,,,,,,,17.214930907611745,17.279035177022404,0.04162167524647567,0.02852353122063593,603.0,20.7564,0.03442189054726368,29.0,1.459204855265733,584.0,620.0,1.5267175572519083,16.030534351145036,536.0,680.0,5.24,93.75,,,0.0461298062666094,0.009273392155116904,0.0016027593606909429,0.057005957782417245,4.974426347445657,0.809210266103757,0.16267408733858976,-4.680606038063971,12.218122946033436,33.38895300048646,0.3659330960708898,1281.6137685517153,2.7327399755234945,3.814727274411936,364.9733064212179,0.5038167938931297,0.5079365079365079,0.71875,0.14705882352941177,51.18306351183064,51.20196197364121,51.16255156692803,39.682539682539684,0.5403104397030578,0.4596895602969423,8.982325452945672,8.285131915227009,0.5424903485146855,0.4575096514853148,24.592280786851465,22.58410742467698,0.5422328500164952,0.45776714998350454,18.513001442796618,17.010075235313675,1.3840546717614746,0.7016878871669565,1.4907537523621226,1.593922914967263,0.3680587456861293,-0.24425083291520533,-0.3529700106101551,0.0001796786647789598,0.031850927573109124,1.1038086904577793,2.427551574088656,2.54503421194919,1.331258424904862,5.082710248079074,1.40336188094484,-1.0,0.002325076676728682,0.21749523697656997,0.8215172140316627,1.2510808823123833,5.818472501567438,1.002704924533828,0.8874288921885581,1.1762104221636527,1.6530040805807678,1.6096222281124135,1.5983751307956473,2.2546766884044387,0.7516635268818649,Relax
99.1046684706338,605.3893129770993,23.364197633619487,,,,,,,17.248857264267592,17.315522246638196,0.03859367374478794,0.028492173374259883,605.0,20.7564,0.034308099173553715,27.5,1.3545359716101495,587.0,620.0,1.5267175572519083,16.793893129770993,550.0,680.0,5.038461538461538,78.125,,,0.04717606529126525,0.010704033948229377,0.002209940649069407,0.06009003988856404,4.407316486423228,0.7850895985216928,0.17813324750790357,-4.537134604055201,12.24392320038439,30.32155242468718,0.40380264931341847,1166.331224126473,2.476457253810221,3.7737920123425868,300.36011379561387,0.5190839694656488,0.52,0.7384615384615385,0.15151515151515152,49.81132075471698,49.78674888132994,49.83447738167291,40.8,0.5239671130875432,0.47603288691245677,8.862865653776955,8.447741774301067,0.5338968893267749,0.46610311067322485,22.155427180134474,20.70105282126519,0.5325047598763816,0.4674952401236185,16.873253111524473,15.809774334159277,1.2922301602943373,1.5417694800476953,1.4717214113234864,1.886741972963502,-1.018580725136438,-1.6457921947310936,-0.23081542538565705,0.0008371430906570355,0.15615668285903153,1.3431357253866727,1.6183640030671782,0.05433773067872072,0.5339537238530836,0.8479115634754928,4.018857815536216,-0.2036414599772496,0.011484686253576735,0.5284301461710598,0.7394723718631395,1.3140761533080916,5.71103712812357,1.0276799553085285,1.233547812473751,1.2810540043450354,1.728747139697884,1.6460804189828762,1.6291088025495537,2.1636993116942826,0.9664245345623977,Relax
99.32934118785691,604.0610687022901,23.24476970953014,,,,,,,16.539928378600397,16.603733298610926,0.03848082737638943,0.02738121894551701,603.0,20.7564,0.03442189054726368,25.5,1.4053730570928327,586.0,619.0,1.5267175572519083,14.50381679389313,550.0,680.0,5.458333333333333,78.125,,,0.049367096148537994,0.009725029986199837,0.0025937376653117437,0.06168586380004957,5.076292434942788,0.8002983683353774,0.15765411047371963,-4.633052306068516,11.74061240846067,30.778181912074675,0.38145893223974603,1135.2292848928955,2.6215141801201876,3.7620536958144353,322.74176128328975,0.549618320610687,0.5519999999999999,0.782608695652174,0.1935483870967742,49.670619235836625,49.66832328387243,49.67290058024984,40.0,0.5208075582049263,0.47919244179507364,8.472939140252254,8.127377410080786,0.5468636429036113,0.45313635709638855,22.760536130634115,20.718457395734358,0.54355375182134,0.4564462481786601,17.173128757281237,15.737038165181389,1.331294655696263,2.251158716126266,1.5505306840791295,2.0013683392131973,-1.850900641618395,-1.7156398711970429,-0.29973084442937137,0.0012413391950376147,0.2702425543260178,1.3391314190430506,2.430413511751433,3.483957973488409,2.2687512176126927,7.183641845428992,3.8263979016160405,-1.0,0.009765377703021796,0.4599765500921444,0.7480124842894962,1.244067261527814,5.708057284416981,1.021676167019379,1.2066016377487812,1.0088734498401666,1.5369215066707411,1.626648612169998,1.6077749836434552,2.636157440736093,0.9127342826422644,Relax
99.43716576363578,603.3846153846154,22.96994484386051,,,,,,,16.27453425190039,16.331960124603167,0.03806849604413394,0.026972073594429512,603.0,20.0151,0.033192537313432836,25.75,1.4114041291951744,586.0,616.2,1.5384615384615385,13.846153846153847,550.0,680.0,4.814814814814815,78.125,,,0.0498300203499593,0.010876365472636387,0.0019690369568660386,0.06267542277946173,4.581495580975609,0.7950488108440528,0.17353477631746414,-4.521163149187278,11.54843975417519,30.081183556613368,0.3839090882990293,1091.3601842616129,2.604783347095689,3.7449382154737014,313.4198639567807,0.5692307692307692,0.5691056910569106,0.8142857142857143,0.1875,48.05194805194804,48.12114756326257,47.9808390095508,41.46341463414634,0.5109901366815933,0.4890098633184067,8.25828182795913,8.078714316028263,0.5184345258480515,0.4815654741519484,21.659173383734355,20.87481287341278,0.5174776505523252,0.48252234944767486,16.39083601309992,15.827561996403613,1.318520699008719,1.4546160062808724,1.466270892332102,1.8980865591744926,-0.8671854743049767,-1.4668167013223243,-0.20314112798301545,0.001191126093289051,0.1556032291190963,1.2955979265730992,0.7838705021332582,0.5117274244398411,0.9036626755064702,0.9751015708884287,-1.1275525687597898,0.0,0.0019926710856215976,0.10481043876856365,0.7787420514716925,1.2487868201157284,5.688343366854901,1.0190401686840664,1.1088920340986579,1.179023506417753,1.6120016716674093,1.6060204278125065,1.6102413234934767,2.1389564018014657,0.8102732091955909,Relax
99.81280750042063,601.1515151515151,22.20909821420758,,,,,,,16.227156580467906,16.289360839847507,0.036944260564011,0.026993455346075255,601.0,18.5325,0.03083610648918469,24.25,1.3686376971884242,585.0,613.8,1.5151515151515151,13.636363636363635,550.0,680.0,4.551724137931035,70.3125,,,0.05124045968525855,0.015223404986545569,0.0019110120630505953,0.06837487673485472,3.365900055246827,0.7494047833381798,0.22264617815077242,-4.184921233662649,11.518317511050766,29.345983188525697,0.39250065118126415,1061.9096883601906,2.5477664737381067,3.7330576930776624,299.06684842643153,0.5454545454545454,0.544,0.7794117647058824,0.1935483870967742,49.765886287625435,49.75633986140179,49.77551749382209,41.6,0.5314973184519496,0.4685026815480504,8.397343902412514,7.884014986521291,0.5477563505345908,0.452243649465409,21.71912751403389,19.734898766661278,0.5455858876577492,0.454414112342251,16.465659485520895,15.027040986802112,1.3179814385143789,1.0690844631278926,1.4997638479699087,1.4928674209425208,0.0688588634122631,-0.0704931031431304,-0.5064507784606752,9.153462772006397e-05,0.055109219361490415,1.364201626607047,1.9248157448931318,-0.5606141182860849,0.401793754160481,0.7630979879334379,-2.9570771966864497,0.0,0.015402410072284782,0.8038070259133934,0.7807736679190138,1.2546165371446911,5.678652218033944,1.066603929462487,1.5872169534024714,1.198544074170543,1.6285722624983392,1.6156125333664701,1.6307276733016065,2.6079207525066406,0.8538659538616307,Relax
99.82846138499772,601.0916030534352,22.342250551771738,,,,,,,16.29157403737848,16.348463900750197,0.03716946042546128,0.027103313296376576,600.0,19.273799999999998,0.032123,24.5,1.3713991355599477,585.0,614.0,1.5267175572519083,13.740458015267176,550.0,680.0,4.851851851851852,62.5,,,0.06060653592282994,0.036580357408257415,0.0023082865566717682,0.09949517988775912,1.6568054610956047,0.6091404225933397,0.36765959365593237,-3.308243865475093,11.56010968620394,29.309635627353483,0.39441328555498534,1064.442599559231,2.535411550837807,3.7340923568852005,297.2479548817573,0.5343511450381679,0.5284552845528455,0.7692307692307693,0.15625,51.94892473118278,51.96275583814689,51.93370092722878,39.83739837398374,0.546284488754927,0.4537155112450729,8.547405427080415,7.7896273706540935,0.5558605297310069,0.444139470268993,21.852107980293866,19.53305192297932,0.5545705650278219,0.445429434972178,16.59175642777621,14.86974128893051,1.2896020702542854,1.522919187366183,1.4891002214576172,1.7057899643496919,-0.4731460393181983,-0.5393402183300484,-0.3577142210238815,0.0006966517425531474,0.135979425000984,0.9933012734099764,2.0522724625137565,2.746099594279766,1.7199633630228877,5.113061835190392,4.113061835190392,-1.0,0.007375664801022995,0.47674544477349384,0.778650138785673,1.2488944917174476,5.703057116233366,1.0702800763367961,1.2344398836442525,1.2303734944705913,1.5793638718254168,1.6175493624748385,1.65987231071126,2.134092506715073,0.8590440307221313,Relax
99.48848070551972,603.0229007633587,21.036768415490993,,,,,,,12.896928674330537,12.94580465169719,0.034885521576147153,0.021387129175367114,602.0,16.3086,0.0270906976744186,24.0,1.6311455964986163,587.0,614.0,0.0,12.213740458015266,561.0,680.0,4.366666666666666,54.6875,,,0.05189197676335194,0.055521047695877936,0.003388174497756052,0.11080119895698592,0.9346361229996127,0.4683340726619474,0.5010870660111876,-2.890993092358647,9.154066257131433,28.123895857210798,0.3254906896117092,808.7967645997729,3.072284498192375,3.614809515255819,345.61843708354195,0.5267175572519084,0.52,0.7538461538461538,0.15151515151515152,49.21348314606742,49.253286707407376,49.17291862499266,40.8,0.3995282800721453,0.6004717199278545,5.786578965505527,7.094052536833149,0.5605236070311662,0.4394763929688338,21.055833372448173,18.644178694137658,0.5450988329562986,0.4549011670437014,15.440735331135192,14.105512762290589,1.2368194724539103,1.216742201320419,1.3950629081245298,1.683408109954859,-0.3662932033272135,-0.9387950391400528,-0.26301865627951876,0.0006882587107753367,0.10402920611119797,1.3672993045465507,2.044045631761,2.246496094521093,1.2244732786405927,3.1825963843186553,0.37188905724320387,-1.0,0.0003060838046010537,0.17504121755939067,0.7891956065845966,1.2360121580705528,5.671264772444201,1.092824619506876,1.182551106721301,1.2686692427664423,1.6334470110006931,1.6291855299121163,1.70583076799658,2.3160376154828617,0.8053537788019982,Relax
99.89743222830168,600.5267175572519,15.576277942027893,,,,,,,12.1357703948667,12.182717457577468,0.025937693505772973,0.020208543666851462,602.0,16.3086,0.0270906976744186,22.5,1.2835013711710046,587.0,613.0,0.0,9.923664122137405,561.0,636.0,4.366666666666666,70.3125,,,0.06493432350596778,0.05020292178699937,0.004355860639314593,0.11949310593228174,1.2934371386085994,0.5434148104139739,0.4201323699414927,-2.991682051049904,8.614482127532762,20.17182895433997,0.4270550849420799,545.9141156127196,2.3416182952970264,3.444094433894894,188.93889491633902,0.5419847328244275,0.532258064516129,0.7727272727272727,0.14705882352941177,50.0,50.00289348179698,49.99705691161597,39.516129032258064,0.3848323409589471,0.6151676590410531,5.343981618127416,6.756564422152554,0.6307719587945528,0.36922804120544706,16.020699192723544,12.257237891932078,0.5928369083349941,0.4071630916650057,11.94196261421498,9.896742987723618,1.1911197822565465,1.7493845416247096,1.4601883838028162,1.8334576501007214,-0.9240116055642549,-1.3663880665861976,-0.2866282355786464,0.0011625265624756076,0.2108507644158581,1.2784631901198287,0.6133827412393436,1.37103600459962,1.419256664253096,-0.6937168292297891,-1.6452424138293196,-0.4213856921437898,0.000982659374788172,0.04580807959713407,0.7884110747367843,1.4096054399883378,5.542602536014633,1.2641328906808593,1.4981827944808057,1.4248982359267772,1.9487239275045303,1.763855741267979,1.7439393539693828,2.6183878003298955,0.8590440307221313,Relax
99.79129922684574,601.2748091603054,16.08394011960354,,,,,,,11.984605510018644,12.027388740062888,0.026749732193279717,0.019931993370478022,603.0,16.3086,0.027045771144278603,24.0,1.34205002460515,587.0,615.0,0.0,9.923664122137405,561.0,635.0,4.366666666666666,70.3125,,,0.07029160725571693,0.07065053348516204,0.0040115155159879115,0.14495365625686688,0.9949196954114934,0.4849246929732896,0.4874008376854248,-2.6500096187808597,8.504648138065193,21.010520691446477,0.4047804556089603,561.3620356582874,2.4704750097076174,3.4562131483606287,207.62386523665333,0.5343511450381679,0.5241935483870968,0.7846153846153846,0.14705882352941177,51.54975530179444,51.580505819201946,51.519000297459904,38.70967741935484,0.3956726649528707,0.6043273350471293,5.351229663799591,6.613352713149899,0.6262418015625845,0.3737581984374156,16.626768196759603,12.844942937083214,0.5937655190159927,0.40623448098400683,12.350811300953174,10.215894311450445,1.1757148640046082,1.577663202772686,1.3746741134078935,1.8595883003948672,-1.1370446961295606,-1.8701460387650002,-0.19263770230886124,0.0012072765092067724,0.18453208982016822,0.11647638455815028,1.5376028318328858,0.49349715514187126,0.6063419099272562,-0.5156866773180475,-0.9695239330074774,-0.4266099460477259,0.0011104087842099136,0.16097193914341332,0.7406837073324093,1.3478280802920946,5.596949219058631,1.223920414557177,1.4903722922779223,1.4112469973618553,2.069649160311244,1.769645891192666,1.7676875211741783,2.541918993195089,0.8590440307221313,Relax
99.60091578120205,602.4090909090909,15.408411772980312,,,,,,,11.628144325644367,11.672477930808624,0.025577986795862588,0.019302737128512496,604.0,16.3086,0.02700099337748344,22.0,1.3250963646021363,588.2,615.8,0.0,9.848484848484848,561.0,635.0,4.4,70.3125,,,0.03225302469257115,0.03756199797181626,0.002774030376205737,0.07258905304059315,0.858661051969904,0.4443235355961271,0.5174609172930096,-3.2817624319190197,8.253688298125097,20.232580424362652,0.4079404665648374,524.6252772463865,2.451338079844701,3.426819321691071,198.38757939104252,0.5378787878787878,0.528,0.7878787878787878,0.1388888888888889,49.5295124037639,49.52920491987505,49.5300259350525,40.0,0.36713148534974327,0.632868514650257,5.001153713048466,6.5662306245961695,0.6154980445306554,0.3845019554693445,15.873204597876528,12.545863319128516,0.5800613781911259,0.4199386218088743,11.767968445479172,10.012843528130233,1.1109147569945232,1.3957186809615099,1.3481079940536422,1.6656821541859061,-0.5794451763232438,-1.2714432236096584,-0.272465494326201,0.0008258507235832765,0.14241130880737765,0.9886471209756517,1.2861803978066506,-0.08099513082645249,0.5620950680768728,1.6486212891112189,-1.5130073071313923,0.0,0.00015660066987201147,0.07303685806220912,0.7779897348054763,1.3730491343698699,5.5308508922435875,1.207891731351543,1.488275143184658,1.376373050888619,1.9945653149063314,1.784272531244412,1.769465956837427,3.197132830409703,0.9605991980943345,Relax
99.74129858340196,601.6412213740458,15.79000107287475,,,,,,,11.71258363404998,11.75752845003697,0.026244879027426154,0.01946772132285158,604.0,16.3086,0.02700099337748344,23.5,1.3481228024678686,587.0,615.0,0.0,9.923664122137405,561.0,635.0,4.851851851851852,70.3125,,,0.016054261551993784,0.0255200775172913,0.002565811520227806,0.044140150589512886,0.6290835731637614,0.3637110734236612,0.5781601824293398,-3.6682897829987464,8.313828097014898,20.673718188387305,0.40214479182002605,539.9698426116144,2.4866665448387435,3.439339615056801,205.6345735059478,0.5419847328244275,0.532258064516129,0.7878787878787878,0.14285714285714285,49.48892674616695,49.47684517199142,49.50082182016109,41.935483870967744,0.3763036895816979,0.6236963104183023,5.1001595962260575,6.566003586716596,0.6101382615385603,0.3898617384614398,16.14851986472396,12.908444132097095,0.5775849473341604,0.42241505266583956,11.974688341004141,10.240613580548949,1.129596493370955,1.1168378320408774,1.3055168535098978,1.5777563951139149,-0.4726492992238196,-1.240662299594268,-0.25624075958589765,0.0003191082979923809,0.08012541123822439,0.7938075995389997,0.2761989092485384,0.7773553371641793,0.8927889581793796,0.9854408103015373,0.06367700226931583,-0.08206344359120152,0.0005898773933989346,0.020791812016996775,0.772969562691066,1.4247606419476868,5.582641562715675,1.2039456344439106,1.133762618865042,1.4068634608116146,1.978855569874708,1.796112438369722,1.761089252790455,2.9898789617425203,0.9127342826422644,Relax
99.9391558428663,600.4166666666666,15.797401306566613,,,,,,,11.418479731965766,11.461943976400532,0.02631073083675217,0.019017592891546038,602.0,16.3086,0.0270906976744186,23.25,1.3834942722140284,587.0,614.0,0.0,9.848484848484848,561.0,635.0,4.888888888888889,70.3125,,,0.015446000468023786,0.022343043889480302,0.0026095235144858336,0.04039856787198992,0.6913113783613062,0.38234029772954325,0.5530652462799728,-3.801240241736348,8.104818311293117,20.820351171408305,0.3892738525190256,530.1285657340546,2.568885614918422,3.4313513165772407,213.94040248712284,0.553030303030303,0.5365853658536586,0.803030303030303,0.13513513513513514,50.51813471502591,50.53140779380727,50.50478932748117,43.08943089430895,0.41083138173302114,0.589168618266979,5.195042015081451,6.221241528332279,0.5820055608392547,0.4179944391607454,15.883697865418416,13.460875343783023,0.5594789333255213,0.4405210666744787,11.816943755014643,10.485680978713587,1.1770471972042233,1.2256318474979575,1.191628173301539,1.7676788196763822,-0.9166366692190238,-1.872268066665384,-0.029996999057416273,0.0006649674790550476,0.11199498810266426,0.5799956218856743,3.9104519989797866,1.1293936449554982,1.4236098474845373,-3.5358921224661053,-1.710821277417974,-0.4247615869966443,0.0005098934520803536,0.6516500718843647,0.7801087027852915,1.499234772300486,5.547711214131335,1.2037622208085759,1.8429920161461757,1.3751763926766007,1.911122847661641,1.8121873865639548,1.7721102880600392,2.6668390090073326,0.9072325759779827,Relax
99.8596067872493,600.8636363636364,15.441973496109409,,,,,,,11.393382303132968,11.435514521280282,0.02569963060098396,0.01896167718200509,602.0,16.3086,0.0270906976744186,24.0,1.35534585650331,587.0,614.0,0.0,9.848484848484848,561.0,635.0,5.28,70.3125,,,0.019444248501997625,0.023285825517184267,0.0028041009366271954,0.04553417495580909,0.8350250880153822,0.42702538304182003,0.511392279310719,-3.7599104504305028,8.086129864354524,20.316689696192917,0.39800430017247146,516.1114952061303,2.512535667495701,3.419713642058277,204.18563002850843,0.553030303030303,0.5403225806451613,0.7761194029850746,0.13157894736842105,48.917748917748916,48.921975065623116,48.91398570579718,45.16129032258064,0.3900617465451337,0.609938253454866,5.050894817904889,6.316035757681212,0.5623009073749599,0.43769909262504036,15.234820431436145,13.441284411591306,0.5387422087831133,0.46125779121688665,11.349257509626845,10.501438813933905,1.036802460627062,1.4696475104383149,1.2262910586218898,1.6761710159647083,-1.1054879128402213,-1.9103896775630074,-0.19388580993231222,0.000715968115330237,0.14854313585606824,1.6269454424357137,2.0656395056552896,2.454729691823517,1.4219099389958723,2.807174668858387,1.150752859038437,-1.0,0.0016475718284010958,0.312094549703465,0.8270929154310855,1.5618098634448456,5.564867748271414,1.226571521414044,1.3594718889965827,1.354498865399793,1.7767485986883813,1.8298830624128928,1.7883047731233341,2.7472317035178393,0.9072325759779827,Relax
99.96707154939055,600.236641221374,15.350185196110928,,,,,,,11.13587411511518,11.178950425588702,0.025573555731079747,0.01855247305871843,600.0,16.3086,0.027180999999999997,22.0,1.3784445690954328,587.0,614.0,0.0,8.396946564885496,561.0,635.0,5.038461538461538,70.3125,,,0.018733446609012255,0.023248406898431124,0.0029958140478325707,0.04497766755527595,0.805794852561551,0.4165055154536308,0.516887783695312,-3.761518669793994,7.904711652482011,20.3052738052287,0.3892935268100897,504.2486627711992,2.568755787423697,3.4096148651324456,208.63715840961606,0.5648854961832062,0.5491803278688525,0.7910447761194029,0.16216216216216217,49.955396966993746,49.957364854616195,49.95345154547367,45.90163934426229,0.4121332423546927,0.5878667576453074,5.074636734239814,6.0607390753549915,0.5591890617656271,0.440810938234373,15.184069534092774,13.481401139686582,0.5398358001339048,0.46016419986609525,11.320510271199362,10.451811680964155,1.1028096804449874,1.5681893895235766,1.3598177787578396,1.762857408575969,-0.8914216967613289,-1.6423987510807576,-0.2429904624335109,0.0010508090632571593,0.1830199689741534,0.29087047549289613,2.1310898502741065,0.672089741586719,0.8087668937298327,-1.2533101187305338,-1.1315672782034014,-0.4358651386165,0.0006124919215209672,0.23391314471227134,0.8358661400582545,1.5841201044498106,5.542602536014635,1.2095600149635433,1.4240095707518716,1.1815094738028378,1.531248717769256,1.8271707963742596,1.7695939255966115,3.341994410400756,0.9664245345623977,Relax
100.07317848087462,599.5984848484849,15.53025112407613,,,,,,,10.860672100440306,10.902266945223857,0.0259010846700197,0.018113241402177217,599.0,17.7912,0.029701502504173624,23.25,1.4299530434627994,586.0,613.0,0.0,8.333333333333332,561.0,635.0,5.5,70.3125,,,0.013645175912291049,0.02039452934809143,0.0028611361606039817,0.03690084142098646,0.6690605936227697,0.36977953311738543,0.5526846695829688,-3.8924885833069633,7.709066887273735,20.6443928739614,0.37342182617523795,499.98134654427224,2.677936665466158,3.4059239118097935,221.13750645387802,0.553030303030303,0.5403225806451613,0.7611940298507462,0.16666666666666666,50.27272727272728,50.27608350893216,50.269229346528874,45.16129032258064,0.414638881698162,0.5853611183018379,4.9641019018859485,5.898174424214796,0.5558291219210819,0.44417087807891814,15.391210006843423,13.758692221999569,0.538550149155324,0.4614498508446758,11.435288653266799,10.58513280970468,1.1572113691149504,1.5366051655640023,1.1870626048876058,1.8669864714480133,-1.064966932997903,-1.9479119721000266,-0.05751556626399518,0.0011970043190741126,0.18376109928363796,1.2141461784771028,1.3704055425051456,0.4153839818291374,1.1005867530817102,2.7773500805597164,-0.12363739687997022,0.0,0.00011976988623797329,0.05277069246181019,0.8026138423929066,1.5645425925262093,5.646344168742349,1.1798754109705525,1.1268114779501097,1.2738805845665244,1.771690315792737,1.8839791782196669,1.754193223504435,2.9848171606105693,0.8538659538616307,Relax
100.03639905354889,599.7954545454545,15.48884781583318,,,,,,,10.971510643549808,11.0130281040747,0.02582354984262286,0.018292087011336878,599.0,17.7912,0.029701502504173624,23.0,1.4117333810307273,586.0,613.0,0.0,8.333333333333332,561.0,635.0,4.888888888888889,70.3125,,,0.011441545585701266,0.02041613324431782,0.0021626374692614815,0.03402031629928056,0.5604168746736435,0.33631508552268297,0.6001159149936994,-3.8914298453756446,7.787386853789246,20.5411592880548,0.3791113609794072,502.535298916313,2.637747382237692,3.408136682693427,216.729556560776,0.5378787878787878,0.528,0.7575757575757576,0.16216216216216217,50.66904549509367,50.6669122189538,50.67085010066323,44.800000000000004,0.41664024351575873,0.5833597564842413,5.02685097941353,5.948173604625981,0.5565759213654806,0.44342407863451944,15.324529776062239,13.678377536821461,0.5389893313138839,0.46101066868611623,11.404175630589195,10.54700861075289,1.1054821081412962,1.589592362309177,1.3537428614120657,1.7209410278218367,-0.9358356805044359,-1.547602829572317,-0.2689985337647523,0.0007445857952810461,0.1676102450640496,1.3254925633734052,2.0453664962031564,1.5541019761395543,2.3481758114749836,-3.4097661485166135,-4.392692523424523,-0.11176941305654517,0.0011336254886272115,0.25936133813360124,0.7945355884593024,1.5093544538771178,5.660739127302123,1.1916683948053983,1.5595194985584542,1.2499551695394595,1.5682391062236247,1.8699683049175226,1.7479237570882868,3.111577232220148,0.8538659538616307,Relax
100.33710601365422,598.0151515151515,16.86632891656943,,,,,,,11.360840738698714,11.403206480065647,0.028203848805228974,0.01899758009460881,597.5,18.5325,0.03101673640167364,25.0,1.4846021790550443,583.2,613.0,0.0,9.090909090909092,551.0,635.0,5.739130434782608,78.125,,,0.008488302190739991,0.01714576054013576,0.0015225837703638,0.02715664650123955,0.49506711416329985,0.3125681291448319,0.6313651628286707,-4.066004334754758,8.0632846293248,22.495446136670523,0.3584407519787123,569.8446480511989,2.7898613494131657,3.462726583722062,251.03670285801124,0.5151515151515151,0.5079365079365079,0.71875,0.13157894736842105,49.054982817869416,49.06829305932431,49.04211704056358,46.82539682539682,0.41536550745209366,0.5846344925479063,5.1972625930905645,6.1659736270301035,0.5518166331031842,0.44818336689681576,16.71059848009715,15.059913523152106,0.5362783794490685,0.4637216205509312,12.374482615943256,11.506959331075487,1.1307890665295615,1.4356510848718953,1.2899378045841918,1.7611247954161358,-1.1783220087428496,-1.9932035264604817,-0.17179560841972374,0.0007025537022180192,0.1404032332460671,0.41047267558089695,4.676371045429131,0.9123311928505178,1.744804252056611,-6.474732817639522,-4.894306364501323,-0.32198310375311534,0.0005734416406156837,0.853680287644184,0.743620180066193,1.5550438403683018,5.702479847031873,1.181154909060694,1.5633291592585354,1.2426304052033605,1.6835361725105331,1.886497054000807,1.7749694787726493,2.488978112471466,0.7471327096289269,Relax
100.06597821408886,599.6439393939394,16.907531442443478,,,,,,,11.149572955913452,11.183847718673583,0.02819595151671496,0.018593655707055647,599.0,19.273799999999998,0.032176627712854754,26.0,1.5164286120461814,584.0,615.8,0.0,7.575757575757576,551.0,635.0,5.5,78.125,,,0.015573756276723172,0.024165484298635888,0.0032499830157581523,0.04298922359111721,0.6444628249226643,0.36227116881313365,0.5621288844032336,-3.7228299325602,7.90817456163179,22.36987294335967,0.35351897534935584,555.7630090554842,2.828702473500259,3.451859747225554,253.11085970707208,0.49242424242424243,0.48412698412698413,0.7049180327868853,0.13157894736842105,52.44215938303343,52.46017930933565,52.42430768342833,44.44444444444444,0.4535462081670249,0.5464537918329752,5.329886706834612,5.850378028548504,0.5800000943314768,0.41999990566852297,17.036389059766186,14.497332972182646,0.5659330502485335,0.4340669497514667,12.62232634072288,11.054401530233493,1.2157070919469113,1.5573040269905267,1.3209170330487856,1.9842021650605157,-1.7137459402478132,-2.693432059484495,-0.07408115530689188,0.00106031482765136,0.17912296731781607,1.9045256573870204,2.114038120499579,3.0726988135840347,2.015679753334245,3.9618140532568127,2.6213870290684618,-1.0,0.0011084597094093366,0.2823872767039594,0.7801606786027375,1.5848968035179827,5.708955248336974,1.1529222351019484,1.5895606855636368,1.3778675352420398,1.8499793573803909,1.8963173583448754,1.7301391595013478,2.364877573056327,0.8538659538616307,Relax
99.98220384747675,600.1679389312977,16.46588672739245,,,,,,,10.857468184830909,10.89933611409823,0.027435465407753695,0.018090716748656217,599.0,19.273799999999998,0.032176627712854754,24.5,1.5165493876737421,585.0,616.0,0.0,6.106870229007633,551.0,635.0,4.851851851851852,78.125,,,0.014318068168181786,0.012972103808296142,0.002472550222504025,0.029762722198981954,1.1037583710226593,0.4810738773307349,0.435850716932736,-4.344954088079405,7.706994476710292,22.031906851180754,0.34981059645762125,533.4417552944117,2.858689845666661,3.4340571171615597,251.92955358457664,0.48854961832061067,0.48412698412698413,0.6885245901639344,0.13157894736842105,50.310559006211186,50.31603030546628,50.30492008049361,46.03174603174603,0.4257748776508972,0.5742251223491028,5.028985750071142,5.840250605220888,0.5504968283090746,0.4495031716909252,16.346677602188137,14.771291442159896,0.5368985705446082,0.4631014294553915,12.09348101880302,11.231642310922503,1.2503943090677583,1.805647826360666,1.4191389312571303,2.1512962331558523,-1.6212498565952487,-2.6174058784107705,-0.09451821600538488,0.0025356644205875955,0.29250397771151737,0.6617714640867245,1.0671790446879186,1.1633889147157395,1.1953609864306838,-0.9580377462700778,-1.9023383832084446,-0.4700405739092318,0.0007405724331535093,0.08489063847190162,0.8336642687663862,1.670062534250535,5.580797479355475,1.149560217240616,1.5862638725801275,1.3648402746186301,1.7206795153197945,1.865168719389679,1.69382489046845,2.844147991800255,0.9127342826422644,Relax
99.96597358911652,600.4621212121212,17.374371449130788,,,,,,,12.917530546503357,12.943075150940329,0.028934999953132864,0.021512648492177024,599.0,19.273799999999998,0.032176627712854754,25.25,1.3450226718321059,585.2,616.0,0.7575757575757576,6.0606060606060606,551.0,663.0,4.888888888888889,85.9375,,,0.02105600116680938,0.011359543723776424,0.0021497847136300583,0.034565329604215864,1.8535956794406718,0.6091653517529664,0.3286398207060905,-4.4776970316563,9.152136208637003,21.945753330753014,0.41703449732171805,630.9905296759479,2.39788316415598,3.5069929510754307,210.49340974613074,0.48484848484848486,0.4803149606299213,0.6885245901639344,0.1,54.2809642560266,54.20060763258867,54.36976457904478,44.881889763779526,0.6133400430028819,0.38665995699711786,7.180904164197195,5.701551745594554,0.5687804522623054,0.4312195477376945,16.550946107786082,14.411185662235356,0.575402926447747,0.424597073552253,12.757335177814838,10.9587856192899,1.1889586849165095,1.7043763122692452,1.3213784595885674,2.0395479093185296,-1.5099595799035122,-2.506761716438307,-0.07863211043236396,0.002381807680350388,0.26381925375307547,0.9079992140446004,1.074510997434714,-0.06300143952539061,0.4742540591919664,1.0,-2.792194192921648,0.0,0.0017014112180235201,0.152195020874514,0.8241357928195954,1.6990500711237877,5.623643695845762,1.116229277886725,1.2398476485288936,1.374681239269801,1.6826057513242356,1.8125019644900715,1.7111639491966206,2.0167506107156434,0.8538659538616307,Relax
99.72814257282897,601.7272727272727,16.944494437481634,,,,,,,12.7357164416629,12.784275426463672,0.028159758092203953,0.021165263764661112,600.5,17.7912,0.029627310574521233,22.5,1.3304704541042054,587.0,616.8,0.7575757575757576,9.090909090909092,551.0,653.0,4.714285714285714,85.9375,,,0.010233560428814386,0.016257140056996935,0.002630419251750351,0.029121119737561672,0.6294809783846298,0.3514136997834839,0.5582594420649208,-4.119223078586196,9.039847846609003,21.979272785479242,0.41128966981024234,624.2007879237659,2.4313764079252764,3.502294422497974,213.75954125587322,0.5151515151515151,0.515625,0.7272727272727273,0.1282051282051282,50.482315112540185,50.46298949792964,50.50216829543914,46.875,0.4374999999999999,0.5625,5.979451994442814,6.780061265890653,0.5498770165036152,0.450122983496385,16.298442434592552,14.74615903836593,0.533617086569257,0.4663829134307431,12.275851741275904,11.476463679069699,1.1297144884261943,1.9985666165066582,1.1469974032529162,2.0637124965566627,-1.7066875463381042,-2.576116946092383,-0.04131371667455623,0.0025198789398731907,0.331810289914457,1.5030014500823317,2.2310987958468083,3.015507512879622,2.618550848005736,-3.2507991350306753,-4.3137608006389385,-0.6779198059775843,0.005118922697038316,0.5474987650143857,0.7801314277082758,1.670062534250535,5.6664579720154835,1.1385829047518488,1.4607552234284076,1.333885045989369,1.7025024327004743,1.7899380932412916,1.720142209902745,2.3744673412642183,0.8538659538616307,Relax
99.7506408592531,601.5419847328244,16.95979841225657,,,,,,,12.330075799879303,12.376608633392355,0.028193873150498858,0.020497448412276197,599.0,19.273799999999998,0.032176627712854754,24.0,1.3754820884736643,586.0,617.0,0.7633587786259541,7.633587786259542,551.0,654.0,4.678571428571429,85.9375,,,0.051166205856388355,0.02446820641288424,0.004531669855414674,0.08016608212468726,2.091130219885906,0.6382525439724794,0.305218937540534,-3.710380701603225,8.751583892763703,22.363103717310764,0.39134030782986995,614.8491981540825,2.5553207272345095,3.495738720956021,228.57960981655722,0.5190839694656488,0.5158730158730159,0.7384615384615385,0.10526315789473684,49.080267558528426,49.06960335872179,49.09127857799406,48.41269841269841,0.42688726978344443,0.5731127302165553,5.71852694210641,6.625941501039215,0.5349299377629549,0.465070062237045,16.356129111047967,15.25075238714234,0.5205786572403134,0.47942134275968684,12.252030645669876,11.75773254392873,1.187748273970857,1.5402237182998622,1.4179516392159268,1.9578601331207879,-1.2838284435255023,-2.251297788692722,-0.1494609922636266,0.001711228560050372,0.20718971038356837,1.0174266444891313,4.325495271074612,1.5779725676313845,2.689428973930509,-6.7797304409177634,-6.846661677780408,-0.2430452846101487,0.0018989698347910628,0.8602760110631191,0.7808591617847789,1.575536360758419,5.678728177243342,1.12355895335297,1.420639112002236,1.4272330428163957,1.8571401294395093,1.7371180992064978,1.685698094799901,2.7797193839339274,0.9127342826422644,Relax
99.86769813256,600.8473282442748,16.897643569191146,,,,,,,12.405023796213186,12.451266959504146,0.028123023561688207,0.02064588326033118,598.0,17.7912,0.02975117056856187,24.5,1.3621613184127384,586.0,617.0,0.7633587786259541,7.633587786259542,551.0,654.0,4.366666666666666,78.125,,,0.046210399083157834,0.024646645668953176,0.005257825956272037,0.07611487070838305,1.8749163559148347,0.6071139404572143,0.3238085467343331,-3.7031144660915487,8.804375301429387,22.251214515304152,0.3956806625262558,615.4632702555601,2.5272905519704136,3.496172250086475,224.94113685758046,0.5190839694656488,0.5196850393700787,0.7424242424242424,0.10256410256410256,48.8833746898263,48.88717182342642,48.88020637618332,48.031496062992126,0.4218445388652836,0.5781554611347164,5.719204693450077,6.695480368453117,0.5348354237215173,0.4651645762784826,16.27285679969767,15.175990214236943,0.51953621500127,0.4804637849987301,12.196621883723544,11.729026735986164,1.2636642476662303,1.6340290348859519,1.265571729113784,2.0508054424996534,-1.7411277649955181,-2.6813811197764124,-0.019449350885815047,0.0013187317302039822,0.2023617283279986,1.4777092489676715,1.1768047675618691,0.36579225158599105,0.889306865186737,0.9614162883825248,3.5587850204348,-0.05513894230274458,0.0019543918882528395,0.19433337318210092,0.7768113992506294,1.604017844964761,5.671441013561028,1.1283031625470894,1.474476168450115,1.2832287114825975,1.586068713864387,1.707819449734722,1.6854289699515124,2.523517797167592,0.7516635268818649,Relax
100.16745445150167,598.969696969697,17.21970263059434,,,,,,,13.108181700026744,13.157999158963836,0.028748871132733646,0.02188454902867968,597.0,16.3086,0.02731758793969849,24.25,1.313660660544491,585.2,614.8,0.7575757575757576,9.848484848484848,551.0,654.0,4.4,78.125,,,0.06275216935872108,0.02766292646394892,0.005157463330290887,0.09557255915296088,2.2684573680409925,0.6565919121019685,0.2894442370186538,-3.587662157042416,9.304110432150217,22.361920541653287,0.41606938075017125,653.6327874980891,2.403445305677155,3.522303939092562,214.98261180704856,0.48484848484848486,0.48837209302325585,0.6984126984126984,0.10810810810810811,49.42352036894697,49.448598349045675,49.39791716413348,49.6124031007752,0.44688791150206586,0.5531120884979344,6.220004946819699,6.919871052600286,0.48856942983189416,0.5114305701681058,15.630477465057131,15.991987510173855,0.48241818269837766,0.5175818173016223,11.89538329193558,12.321288080192183,1.161722215540519,1.9735116019617003,1.3938017152207174,1.9624478240925267,-1.632336835076634,-2.2038444800702885,-0.21186077228704076,0.0014937503304271564,0.2677148700041325,1.4596790903722208,1.8782115094961176,2.28645633642034,1.347350581672281,2.954396207666111,1.0849590710625687,-1.0,0.0005714888013760479,0.2001470300513478,0.752672670022767,1.5881605139868153,5.698449021458846,1.1525509570803072,1.7398260138046893,1.4711899023595831,1.7491958187073724,1.7063181103512013,1.7075444082965732,2.3228963628418735,0.8004993317452788,Relax
100.31155258828073,598.1969696969697,17.200408034366305,,,,,,,13.703791195496631,13.755780293593439,0.02875375320453322,0.022908493171469254,597.0,16.3086,0.02731758793969849,22.25,1.2551568970212228,585.0,613.8,0.7575757575757576,11.363636363636363,551.0,654.0,4.258064516129032,70.3125,,,0.06465970763992386,0.023078016771870113,0.003211242458679014,0.09094896687047299,2.801787878009424,0.7109449382972148,0.2537468820809937,-3.7688747694628018,9.726805526112198,22.37233501550076,0.43476934881285045,683.6462243436523,2.3000701469193428,3.541801529573222,205.83175954412636,0.48484848484848486,0.48837209302325585,0.6825396825396826,0.1111111111111111,49.38628158844765,49.386096634280655,49.38684046219904,48.06201550387597,0.432177553757977,0.5678224462420226,6.394709351667805,7.329865147253603,0.5341876689515553,0.4658123310484447,16.35152427335006,15.269218316071235,0.517969453369883,0.4820305466301169,12.4150041029849,11.976559419565545,1.3162342236121822,1.5524869966691335,1.4295086035126086,2.092477721946749,-1.6602391006594672,-2.6771175328239725,-0.07296317466327056,0.002220685885302755,0.21973586518609842,0.8295315580337925,0.5208183222502072,1.0253795098148952,0.9444481776677867,0.9421306399685374,0.20893017730240526,-0.6553926363370685,0.0005955944064229043,0.0361973222279152,0.7448621118322101,1.6852759888256048,5.6862547754403865,1.200642765385231,1.6143322964748144,1.488161851450426,1.7773928723045176,1.728890454517965,1.69276528174656,2.956322215598077,0.9072325759779827,Relax
99.96793010203366,600.2727272727273,20.72137625078457,,,,,,,14.644906365106882,14.687690229399896,0.03451993620454798,0.024397087689864563,597.0,17.049899999999997,0.028559296482412056,25.0,1.4149203644043469,585.0,615.6,1.5151515151515151,12.121212121212121,551.0,692.0,4.125,70.3125,,,0.06551597763057485,0.023349915116869083,0.002639656912631499,0.09150554966007543,2.805833653041548,0.7159781879236115,0.25517485227518205,-3.7571619301256978,10.385765361176063,26.297201501519304,0.3949380454257093,858.0209924508913,2.5320427129832117,3.640468023444593,266.3425497350925,0.49242424242424243,0.4921875,0.6984126984126984,0.14705882352941177,52.81207133058985,52.61578337341663,53.02289644011358,46.875,0.508257403189066,0.491742596810934,7.411010519698168,7.289613263984691,0.5928429272628108,0.40715707273718915,20.247870552669866,16.779944722609592,0.5814117214207977,0.41858827857920217,15.246300187926781,12.936479552650617,1.4004249314485437,1.6486349229009716,1.4556380881477349,2.2247423928990298,-1.864364245259086,-2.869006700809615,-0.03349022632738905,0.0022428202039013675,0.2389150606081484,0.9162849132064265,1.974645834715369,0.06254596883499852,0.22068345174304999,1.0,4.347287442777089,-0.41991602740708905,0.005453832357823394,0.4497138530061395,0.7611687897434924,1.4296936766544461,5.77200588467511,1.0984094269423235,1.4497123201942417,1.401119075885565,1.7016705142232174,1.674892250539609,1.6800712884354752,2.4411436196978977,0.8004993317452788,Relax
99.49166607854106,603.1679389312977,22.7812853935167,,,,,,,15.027410852275148,15.081177676010865,0.03776939045182165,0.024914140627071372,598.0,19.273799999999998,0.032230434782608695,27.5,1.5159820688650179,586.0,619.0,1.5267175572519083,12.977099236641221,551.0,690.0,4.225806451612903,78.125,,,0.06300828519165669,0.022436471272507197,0.002822123858228289,0.08826688032239217,2.808297455797546,0.7138383611329729,0.25418901393771537,-3.797067462363784,10.66400300298646,30.372645340390857,0.35110550574286026,1017.5429516240533,2.848146735506824,3.7145228603009297,346.02300269976314,0.48091603053435117,0.484375,0.6774193548387096,0.11764705882352941,51.58462575859743,51.62310218855413,51.54516648834358,46.875,0.47440133528630296,0.5255986647136969,7.3471504785895565,7.733446938486589,0.45457460696045016,0.5454253930395496,20.477889957491755,22.431085748621815,0.45675163518405015,0.5432483648159497,15.383832377957393,16.777362865069293,1.3392610892406096,1.476337684138441,1.456089355581136,2.0322099933967657,-0.8823484764295006,-1.7267667896361907,-0.10976364418155372,0.0027952402350168177,0.22305631012081958,1.5179183040313047,0.4246278984340528,1.5696563482719206,1.7302322532483312,0.5336547352364871,-0.4842193919167743,-0.12184325248391827,0.0005578002480169448,0.023909624341155695,0.7161928453490622,1.4534336639575192,5.847925101185178,1.050576017317129,1.3183722516228176,1.4309389268821562,1.7715779489565389,1.6380185830264682,1.6611649704225648,2.0758531845425816,0.8053537788019982,Relax
99.16277906847506,605.1145038167939,22.656512468866616,,,,,,,14.96945608178919,15.025458419481366,0.037441694631279505,0.024738220596876293,601.0,19.273799999999998,0.032069550748752076,26.5,1.5135160786789688,588.0,621.0,1.5267175572519083,13.740458015267176,551.0,690.0,4.678571428571429,78.125,,,0.0551923780084971,0.01411760165882356,0.001968091177469834,0.0712780708447905,3.9094726811477662,0.7743248008027555,0.19806374515332964,-4.260332915534864,10.62460353885178,30.244417276357044,0.3512913950951651,1009.50349572038,2.8466396101991034,3.7110779371240072,344.37982482507215,0.4961832061068702,0.49606299212598426,0.6984126984126984,0.15151515151515152,51.05513955071478,51.039824395664056,51.069227232352866,46.45669291338583,0.46761182245717614,0.5323881775428236,7.266254166515448,7.7532188864222835,0.4578372396119223,0.5421627603880778,20.464483052972145,22.269479332957474,0.4589112160805468,0.5410887839194531,15.355675111140298,16.673963428978055,1.3649641430733588,1.2647884509100347,1.4031854661276209,1.997358368528376,-0.6096235877157152,-1.6093435563918637,-0.0302195383162783,0.0023674790134374014,0.1789307872671345,0.977865964637593,1.8258647482097285,-0.05560376447811466,0.8573286096267496,3.359840032989063,-0.453067487628076,0.0,0.000942014862377802,0.109186877498057,0.7263952745952618,1.4694718675987986,5.885303703874031,1.0339674019336833,1.1628424210702097,1.411514720421945,1.8152894959665817,1.6758772238695319,1.6300882789465023,2.398338287871136,0.9127342826422644,Relax
98.98661320376553,606.2,22.661102828312412,,,,,,,14.92487648138155,14.982818810094582,0.03738222175571166,0.02462038350607316,602.5,20.0151,0.033220082987551865,26.75,1.5183444135421575,589.0,623.0,1.5384615384615385,13.846153846153847,551.0,690.0,4.482758620689655,85.9375,,,0.05611398880737489,0.010597045747827605,0.001415681291882047,0.06812671584708455,5.295248330779195,0.8236708332356266,0.15554904733135028,-4.547180019744156,10.594452781907236,30.35867926132901,0.34897607668336506,1010.441735917391,2.8655259394967802,3.711481386250433,347.9743316488049,0.5,0.5,0.7301587301587301,0.11764705882352941,50.38220986796386,50.391228973448335,50.37275935837309,46.03174603174603,0.46093614059509297,0.5390638594049069,7.1929327294226795,7.778676783361036,0.457011693496468,0.5429883065035319,20.52326864977986,22.370624721299382,0.45743775575986495,0.5425622442401349,15.377627211651298,16.747427607265706,1.399508176400342,0.9683489107281193,1.4681427951425863,1.8155297782447652,-0.5591983641467309,-1.3632139459563533,-0.14125845627174577,0.0004523314993861147,0.06525027063734652,1.374690097147748,0.9980965607872128,0.8722002788465797,0.8756418167541417,0.9643960104186506,2.8888219759377263,-0.49655189884148326,0.0020510700311177454,0.10984939350986517,0.7602079036938698,1.4539530095937054,5.884572405349724,1.0248571024753597,1.0907987477083083,1.3527655317412544,1.8553108829494631,1.6570434369218816,1.621382188250567,2.257797788809654,0.7022367813028455,Relax
98.86333336743859,606.9230769230769,22.768336297278616,,,,,,,15.136587431444626,15.195591721020211,0.037514369057620026,0.024939877897183795,604.5,20.0151,0.03311017369727047,28.5,1.5041921701571819,589.0,623.2,1.5384615384615385,13.846153846153847,551.0,690.0,5.0,85.9375,,,0.05673984605745281,0.014953812489495863,0.0020148694372832863,0.07370852798423196,3.794339811155789,0.7697867208742907,0.20287764385546875,-4.20278899563671,10.744905950075552,30.482187580452994,0.352497861963353,1028.9603085573508,2.8368966394013584,3.7193687324336655,345.8992620343557,0.5076923076923077,0.504,0.7301587301587301,0.15151515151515152,50.06784260515603,50.069774823218836,50.06586355826991,48.0,0.46474489105427,0.5352551089457303,7.325042661991805,7.861098841765061,0.4571107218045332,0.5428892781954667,20.60899601791592,22.45958688007079,0.4579544652951648,0.5420455347048349,15.465881269207944,16.82602029333508,1.3865954700547158,1.2216782694401749,1.47223248193406,1.8128509796272518,-0.6467629559921075,-1.1121834837481952,-0.22118805235908978,0.0007707512616376681,0.09642951386464842,0.9783323540048301,0.6380352508104363,0.9686104029469567,1.1716510282466004,0.9581902770054673,0.20958817933236307,-0.18177208854567162,0.0020790343254640203,0.08813355880549587,0.7533583150459799,1.56754697072494,5.929958055579648,1.0561072259238506,1.293577031068752,1.343285237845985,1.8069010304577842,1.739160272564062,1.6284588866771226,2.497200811750873,0.7022367813028455,Relax
98.98035220721016,606.2290076335878,23.166144025444403,,,,,,,14.893726092656495,14.950893580089865,0.03821351953426535,0.024567821574216792,603.0,20.7564,0.03442189054726368,28.0,1.555429707873217,589.0,623.0,1.5267175572519083,12.977099236641221,551.0,690.0,5.038461538461538,85.9375,,,0.039852645981458705,0.012149773310830638,0.0012895307167798758,0.053291950009069215,3.2801143660789926,0.7478173715669363,0.22798515176800607,-4.410444766914437,10.57187823527996,31.040897196243602,0.3405790164003156,1030.946884518227,2.936176193616705,3.72020640050732,364.56617350445595,0.5114503816793893,0.504,0.746031746031746,0.14705882352941177,49.48524365133838,49.46639006412713,49.50416779871029,48.8,0.46797517078752987,0.5320248292124701,7.2323026451046415,7.711362802972621,0.45409179217195705,0.5459082078280428,20.917322458022642,22.93475353987623,0.4555348788355117,0.5444651211644884,15.649929398615285,17.109471590524574,1.4404881017081816,0.9121856643544746,1.5358008080797552,1.8533327923413125,-0.15391828347927294,-1.018541354089237,-0.15189983062684406,0.0007023052715768594,0.07390062554055378,1.3645526445185048,1.6825833693560512,-0.002270079680545267,0.8368433734733107,2.3848611006334197,-0.7991595598997883,-0.001294575688694265,0.0063288561009846945,0.2854570542717983,0.7501791883022704,1.582769665351939,5.907292898692629,1.0206649515616038,1.5222081384372284,1.2325666423716137,1.8851157597588022,1.7342602142859251,1.5984714624223062,2.2774471944945986,0.7516635268818649,Relax
99.2497158836241,604.6030534351145,24.76370774690345,,,,,,,15.080297895445721,15.138438874085551,0.04095862170428332,0.024942477233228406,602.0,23.7216,0.039404651162790696,31.0,1.6421232470733975,585.0,623.0,1.5267175572519083,13.740458015267176,551.0,690.0,6.238095238095238,93.75,,,0.04062561509251762,0.011899632733077967,0.0017651577104744476,0.054290405536070035,3.414022600847898,0.7483019272259137,0.21918481940924098,-4.431247742107476,10.704492784443936,33.40916359748984,0.32040588963586647,1123.5219708417856,3.1210412553167353,3.7575516795714585,417.08551157356743,0.5038167938931297,0.496,0.7419354838709677,0.1935483870967742,50.34106412005457,50.355124416532796,50.32685970534021,51.2,0.4928291164930319,0.5071708835069679,7.514843193111501,7.62340337839783,0.40439316215937554,0.5956068378406244,21.245526833662844,25.783711948514163,0.41262692780190846,0.5873730721980914,15.93495024555995,19.012049875193885,1.3942475468579814,0.4137446965285889,1.468953326912993,1.5188009359497707,0.7429563479739443,-0.037200809799585066,-0.37952085076857706,0.000151870214953222,0.014417955492347152,1.465059902658313,1.453894775653442,1.7601145558000957,2.0287018246925577,0.13890634458608453,-0.45735912256869415,-0.3152636123396568,0.0033514239999594925,0.2311449263659376,0.7299126040019472,1.6349169977350853,6.034233284059733,0.9778456006085988,1.322296806242783,1.2377744117653724,1.8431355828159695,1.7766775655467772,1.6168333571770266,2.154374196653372,0.6979732749617317,Relax
99.25268880294395,604.6076923076923,24.465605078202667,,,,,,,14.626354041870432,14.679200401200491,0.040465256048630986,0.024191478586790622,602.0,25.2042,0.041867441860465114,32.75,1.6727070196828069,583.8,623.2,1.5384615384615385,13.076923076923078,559.0,690.0,6.5,85.9375,,,0.0355581853397327,0.007727161647195974,0.0011217988314352627,0.044407145818363934,4.601713664503968,0.8007311590160366,0.17400716719786385,-4.86301367046227,10.379762146085156,33.02579851037764,0.31429254141496504,1076.9377518621027,3.181749065688725,3.7391607113061234,420.3192142160726,0.5384615384615384,0.532258064516129,0.7727272727272727,0.21875,48.39400428265525,48.372617603667216,48.417117874859066,51.61290322580645,0.46280392796318437,0.5371960720368156,7.063329597293333,7.609872288678701,0.4210133338198585,0.5789866661801415,21.428967797205072,25.129717594800184,0.42477223503283956,0.5752277649671604,15.954486608061885,18.566271336006185,1.425261277838822,0.7930897604258687,1.4988543620856412,1.7961230891475968,-0.05735073898452647,-0.9704420375463778,-0.12517644042922707,0.0005767003178160865,0.05775412215955684,1.1989325046706918,1.7225645409387624,0.06335259936399584,0.9246348698333771,2.858393103288498,-0.567526796645236,0.0,0.001472212348806176,0.1326262060176464,0.744327400339698,1.567389676190601,5.994300578476574,0.935312242954391,1.2603513080618343,1.2193935591886262,1.828758370583363,1.7408310298108933,1.6359542461552672,2.693124666241409,0.6482185673564728,Relax
99.67739359066356,602.0076335877862,25.12262118343243,,,,,,,14.603476930564804,14.65967741528085,0.0417313997061949,0.024257959726411493,599.0,26.686799999999998,0.04455225375626043,34.0,1.720317791638459,579.0,621.0,1.5267175572519083,12.977099236641221,559.0,690.0,6.894736842105263,85.9375,,,0.023935803841796055,0.005797414352619771,0.0007079934824855506,0.030441211676901378,4.128703312534458,0.7862960284185537,0.19044624156727694,-5.1503432621011465,10.365957310352368,34.09541314277138,0.3040279132839917,1110.3381090486312,3.2891716724243754,3.7524253558969862,448.58266827523744,0.5267175572519084,0.52,0.7538461538461538,0.18181818181818182,49.57507082152974,49.564636209072496,49.58597489900687,49.6,0.47020631943442504,0.5297936805655751,7.108243931024437,7.545212558844153,0.4402244469485699,0.5597755530514302,22.62210613082322,25.509557259624035,0.4427613668451242,0.5572386331548761,16.767331594162133,18.81047240422442,1.3942937677177594,1.065104196853495,1.4123330353238435,1.8786052938372402,-0.8970149064298738,-1.6961039610297304,-0.0622285031916625,0.0010433862749051196,0.09528188444498424,1.1686697374155515,1.0331392708447182,0.5923690841973119,0.6521001019931923,0.9917096762512332,3.0390750964878874,-0.4421849314206758,0.0020163814483759542,0.10419409876738543,0.8867368243753573,1.4541169574586517,6.0161834521772874,0.9269546811755012,1.26318219734231,1.2026788324292732,1.6355155392602418,1.7294987382881253,1.6633306386915507,2.2782103296874543,0.6979732749617317,Relax
99.73078290265386,601.7480916030535,25.237439682238396,,,,,,,14.69903188858159,14.755822153238645,0.04194020726348463,0.024427218122825205,598.0,28.1694,0.04710602006688963,35.0,1.7169457059170805,578.0,621.0,1.5267175572519083,12.977099236641221,559.0,690.0,7.277777777777778,85.9375,,,0.016048382759014664,0.0051077369267413,0.0004461821176618166,0.02160230180341778,3.1419752013840343,0.7429015160076872,0.23644410550421927,-5.276998844342259,10.43394190653773,34.17599055406908,0.30530035084222124,1120.2614669455957,3.2754629899419885,3.7562895079882543,447.7687688178411,0.5343511450381679,0.528,0.7575757575757576,0.1935483870967742,49.789621318373065,49.781390455321024,49.79782281070366,48.8,0.4679578467673027,0.5320421532326973,7.137628207892908,7.61068200755721,0.44205741359144385,0.5579425864085562,22.722726970908436,25.527945654857714,0.44426573676078135,0.5557342632392187,16.84143784580993,18.83611544317888,1.359475443226503,0.8347598374389751,1.4145751328185658,1.747158784794613,-0.31382590310341385,-1.2241753157173978,-0.10158163215373826,0.0005046053553914045,0.05723315312076387,1.0732896394518419,3.6315619811674744,1.0361825006145633,2.686896763276887,-6.284743773638581,-6.880396040121197,-0.04545336931530162,0.0017713797037626896,0.6492998480163894,0.8616014016628553,1.3862943611198906,6.039995784076247,0.931100305471265,0.8697765333855966,1.2103467954635112,1.5149079622075148,1.738202298592958,1.6612722831243352,2.145852844913727,0.7516635268818649,Relax
99.74069282244399,601.6590909090909,26.492064070382092,,,,,,,20.190126829072813,20.267561417238305,0.04403168583450354,0.03355742003094488,597.0,26.686799999999998,0.04470150753768844,36.25,1.3121296510250144,578.2,621.8,3.0303030303030303,13.636363636363635,553.0,690.0,6.6,93.75,,,0.01342421844946475,0.004174589019583971,0.0004866782643395113,0.018085485733388234,3.2156982128033706,0.7422647446334184,0.23082537461944522,-5.478739363947699,14.331330116244038,34.76671773924798,0.4122140670203523,1565.3089351166154,2.4259240040700183,3.9015701742567286,337.3656604254744,0.5378787878787878,0.528,0.7575757575757576,0.1875,50.21806853582555,50.20164130661501,50.234107146496434,49.6,0.5654201232186663,0.4345798767813338,10.776398713427842,9.447628925169125,0.4308275401353356,0.5691724598646646,22.81998845279518,26.229235394399787,0.45037602116332665,0.5496239788366735,17.844924239352693,19.71332647833093,1.1049203614018321,2.736536697935468,1.39016901688696,1.638312335329114,-1.79906130924312,-0.750056621651106,-0.4093221301839799,0.001541378067560101,0.3581644201778286,1.2052627529645583,2.731116386189518,-0.9470459811973206,0.41851221189743815,2.848291658589188,-1.3236096273984064,0.0,0.006057754886152573,0.5011623620877147,0.8014033885607326,1.303406701314123,6.084029301400056,0.8877268130084408,1.3138331758441122,1.2191544661744242,1.5999400133995876,1.7092396417766174,1.716040462251757,2.3802406004177317,0.7471327096289269,Relax
99.83265406070056,601.5757575757576,30.66691810133375,,,,,,,29.271954636550575,29.36330832031362,0.050977649473303126,0.04865880027232364,595.5,26.686799999999998,0.04481410579345088,36.25,1.047655289238572,577.2,620.8,5.303030303030303,15.151515151515152,553.0,765.0,6.6,85.9375,,,0.014924257621958575,0.003948874576568777,0.0006432113013821733,0.019516343499909525,3.779369876803339,0.7647056233678077,0.2023368043602575,-5.534324657990119,20.762994431365133,35.42096641832661,0.5861780897266111,2310.469641124008,1.7059661859186723,4.070670376355168,241.70788392890407,0.5227272727272727,0.5158730158730159,0.7384615384615385,0.1875,53.7084398976982,53.20670631423459,54.26944984750022,50.79365079365079,0.7289459851933683,0.2710540148066318,17.73978579352073,10.817542732489239,0.4394282994582418,0.560571700541758,23.48034195100857,26.520150902133413,0.5135465477742367,0.4864534522257632,20.808969918478578,20.252624948894383,1.0596368461767083,1.9313793762639757,1.3792943216527498,1.337964921301069,-0.4409045406630838,0.10716463019726774,-0.5213989032189148,0.0006817877028541691,0.195160486469379,0.9322789259658171,0.6827983040248604,0.4951955059605222,0.5920776602944482,1.0,2.072853901481086,-0.35811014209783604,0.00038982984455696355,0.03957392662962292,0.834494148668449,1.182114010513437,6.0745966309619,0.8300737107074175,1.0113417744195803,1.227373735809313,1.4485735566608446,1.5852860996652072,1.7740834739950628,2.1440884038390022,0.7471327096289269,Relax
99.41779998993368,603.6488549618321,29.518683435338463,,,,,,,22.96971249945659,23.058103735631096,0.048900421482957826,0.03805144714622036,599.0,29.651999999999997,0.0495025041736227,38.0,1.2851133176367273,578.0,628.0,3.816793893129771,15.267175572519085,553.0,690.0,7.277777777777778,93.75,,,0.013268784326280666,0.005415130093263479,0.0007971678055726868,0.01948108222511683,2.450316815617648,0.6811112531096095,0.27796864828596574,-5.218558374207709,16.30454151276761,38.58019897733279,0.42261424111231505,1976.1637420006382,2.366224094502858,4.002793036701823,365.15758556351744,0.5267175572519084,0.52,0.7538461538461538,0.21212121212121213,50.539466212379324,50.50779757036465,50.56919241568916,51.2,0.6181166076192974,0.38188339238070235,12.818953989906854,10.075874940368875,0.4154877142937747,0.584512285706225,24.868154474960644,29.495875069915883,0.44619469239763737,0.5538053076023628,19.783208642506075,22.040076020218702,1.0883164400252945,1.1407858931107344,1.3781825342892828,1.0058466620007291,0.7348589768124141,1.2285007331907916,-0.8263854107393065,0.000941147559458416,0.10481528403917431,1.249166819912345,1.1960514612587105,1.5030034352519017,1.6659012751925368,0.931153000967909,0.29373555166623566,-0.36380365292208805,0.009560460420029615,0.33115920843428553,0.8059886410647783,1.4311896810277815,6.05622247887833,0.8745273753072008,0.9010706845575228,1.155844289811025,1.5708087670703894,1.6972177064688951,1.703587632659686,2.5703735682798943,0.6979732749617317,Relax
99.53385946684591,603.0,29.75670577301087,,,,,,,22.986618180685372,23.07491623156235,0.04934777076784556,0.038120428160340586,596.0,29.651999999999997,0.04975167785234899,39.5,1.294522993295904,577.0,628.0,3.816793893129771,15.267175572519085,553.0,690.0,8.1875,117.1875,,,0.010603974648938726,0.007001064402009753,0.0010135660816079153,0.018618605132556393,1.5146232115640454,0.5695364702910356,0.37602518299116455,-4.961693084056418,16.316429742649273,38.79620622140165,0.420567661939286,1988.6770740363756,2.377738686300522,4.005534377073105,368.98896165727876,0.5648854961832062,0.5528455284552846,0.7794117647058824,0.25,50.62571103526735,50.630987368995804,50.620762410991816,50.40650406504065,0.6195370505168147,0.38046294948318543,12.843120198538536,10.064520537184613,0.42183258259156037,0.5781674174084396,25.19760827675269,29.49959583290673,0.4515476763124504,0.5484523236875494,19.99831492029746,22.03997195946786,1.1630528720354523,1.8802985324806563,1.4668733672474703,1.3889931465162964,-0.5249838195611183,0.18670701311173366,-0.5414190722302099,0.0003819049308562638,0.16621868737728374,1.1773494971839429,1.4880953638394872,1.4450005042899612,1.7428346397121173,-1.6448006432714752,-2.6448006432714752,-0.2998554779085504,0.006481371336717431,0.2982937268101164,0.7670686355267637,1.2710283164726612,6.077252154467366,0.8661237615532109,0.8414183083531301,1.1304282896945366,1.506563070757053,1.6859254449794263,1.6632082167596531,2.188722150819805,0.5905927711214654,Relax
99.20848011808623,604.7938931297709,32.45273902325608,,,,,,,26.993873948902383,27.086624220960747,0.05365917115220057,0.04463317876642364,597.0,29.651999999999997,0.04966834170854271,41.5,1.2022260711703316,578.0,630.0,6.106870229007633,17.557251908396946,553.0,742.0,8.1875,117.1875,,,0.012312647573242195,0.006845779534627198,0.0012911128370678962,0.020449539944937287,1.798574948398876,0.6020990010726598,0.3347644765143978,-4.9841229429236265,19.153135666093128,39.995618797034034,0.4788808435066261,2406.5903891738644,2.088202135373501,4.088372287956147,334.075746310204,0.5648854961832062,0.5564516129032258,0.782608695652174,0.25806451612903225,52.560914967677775,52.24463001080418,52.905232789849386,52.41935483870967,0.6630316594001711,0.33696834059982905,15.60249930287209,11.122991065021951,0.456601661883286,0.5433983381167138,27.025962158881125,29.482993273146267,0.4951375011665986,0.5048624988334014,22.066270812139944,22.28191893191592,1.014027996211016,1.9388491751703225,1.409102567536221,1.3293756718911955,-0.5149760753663379,-0.03438960285376558,-0.5411207311357892,0.00074376367474385,0.20497019702559405,1.1278640667287185,2.101806463281338,1.557974725708756,2.066629031540942,-2.8728359112140645,-3.8728359112140645,-0.2579918442928014,0.008310905901903006,0.4995435418640741,0.8097328603215801,1.1926848445520846,6.025688127733291,0.8137306730317074,0.9030633760577367,1.2501928748714517,1.406588211750878,1.6049337991923145,1.6971674255315201,2.567432851555615,0.5905927711214654,Relax
98.983173585868,606.3076923076923,33.29986990542974,,,,,,,28.4540974011605,28.563247937724764,0.054922393906443365,0.046930127659868884,599.5,30.3933,0.0506977481234362,43.0,1.1703013958218758,577.8,633.0,6.923076923076923,19.230769230769234,553.0,728.0,8.125,54.6875,,,0.01910103832167807,0.005816735731081407,0.0013817896866916632,0.02629956373945114,3.283807139391381,0.7262872689034461,0.22117232775066556,-5.14701604553395,20.197266309477847,42.66593021673956,0.47338159995287404,2707.2208320652812,2.1124606450684853,4.139493793229773,360.52039387240256,0.5846153846153846,0.5772357723577236,0.8028169014084507,0.25806451612903225,48.99853444064486,48.92824710917122,49.07182470985725,55.28455284552846,0.6489951456775467,0.35100485432245343,16.271980326622817,11.966750812146127,0.3816743188558487,0.6183256811441513,26.358924631299192,33.54979423992312,0.4306168483043415,0.5693831516956585,21.903997939514504,25.187217179962328,0.9590203445714457,2.061122154563813,1.3641585457502452,1.4736143080389354,-0.7383295132834462,-0.6550192837833118,-0.4468950629411608,0.0008798750039411031,0.25407327132900825,1.8108095728961262,2.764781989196942,-0.9208445981061533,0.46154639649231766,1.0662556363893247,-2.7778541628274076,0.0,0.01047015275620807,0.853765751550176,0.7801046219376668,1.1257325948873038,6.049264017151393,0.7961991895776175,1.0255572065248952,1.230028424097006,1.4082966007481146,1.6131528409568856,1.7105890934705579,2.6692743140479145,0.6482185673564728,Relax
98.49469655436049,609.2538461538461,22.113628874331138,,,,,,,16.501820430467053,16.565424087351293,0.036296248294421275,0.027085295455484226,609.0,20.7564,0.03408275862068966,26.75,1.3400720828050638,593.0,625.0,1.5384615384615385,13.846153846153847,556.0,683.0,5.2,78.125,,,0.04249329415501037,0.015916796603282286,0.0010566934819084294,0.059466784240201076,2.6697139640678453,0.7145719193990618,0.26765860650864187,-4.140380337199827,11.713523705397074,29.090701183519744,0.4026552550762488,1070.5122043335816,2.483514091503997,3.736561732778158,288.9886652840131,0.4846153846153846,0.48800000000000004,0.7704918032786885,0.020833333333333332,50.62111801242235,50.62586225886167,50.6156995685063,49.6,0.560663857891141,0.439336142108859,8.7711797239596,7.764351631012083,0.4772235578867391,0.522776442113261,20.096254704975564,21.03353137686548,0.4888653652041741,0.5111346347958259,15.504725842743117,15.853936394971196,1.2365434332433003,1.6660938505970853,1.4530526652838947,1.6035897899166511,-0.529221278358099,-0.3512295607857139,-0.40964667171731783,0.0005059657898357465,0.1448555509105336,1.4211046979194022,2.635160863450516,2.150014430277544,2.5639906460451005,-5.771842708743316,-6.771842708743316,-0.34290286733179154,0.005390467745275673,0.5571662205534179,0.8481226721969888,1.9066894359020319,5.840153655266515,1.1569586113412014,1.3393443024571732,1.2320395619986673,1.6257845658133832,1.8013073624299498,1.6222615444640092,2.4598765799110125,0.9183096370883364,Stress
98.45856277240978,609.4615384615385,22.110418410015473,,,,,,,16.669147102244885,16.733671029515044,0.03627861155246764,0.0273506136979911,609.0,20.0151,0.03286551724137931,26.5,1.3264276974937605,593.0,625.0,1.5384615384615385,14.615384615384617,556.0,683.0,4.814814814814815,78.125,,,0.057794828146484206,0.023246486396244038,0.001377903374880799,0.08241921791760903,2.4861747776137983,0.7012299995889214,0.28205177122018504,-3.761601281111156,11.832492259114963,29.046359713342724,0.4073657551544951,1079.736575524239,2.454796426422113,3.7402879230869868,285.2116000995398,0.49230769230769234,0.49193548387096775,0.7704918032786885,0.020833333333333332,50.49079754601227,50.482585223710785,50.498307227356975,50.0,0.5592846780493247,0.44071532195067514,8.849214301281215,7.8553823108745,0.4851837545920882,0.5148162454079119,20.23228047471081,20.84096541404776,0.4957308900025881,0.5042691099974119,15.61495704376679,15.748855047900067,1.2830612852939842,1.2311067121415977,1.405513496354795,1.539335515422814,-0.4449790962586313,-0.5217100278786386,-0.39129941560043474,0.00016682373634558138,0.06575155894524873,0.9402620739436978,2.118967342539783,-0.8597594077795407,0.19972426349035077,1.0,-5.234151961004063,0.0,0.008628190998617766,0.4675839904520935,0.8647445482236757,2.012000260884303,5.768467913582025,1.1556587720050686,1.5266397533715672,1.2111235144873942,1.4178810986032462,1.796159042415818,1.634718937830402,2.728751992799443,0.8642914231419636,Stress
98.22148091363073,610.8992248062016,21.587338940207054,,,,,,,15.800514232138143,15.857355033593002,0.03533698859587734,0.025864354693117535,610.0,17.7912,0.029165901639344263,25.0,1.3662428084966087,595.0,625.8,0.7751937984496124,15.503875968992247,556.0,683.0,4.777777777777778,78.125,,,0.05484846482427146,0.024010472242204463,0.0009154085176914699,0.07977434558416739,2.284355937317278,0.6875451553081383,0.30097987098962503,-3.7292652003791145,11.212843275936246,28.334629959137633,0.3957292998746298,998.1209469253266,2.5269799338002215,3.7061532799061756,286.40416535358156,0.4806201550387597,0.4796747967479674,0.7627118644067796,0.041666666666666664,48.391089108910904,48.373905627016626,48.409561160560344,50.40650406504065,0.4809738390286645,0.5190261609713356,7.778933797354368,8.080792819917189,0.4852735624590551,0.5147264375409446,19.738350706185226,20.328521006725918,0.4846910551056633,0.5153089448943367,15.001904872781738,15.468483747919867,1.2596689074795544,0.383711826073978,1.2752409628809676,1.3942894854871164,0.3084314175233347,-0.5084239307852654,-0.18974497391905562,3.952877056383599e-05,0.007505777239919236,1.999269640443726,2.4293771174850822,-0.26550189851881034,0.9491866602237307,1.3292111570450915,-1.3058891235966157,0.0,0.007883765840957544,0.652483382594653,0.8982604660835984,2.001480000210124,5.755510690156727,1.189569001190177,1.7591353730403725,1.317556164444066,1.5287425037718247,1.8180490649743213,1.6712673794890194,2.64593336923071,0.9239601809472505,Stress
98.60247430432446,608.5,20.21905233979525,,,,,,,15.536154383349047,15.596163312735584,0.033227694888735004,0.025531888879784793,608.5,18.5325,0.030456039441248972,24.0,1.3014193757925787,593.8,624.0,0.7692307692307693,16.153846153846153,556.0,674.0,4.482758620689655,78.125,,,0.05144305103136645,0.024809501196709192,0.0008403589086882636,0.0770929111367639,2.0735221810178923,0.6672863986171926,0.32181300240039956,-3.696528586409628,11.028152838928179,26.462090772688683,0.41675289128364146,916.8046427257422,2.3995034489620406,3.6692469138707358,253.9835123032523,0.46923076923076923,0.46399999999999997,0.7413793103448276,0.02040816326530612,49.47368421052631,49.47678575601355,49.47129812406319,48.0,0.49006005716671475,0.5099399428332851,7.72045780702155,7.875496016124953,0.5260218017557042,0.47397819824429577,19.19225596408734,18.218110743734357,0.5206998146799293,0.47930018532007046,14.627852845531468,14.034297213807488,1.225576821460814,0.8575264511449943,1.343482440859124,1.287094858847286,0.425324177416206,0.40970145209598474,-0.5657560847674701,4.282795685834364e-05,0.03245885125049612,1.5111283281484609,2.4851036714485817,2.512240060924225,2.412231420695251,-6.180281209849371,-7.180281209849371,-0.5402432467417662,0.006465049106974578,0.5893191346829395,0.9215022454832731,2.053054786506641,5.764696952076848,1.242314376709673,1.4246892894368473,1.3442207473765622,1.5350715872993055,1.8653972975350286,1.6810839411148453,2.8472760508290906,0.8642914231419636,Stress
98.4431549418476,609.5968992248062,20.4845671252794,,,,,,,15.719215947368367,15.777862494073453,0.03360346345483154,0.025786246562864257,610.0,17.7912,0.029165901639344263,23.0,1.3031545080789366,594.0,624.0,0.7751937984496124,17.829457364341085,556.0,674.0,5.16,78.125,,,0.05470022200267039,0.030318946648156257,0.0011775201209403485,0.08619668877176699,1.804159710343921,0.634597718103842,0.35174143090850346,-3.49598245996725,11.156633562188233,26.441995648178064,0.4219285756881576,926.7813187849429,2.3700693852484833,3.673947381054715,250.67745748248186,0.4806201550387597,0.48,0.75,0.02,51.233045622688046,51.30884321131231,51.1610163545129,44.800000000000004,0.4922536992538258,0.5077463007461742,7.829129938285044,7.951377833358121,0.5726738597603207,0.4273261402396792,20.010037812320398,17.28518211092309,0.5605166333234953,0.4394833666765049,15.193697523003465,13.45365991202012,1.2672900469584043,0.3629818719989002,1.2949483642003345,1.4089408928419114,0.3851025553594303,-0.475928756883472,-0.18595531227542345,3.3057325975834256e-05,0.007264863895192123,0.8453503453742399,1.6933851767102774,-0.422818538713742,0.42387404964139674,1.0613635250377425,-4.667146917573034,0.0,0.004776579776869253,0.3072224158253148,0.9107564636646113,2.042301994730379,5.724502938218744,1.2375354795670153,1.5920118740278713,1.325889181905592,1.472599970567385,1.9000848254390508,1.6967644548722172,2.1913191330798547,0.8696095820680005,Stress
98.27014968017731,610.5307692307692,18.772067514888764,,,,,,,14.530107742468806,14.575073796135328,0.03074712768128034,0.023799140804608154,609.0,17.7912,0.029213793103448276,23.0,1.2919427610313927,595.0,624.0,0.0,16.923076923076923,572.0,676.0,5.0,62.5,,,0.05931793886530728,0.03194893262734909,0.0013937747911902463,0.09266064628384661,1.856648532118085,0.6401632326586533,0.34479505495224133,-3.443616506311347,10.306133517541646,23.866502049067424,0.4318242152265608,772.7418072473797,2.3157571176858163,3.5950045192505256,221.07608797756401,0.5,0.496,0.7903225806451613,0.04081632653061224,47.56966947504861,47.66518610357788,47.469771344748416,45.6,0.3975766476959795,0.6024233523040206,6.503604769664282,8.005613265078447,0.5495752084817529,0.4504247915182471,17.69303508641823,16.017691141013827,0.5256540420019438,0.47434595799805623,13.329297910415734,12.662074735976582,1.175804274789627,0.6456050646713605,1.2983150606432434,1.3633206920023793,0.4044549981861625,-0.2866556162162528,-0.3993105306690455,9.434018359592948e-05,0.025656426971080705,1.8024669472993267,2.5124489275780544,-0.16433015133892148,1.0918943124501057,2.1827821107884855,-0.6539309084276015,0.0,0.0022176809573649483,0.4461714041982219,0.7064452652087105,2.153549513833558,5.67519332112762,1.2577919805628666,1.5815579375434012,1.3634984054611388,1.7528192733151327,1.9427586735362667,1.6897732283440867,2.2470840597472117,0.9183096370883364,Stress
98.53699992193616,608.9846153846154,17.684129711393034,,,,,,,13.92282159766152,13.97585386583123,0.029038713400377607,0.022862353573362942,608.0,16.3086,0.02682335526315789,23.75,1.2701541557038456,594.8,623.0,0.0,16.153846153846153,572.0,664.0,4.482758620689655,62.5,,,0.07222069951871121,0.0394139463857993,0.0018847027852472048,0.11351934868975772,1.8323640777248347,0.6361972681510577,0.3472002512410065,-3.233635556127837,9.882421041401487,22.89377247886319,0.43166415891157695,710.7724537702311,2.316615774915059,3.5587006981898757,212.14429788740284,0.5,0.496,0.7903225806451613,0.04081632653061224,49.18918918918919,49.15961143811834,49.218123058044064,45.6,0.4447732544189396,0.5552267455810603,6.591305826617363,7.364399160827717,0.561536590205338,0.438463409794662,17.155619001307116,15.159470801975369,0.5431941593537907,0.4568058406462091,12.995394873146598,11.917296883017215,1.2384475916287807,0.37977061042984106,1.2654644174490421,1.4133140830349535,0.5921277164079104,-0.3778346559745942,-0.11068692119548522,0.00011343482865495746,0.01312401431130123,0.8575867056799915,1.5801218929986751,1.1905777498054748,1.1063384168187027,0.20073433106011862,0.5891935691951349,-0.5533119206562647,0.000653930396492346,0.15566911866489783,0.7270527817333337,2.230841188135204,5.559514041109804,1.3040205545125656,1.785478804737925,1.3106592843783988,1.7141673295071698,1.9632871149849171,1.7065514354840345,2.853426344000488,0.8642914231419636,Stress
98.23412115586846,610.7751937984497,17.55671181756314,,,,,,,14.157595134767769,14.210099200615687,0.028744965407610675,0.023179715349473818,610.0,16.3086,0.026735409836065573,22.0,1.2400913891405136,597.0,623.0,0.0,17.05426356589147,575.0,664.0,4.777777777777778,62.5,,,0.055426320001853824,0.025799862440673203,0.0015565020066958565,0.08278268444922288,2.1483184311275565,0.6695400175848506,0.31165771697701206,-3.657386118825632,10.04805750608889,22.593351292754143,0.444735151323539,713.202143252885,2.248529258422645,3.5601827495709726,203.20724571031514,0.49612403100775193,0.496,0.7903225806451613,0.04,51.26329787234044,51.23560274088139,51.290996151196566,45.6,0.4789912690988463,0.5210087309011537,6.955709148877599,7.2543769030819245,0.5536322504784267,0.4463677495215733,16.8109147370423,15.094789443436738,0.5413023586724828,0.45869764132751734,12.864461591141028,11.842268629651535,1.2124718651737456,0.41591068951210675,1.283823594529668,1.3629179605648722,0.5906573281268672,-0.2860389195365691,-0.30982848474515634,7.236910310472353e-05,0.01261736525117283,1.4562527934068752,5.497647937927387,1.6804536978053948,4.134897467744027,-6.732930413061549,-7.5925718238084645,-0.05354657161550489,0.022929699234882358,2.6868625518868656,0.7229654308564468,1.864080130807681,5.625103224799419,1.3248847018312206,1.7129500802160362,1.2943513948798153,1.700140874041109,1.9464207369434765,1.7215031253222661,3.1072911173681397,1.0870119775850005,Stress
98.25082189389713,610.7441860465116,17.679118628062778,,,,,,,14.393737787663078,14.449679773990361,0.02894684719391895,0.023567539595975646,610.0,16.3086,0.026735409836065573,22.0,1.2282507079721579,597.0,624.0,0.0,18.6046511627907,575.0,664.0,4.961538461538462,62.5,,,0.03595240611853977,0.02505166889766073,0.0011650939641660015,0.0621691689803665,1.4351301809635895,0.5782996090858769,0.40295968739058163,-3.686814831009347,10.217466554162684,22.897908019796716,0.44621834210046724,735.002648386107,2.2410553436524743,3.573259013913197,205.26191650491313,0.49612403100775193,0.496,0.7903225806451613,0.04081632653061224,49.44042132982226,49.4365814510637,49.444578470718795,46.400000000000006,0.4575964402880955,0.5424035597119047,6.911988899816109,7.525285460355807,0.5478914284593298,0.4521085715406702,16.948960187655658,15.396328790992166,0.5328969970750481,0.46710300292495166,12.943006644399082,12.117690817564558,1.1238729279112252,0.5890808578879596,1.2490981939136367,1.1818081179363378,0.8217248771267069,0.4394621332833042,-0.6142289298256188,0.00012590280150433838,0.022643121782806936,1.5344789514646058,2.3087920142415888,1.657679824849768,2.452521513783035,-5.900145337543647,-6.809315006394514,-0.1557326584506731,0.004682877068433463,0.3829140827480768,0.6824007860902173,1.8632184332102,5.620349906566185,1.3364749375717397,1.5838993560910222,1.283678836289075,1.725258676774593,1.9845342733272031,1.7221795921859193,3.4721251780129325,0.9783107798265005,Stress
98.36830586319212,610.0076923076923,17.958391251409466,,,,,,,14.198482285963038,14.253701239713415,0.02943961441448696,0.023275906951680244,609.0,17.7912,0.029213793103448276,23.0,1.2648106248062558,594.8,623.2,0.0,16.923076923076923,575.0,664.0,5.416666666666667,62.5,,,0.05009209863583848,0.0252732724826282,0.001379385374576306,0.07674475649304299,1.9820186986180643,0.6527103729930969,0.3293159511805768,-3.6780078652689316,10.078888803608454,23.401824916002273,0.4306881552949516,740.9898384171254,2.3218655718896244,3.576782362273603,217.3435663674179,0.4846153846153846,0.48412698412698413,0.7868852459016393,0.04081632653061224,50.26560424966798,50.265160821803654,50.26578199651315,46.03174603174603,0.46493116973006243,0.5350688302699377,6.872442706199885,7.3726161401499795,0.5424242811410963,0.45757571885890364,17.235317447427416,15.830010798657998,0.5302988494131304,0.46970115058686934,13.120339863425716,12.347969684033664,1.198256978539111,0.6168079112616041,1.3138210619047683,1.2635775689646456,0.7162705445411985,0.35438422900163236,-0.5814572770919165,6.932173242034922e-05,0.021613668414027887,0.9959915144396512,2.340090599665393,-0.9965147112821424,0.17353058855055403,1.0,-6.295774239436286,0.0,0.007506657059657502,0.5652641914374952,0.7119142995343455,1.9374712804094485,5.613332982820185,1.299436819566708,1.6023558442922563,1.3305424533086117,1.748150457336986,1.956584243620741,1.7075311824145252,3.2532267980371823,0.8642914231419636,Stress
98.55895969178952,608.8153846153846,16.85588003372679,,,,,,,13.75026426807356,13.803862964834806,0.027686356914872298,0.02258527727048193,607.0,16.3086,0.02686754530477759,23.0,1.2258586238858036,594.0,623.0,0.0,16.153846153846153,575.0,651.0,5.0,62.5,,,0.059682274416268014,0.02550080962642705,0.0017956384928680528,0.08697872253556312,2.3404070416030227,0.6861709700538041,0.2931844580265075,-3.669045077265816,9.760805109004533,21.832551560801107,0.44707578414835436,669.4837014714254,2.236757246659925,3.532710118573174,195.33647166679333,0.49230769230769234,0.4920634920634921,0.7741935483870968,0.04081632653061224,50.0691562932227,50.0710772094112,50.06717853161443,46.82539682539682,0.46855268552685536,0.5314473144731447,6.681364007446383,7.115673720737903,0.5182622860450701,0.48173771395492976,15.717349035770848,15.153390608797487,0.5099815987132912,0.49001840128670854,12.076333999029814,11.83761081136713,1.1725155332272572,0.625677280717098,1.277481585682731,1.2718229296137422,0.6247111896046125,0.2025343668111983,-0.5090440491342492,7.964719174632764e-05,0.021738804297755408,1.2649552921889209,5.745131567522195,2.0187069020413793,4.137521075950018,-7.799634292651788,-8.803406359185441,-0.13119832000253775,0.031037960254868827,3.110013824694576,0.7133388448971272,1.9054187877005762,5.449785867982954,1.3444440804608546,1.7259528934812853,1.2731941024352527,1.7408416589256621,1.9815425801499715,1.6878015008450173,3.2501040818334466,0.9183096370883364,Stress
