PPG_Rate_Mean,HRV_MeanNN,HRV_SDNN,HRV_SDANN1,HRV_SDNNI1,HRV_SDANN2,HRV_SDNNI2,HRV_SDANN5,HRV_SDNNI5,HRV_RMSSD,HRV_SDSD,HRV_CVNN,HRV_CVSD,HRV_MedianNN,HRV_MadNN,HRV_MCVNN,HRV_IQRNN,HRV_SDRMSSD,HRV_Prc20NN,HRV_Prc80NN,HRV_pNN50,HRV_pNN20,HRV_MinNN,HRV_MaxNN,HRV_HTI,HRV_TINN,HRV_ULF,HRV_VLF,HRV_LF,HRV_HF,HRV_VHF,HRV_TP,HRV_LFHF,HRV_LFn,HRV_HFn,HRV_LnHF,HRV_SD1,HRV_SD2,HRV_SD1SD2,HRV_S,HRV_CSI,HRV_CVI,HRV_CSI_Modified,HRV_PIP,HRV_IALS,HRV_PSS,HRV_PAS,HRV_GI,HRV_SI,HRV_AI,HRV_PI,HRV_C1d,HRV_C1a,HRV_SD1d,HRV_SD1a,HRV_C2d,HRV_C2a,HRV_SD2d,HRV_SD2a,HRV_Cd,HRV_Ca,HRV_SDNNd,HRV_SDNNa,HRV_DFA_alpha1,HRV_MFDFA_alpha1_Width,HRV_MFDFA_alpha1_Peak,HRV_MFDFA_alpha1_Mean,HRV_MFDFA_alpha1_Max,HRV_MFDFA_alpha1_Delta,HRV_MFDFA_alpha1_Asymmetry,HRV_MFDFA_alpha1_Fluctuation,HRV_MFDFA_alpha1_Increment,HRV_ApEn,HRV_SampEn,HRV_ShanEn,HRV_FuzzyEn,HRV_MSEn,HRV_CMSEn,HRV_RCMSEn,HRV_CD,HRV_HFD,HRV_KFD,HRV_LZC,Labels
87.77122850883731,685.1130434782609,60.61711373447348,,,,,,,84.23853974842731,84.60373902151021,0.08847753565853238,0.12295567943175535,688.0,60.7866,0.08835261627906976,86.0,0.719588847521602,630.0,735.2,42.608695652173914,78.26086956521739,515.0,817.0,10.454545454545455,187.5,,,0.05666476217862037,0.030978357034225096,0.02388187176757784,0.11152499098042332,1.8291726096389411,0.508090264616718,0.27777054059267237,-3.4744664785105943,59.82387757584679,60.8609850530714,0.9829594036915399,11438.350729886291,1.0173360122955877,4.765333518986482,247.66428735309213,0.7043478260869566,0.7168141592920354,0.9753086419753086,0.20689655172413793,50.81767806460332,50.907920323817294,50.72869307980466,48.67256637168141,0.4905539094070282,0.5094460905929719,41.90370334448139,42.70297703659091,0.5330803979909312,0.4669196020090687,44.43603845203921,41.58723347758389,0.5121808913286834,0.4878191086713166,43.188435184047876,42.14879735002343,0.6514467893114031,1.3884276755626486,0.9270980180370125,1.1385800601269884,-0.23470404494924324,-0.7779606687391829,-0.34768234902529255,0.0008340145591868545,0.1437793117463512,0.6543529910341981,1.6650077635889111,6.297493963912604,1.3740912188560501,1.2727901963329464,1.1614692084521483,1.5792554778671013,1.7357228384911656,1.9616657472692132,3.4812502109523162,0.952416007087913,Relax
87.94416270918032,684.2521739130435,63.51292774582733,,,,,,,88.0313939216543,88.41825734338498,0.09282093673537778,0.12865343696056938,688.0,63.751799999999996,0.0926625,87.5,0.7214804277932054,630.0,735.2,43.47826086956522,79.13043478260869,515.0,817.0,10.454545454545455,187.5,,,0.018353051994646447,0.019942284193360166,0.0121957067668492,0.050491042954855805,0.9203084168641595,0.36349124360643464,0.3949667708625196,-3.914912967681184,62.52114934820476,63.29789863362769,0.987728671848669,12432.719012740763,1.0124237844876605,4.801536228393863,256.3371923390946,0.6782608695652174,0.6902654867256638,0.9743589743589743,0.15625,49.587947463301575,49.5763762537333,49.59435246356183,47.78761061946903,0.4432336554809235,0.5567663445190765,41.62479902420322,46.65221541941843,0.56790143608386,0.43209856391614004,47.70081243778583,41.608370121986084,0.5063358909421508,0.4936641090578491,44.76601054946784,44.20229444128442,0.6384227836241747,1.2056465037588802,0.909949067801342,0.9269852346353182,0.36850450132543955,0.14898031655979604,-0.4858696833766265,0.0006900160418761558,0.10846605188192052,0.6208522453344716,1.637608789400797,6.356232116105329,1.3709231470669994,1.4490328776582153,1.2533002191459155,1.5858584455473235,1.7257325221558044,1.9766299639958318,4.243046097161732,1.0119420075309076,Relax
88.08735788185972,682.591304347826,63.46996743206674,,,,,,,86.59955228602716,86.98188810823116,0.09298384996672113,0.1268688184780902,688.0,63.751799999999996,0.0926625,88.0,0.7329133437368546,628.8,733.4,40.869565217391305,80.8695652173913,515.0,817.0,10.454545454545455,187.5,,,0.03803629071371285,0.03111129635788696,0.03765047764361749,0.1067980647152173,1.2225877789264912,0.35615149783040206,0.2913095517306131,-3.4701842988061817,61.50548292173976,65.53535550365565,0.9385084196012167,12663.080424630232,1.0655205420798588,4.809509475097111,279.31707008660567,0.6869565217391305,0.6991150442477876,0.9873417721518988,0.12121212121212122,50.01980198019802,50.075975255682735,49.96592967902188,48.67256637168141,0.45361375814237465,0.5463862418576254,41.42447013135734,45.46359041141983,0.5515265706541369,0.4484734293458632,48.66972358276007,43.8878209457733,0.5056729401937726,0.4943270598062273,45.19252548423239,44.68265256486908,0.5665904502598248,1.2577613951540387,0.8724364531103146,0.8674570991432178,0.45310036430686296,0.24352380818606112,-0.5039589018921089,0.0009922193680619517,0.12863440927894923,0.610899640887308,1.5817863811035904,6.373623420453155,1.339495628990983,1.2958977171970767,1.2858162483991333,1.6393322638960872,1.719958564339026,1.9547771830379415,4.530786918179494,1.0714680079739023,Relax
88.64974747798243,678.2413793103449,66.30228806985737,,,,,,,89.28167444276764,89.67077082075352,0.09775618252203282,0.13163702063349744,683.0,71.9061,0.10527979502196193,99.25,0.7426192271109254,615.0,733.0,45.689655172413794,79.3103448275862,515.0,817.0,9.666666666666666,187.5,,,0.033647835487617,0.026905315336494817,0.03923174637906508,0.0997848972031769,1.2506017887839627,0.33720368944315293,0.2696331417941093,-3.6154314157416683,63.4068101215796,69.249252433683,0.9156316912200829,13794.338129946114,1.0921421894730359,4.846670977270069,302.520120689174,0.7068965517241379,0.7192982456140351,0.9878048780487805,0.16666666666666666,50.388373841142574,50.46016717347618,50.316720483129906,46.49122807017544,0.46043918882064827,0.5395608111793517,43.025899992625824,46.576196766837434,0.568950181544008,0.4310498184559921,52.23387069107302,45.46517035327388,0.5194634960738812,0.4805365039261188,47.85188249978874,46.024036223018136,0.566818804969556,1.4728990328506542,0.8355737359064325,1.025526672990546,-0.27069409965960745,-0.563497164564644,-0.3710346514951009,0.0008360503593092543,0.1485754357692306,0.5948686148904714,1.5629178967992077,6.372940801106101,1.3711623062776048,1.7321667263538572,1.2372152886477845,1.6795098607211016,1.7178331496579142,1.9707226546821064,4.196730545941562,1.1232899905812401,Relax
89.21272637316014,674.1282051282051,67.79031291562933,,,,,,,93.00908372396974,93.41015454175336,0.10055997123386497,0.13796942928130615,679.0,74.13,0.10917525773195876,103.0,0.7288569051687026,609.4,731.0,50.427350427350426,79.48717948717949,515.0,817.0,10.636363636363637,187.5,,,0.020330413293774396,0.017900625902656273,0.02050398506183057,0.05873502425826124,1.1357375660678752,0.34613782067034504,0.30476919229565996,-4.022919600117904,66.05095370815717,69.85832739943376,0.9454986422805843,14495.965565219874,1.0576429782997425,4.868217258640779,295.5406777991025,0.7094017094017094,0.7217391304347827,0.9879518072289156,0.2,50.45699554722288,50.4955599695311,50.41700885583595,46.95652173913044,0.4637999760832302,0.5362000239167696,44.983765187396024,48.36752413866507,0.5501433783646411,0.44985662163535883,51.815074659311826,46.854924448732355,0.5093874868488246,0.4906125131511754,48.51979540550867,47.617230790968755,0.5673742024843568,1.5987425852555193,0.8620393452537825,1.111259547823662,-0.3416567894128235,-0.7108459358474959,-0.34411486572740047,0.0013138669270294043,0.19449492868232626,0.6276027341715373,1.7692866133759966,6.440752219527929,1.395464318801571,1.1769739301314033,1.2755722825275972,1.692836511597272,1.7469756658373814,1.982145240074771,5.55931037275148,1.0569791876282162,Relax
89.15829216263887,674.957264957265,70.27708622038529,,,,,,,98.81526651561349,99.24161111303988,0.10412079381771658,0.14640225632932477,680.0,78.5778,0.11555558823529412,114.0,0.7111966470209441,606.4,735.8,50.427350427350426,79.48717948717949,515.0,817.0,11.7,187.5,,,0.037649831015883185,0.02647645575123535,0.03654594469201789,0.10067223145913642,1.4220117439293778,0.37398427024204306,0.2629966115530312,-3.6314994031239802,70.17441619390873,70.5479334002526,0.9947054833736272,15552.957212239999,1.005322697738044,4.898783087173685,283.69375490314326,0.7094017094017094,0.7217391304347827,0.9879518072289156,0.2,50.4391328515842,50.4559372387798,50.42199152732243,46.08695652173913,0.4654627930116,0.5345372069884001,47.87751582673364,51.30717383521063,0.563823698748204,0.436176301251796,52.97316960802985,46.59242651682114,0.5149031538851973,0.4850968461148029,50.48966834937732,49.006531685490145,0.5384987488088312,2.0441146692417975,0.8380042960994352,1.3666535204620547,-1.2920294467234505,-1.8170074087307484,-0.24137985881256568,0.0022367418746209893,0.3231518266825082,0.6388408865332695,1.6607312068216507,6.457846236621946,1.4228009993069917,1.212239402437471,1.363713275038341,1.7974681382612157,1.731725474156802,1.982103636034579,6.295216102356921,0.9982581216488708,Relax
89.08521513417286,674.6923076923077,72.07807806032307,,,,,,,98.17678460044797,98.60080002777332,0.10683103577519094,0.14551341920029912,679.0,80.0604,0.11790927835051547,114.0,0.7341662120394415,606.4,739.2,51.28205128205128,78.63247863247864,515.0,857.0,14.625,195.3125,,,0.016027037871061026,0.021441065807377268,0.02757594463498374,0.06504404831342203,0.7474925927211404,0.24640283448891356,0.3296391655092114,-3.8424472328501103,69.72129433005723,72.24699508180824,0.9650407501531233,15824.686028295457,1.03622567217118,4.906305212061519,299.4567641639787,0.6923076923076923,0.706896551724138,0.975609756097561,0.22580645161290322,50.39749188220802,50.38372570591814,50.42529542650167,45.689655172413794,0.455986877586449,0.544013122413551,47.081474248278425,51.42550542965672,0.5890637921163195,0.41093620788368046,55.44992370476436,46.31343497827208,0.5248908121614871,0.4751091878385127,51.43617042634246,48.93626910677953,0.5401420616714714,1.697277198297964,0.8945785878893548,1.1517403972788005,-0.23818375093651767,-0.6932818900091862,-0.34848567479293985,0.0021280596193923714,0.2537693541681811,0.6909930631179821,2.0301704926730535,6.502676257970977,1.4047562743108897,1.472921662637641,1.3441599602855594,1.886940675692533,1.8277255986630712,1.9783328267708202,3.777411305832304,1.1744213195869069,Relax
89.22288731076263,674.1025641025641,71.77063377648997,,,,,,,98.13708743912508,98.55591606141485,0.1064684183066987,0.14558183378188963,669.0,87.4734,0.130752466367713,114.0,0.7313303833375904,606.4,740.8,51.28205128205128,81.19658119658119,515.0,826.0,14.625,156.25,,,0.02857108357952534,0.031885780830546086,0.04045227381923915,0.10090913822931058,0.8960446580048836,0.2831367315277145,0.3159850672600867,-3.44559511055298,69.6895565730786,73.45239332695206,0.9487717610898766,16081.387799658341,1.0539942702882266,4.913293634954211,309.67360682225853,0.6923076923076923,0.706896551724138,0.975609756097561,0.1935483870967742,49.24908221159193,49.37075661303773,49.12662081413933,45.689655172413794,0.4455930675636846,0.5544069324363152,46.52297235261027,51.89345271595068,0.5701263623177798,0.42987363768222014,55.46148740812758,48.1588776855875,0.5111267503885626,0.48887324961143735,51.18771113286681,50.06100246058795,0.5803355111953924,1.6499437846023168,0.9141463791479374,1.1684690018264425,-0.17728734611721464,-0.6125580474231698,-0.34585982561835943,0.0020779193468675847,0.23988970998488598,0.6465664145015855,1.9042374526547454,6.5220323477700415,1.4652552976129112,1.1841805614253713,1.3329955518030983,1.8007822455934723,1.8331077932728044,1.9655709303695532,3.6500868614201067,0.9982581216488708,Relax
89.66978544666247,671.1355932203389,74.51918989405075,,,,,,,107.9934312658932,108.45791992718068,0.11103447745407467,0.16091149442350933,667.0,86.73209999999999,0.13003313343328335,116.25,0.6900344680277385,605.0,734.2,55.08474576271186,82.20338983050848,510.0,912.0,14.75,156.25,,,0.03528968647324977,0.03647186424115876,0.037818980437149485,0.10958053115155802,0.9675865823558618,0.32204339678223964,0.3328316066538814,-3.311214158353677,76.69133065389704,72.52677229599978,1.0574209802264558,17474.087098258846,0.9456971430487803,4.94936460605076,274.35344541950565,0.6864406779661016,0.7008547008547009,0.975609756097561,0.22580645161290322,49.98980839788017,50.12589786457645,49.849953584656156,44.44444444444444,0.42817558089939184,0.5718244191006081,50.183070026069345,57.993273985749475,0.6345587524770193,0.3654412475229808,57.77424377497167,43.84369345648186,0.5256116586249263,0.4743883413750736,54.111938428646376,51.40763213518085,0.543248520254846,1.8646764366370276,0.8654411323662986,1.0364926494151254,-0.4278246999994604,-0.25933642476801433,-0.4082674539732369,0.0012686494861501093,0.22635847189547917,0.6525508012579344,1.992430164690206,6.503364341716389,1.5229243950460016,1.3263647624985004,1.3052363135992027,1.8370861733419643,1.8143847483326054,1.9881033403070696,4.914649810183585,1.0498947024450267,Relax
90.03448090489384,668.1694915254237,76.12633506440157,,,,,,,109.98729530361736,110.45192912400783,0.11393267132057462,0.16460987324117052,665.0,83.76689999999999,0.12596526315789472,116.5,0.6921375314690357,604.4,735.6,59.32203389830508,83.89830508474576,510.0,911.0,14.75,156.25,,,0.02835710260478657,0.032345486128962445,0.0320604782544198,0.09276306698816882,0.8766942778886034,0.30569388793929475,0.34868927019292983,-3.4312808001057786,78.10130807872187,73.34389542939503,1.0648644665172795,17995.84122661297,0.939086645712366,4.962142262786614,275.50509096907643,0.6779661016949152,0.6923076923076923,0.9753086419753086,0.1875,50.781480389265695,50.83384960049576,50.72805188079106,43.58974358974359,0.4380767472602627,0.5619232527397372,51.69714525567352,58.55041299657045,0.6503740347398732,0.34962596526012674,59.14874980138333,43.367642242706545,0.537554909208589,0.46244509079141105,55.54803970732384,51.52137059396009,0.5172209618194937,2.6700482403483052,0.8286432130785722,1.4074433247926357,-2.061622909454215,-1.8568593016325061,-0.28322484853735846,0.002592390195219282,0.4479990068676967,0.7022151258253446,2.0243817644968085,6.530865295087883,1.5616935255891382,1.4780473678982557,1.4154566085015108,1.7923446494334776,1.822458251965245,1.9931132615536078,4.578955986060629,1.224877152852531,Relax
90.2465143734836,667.3949579831933,75.84330618457172,,,,,,,108.353509637886,108.81470793729883,0.11364081384996265,0.16235290414138043,665.0,84.5082,0.12708,116.5,0.6999616942546452,604.6,735.0,59.66386554621849,84.03361344537815,510.0,911.0,17.0,156.25,,,0.02586383811414585,0.03865159843692878,0.039325830025105896,0.10384126657618052,0.669153131049681,0.2490709037641745,0.37221809509202214,-3.253167148091613,76.94361787529763,74.95909285678565,1.0264747736782722,18119.524549486556,0.9742080620418928,4.965116907704162,292.1030103377097,0.6722689075630253,0.6864406779661016,0.9753086419753086,0.14285714285714285,50.25275052036871,50.3489797242596,50.148227408026024,44.06779661016949,0.4367951828274902,0.5632048171725097,50.85281257716771,57.74431558955377,0.6437697058486878,0.35623029415131235,60.143623566811584,44.739357909628936,0.5375780752254661,0.4624219247745341,55.69229750492828,51.652764345540405,0.5457692152823815,2.349947961143372,0.8841737882432736,1.3318790529878386,-1.520032331884055,-1.494727558683545,-0.30948290253766597,0.0019555566716998383,0.3558883162406973,0.6968196854770539,1.9832976811269334,6.585953162449427,1.573501009548852,1.2191650006084267,1.4578054547266142,1.7558338435878975,1.7890858044480038,1.9788473529130275,5.199885009932477,1.158792901396293,Relax
89.74376274185926,670.4745762711865,79.60272209669424,,,,,,,111.36457415205419,111.84349921709125,0.11872593669308255,0.16609813122430853,664.0,86.73209999999999,0.13062063253012046,116.0,0.7147939342721935,605.0,740.6,62.71186440677966,83.89830508474576,510.0,911.0,14.75,117.1875,,,0.023506353831819572,0.042713615723758966,0.04502412872702545,0.111244098282604,0.5503246080557032,0.21130427766248003,0.3839629821552375,-3.1532375401667285,79.08529672803753,80.73610695046696,0.9795530118458371,20059.19153625521,1.0208737943805954,5.009283535235489,329.6855033841631,0.6779661016949152,0.6923076923076923,0.9629629629629629,0.18181818181818182,50.06748939452371,50.2261125608633,49.902672309765585,42.73504273504273,0.4122726978268032,0.5877273021731969,50.77948438575129,60.62949236821619,0.673554490182032,0.326445509817968,66.26041810661049,46.12890588182648,0.5456120347835375,0.4543879652164627,59.029649508300466,53.8693386941124,0.5809028598210003,2.172269916841099,0.8866416172010934,1.3631371404172388,-1.4276377756481597,-1.6531565845394256,-0.2806462633754732,0.0018690383204924843,0.31981728339318066,0.6520166796276925,2.2914117923959205,6.530865295087883,1.5708449701184584,1.2370582309232676,1.3463281715350208,1.751998213098801,1.910869933522453,1.9941116617029178,4.275875427734329,1.108222185914195,Relax
89.78567880326787,670.1440677966102,78.3497828253639,,,,,,,111.39826142975774,111.87713778135875,0.11691483457127787,0.16623031790168333,664.5,87.4734,0.13163792325056434,116.0,0.7033303915139414,604.4,740.0,61.016949152542374,83.05084745762711,510.0,911.0,13.11111111111111,125.0,,,0.03012566951700575,0.05252610610976375,0.04729148396935404,0.12994325959612354,0.573537079905603,0.2318371080626983,0.40422339929766316,-2.9464449737433664,79.10908278494047,77.88933938292075,1.0156599531037642,19357.72171948826,0.9845814998849676,4.993824352248326,306.75361037874154,0.6694915254237288,0.6837606837606838,0.9625,0.21875,49.86512524084779,50.00018521422906,49.72812721893243,45.2991452991453,0.4226692930739985,0.5773307069260015,51.43132347590093,60.10902451035291,0.599268466061494,0.4007315339385058,60.29603204835421,49.30656861648002,0.5095967342034243,0.49040326579657567,56.039238553262464,54.97377800514469,0.5792906107054213,2.213065834996277,0.8307084292710187,1.2762551478114004,-1.4842675163393508,-1.367107457998276,-0.29867444000321325,0.001621052168703111,0.2954523526758852,0.6569344322529727,2.614959778036198,6.490569638289889,1.570297333139709,1.1715743642932894,1.3859198526405252,1.7118298238912204,1.8799386583729158,1.9937326074850144,4.10537659201171,1.166549669383363,Relax
89.02535451961687,675.7435897435897,79.33920562415292,,,,,,,106.0,106.44662070009909,0.11741022309106641,0.15686423313349018,679.0,81.54299999999999,0.12009278350515462,114.0,0.748483071925971,605.2,741.6,58.97435897435898,81.19658119658119,510.0,911.0,16.714285714285715,125.0,,,0.012411985414370604,0.02066464344162299,0.013186909959272797,0.04626353881526639,0.6006387407280507,0.26828871574075963,0.44667234653488974,-3.87933108538346,75.26912733143239,82.29023489224399,0.9146787274333888,19458.755247901583,1.0932800446841315,4.996085165510891,359.86508672024075,0.6666666666666666,0.6810344827586207,0.9620253164556962,0.1935483870967742,51.00747818861654,51.05106655363891,50.966901743182326,46.55172413793103,0.43236103779722806,0.567638962202772,49.49874833727133,56.716188931878364,0.5921455164051895,0.40785448359481025,63.32315203806241,52.55341258743453,0.5193495621494546,0.4806504378505454,56.83285876582353,54.67443306309469,0.5767658622134734,2.1612784490980665,0.8952857475722253,1.2992755381569836,-1.3387757758913388,-1.4312928404969407,-0.31307832373318256,0.0014150085126606845,0.29501563779661544,0.5988783618481257,2.653241964607215,6.5220323477700415,1.5377318369246775,1.31318650644919,1.3735640929150332,1.816572559055111,1.9552886973473964,1.9795660527372458,4.191438717617325,1.1744213195869069,Relax
89.24362575511239,674.4102564102565,79.33996621329499,,,,,,,107.3274878825197,107.79244590555894,0.1176434751090603,0.15914272783127778,672.0,87.4734,0.13016875,116.0,0.7392324909359682,605.0,741.6,59.82905982905983,82.05128205128204,510.0,911.0,16.714285714285715,203.125,,,0.02497693088538323,0.03073044872335711,0.0158199526487882,0.07152733225752854,0.81277468839559,0.34919421844863097,0.4296322504062439,-3.482501300819536,76.22076946050483,81.89666762400067,0.93069439419007,19610.534556090763,1.0744665555552666,4.999459542058761,351.98092149365806,0.6581196581196581,0.6724137931034483,0.9487179487179487,0.1875,49.773941635840536,49.97895808903241,49.56619563353329,45.689655172413794,0.4065824194410227,0.5934175805589774,48.60157449587678,58.715970718291835,0.616271589585045,0.38372841041495503,64.29131431391426,50.73155893234039,0.5189438207780535,0.48105617922194643,56.98897323030472,54.869191214637155,0.6181974675293302,2.207393065803049,0.927118756840907,1.4066056456333205,-1.5405022668920108,-1.7421495826294588,-0.28278137400147346,0.0015852402860116414,0.3157879819148421,0.6010032953956097,2.847812143477369,6.492034270809983,1.5215769774478325,1.4097122953192271,1.344858863362307,1.9828592075575575,2.0476347474122494,1.9809017911050646,3.8760289495749363,1.1744213195869069,Relax
88.7811882709368,677.5726495726495,77.71292399498476,,,,,,,102.99330410106849,103.44013036397017,0.11469312411591424,0.152003337451751,683.0,78.5778,0.11504802342606149,116.0,0.7545434596284453,605.0,740.0,56.41025641025641,82.05128205128204,510.0,911.0,13.0,234.375,,,0.029120766109409772,0.034961123873793666,0.022987666103301777,0.08706955608650521,0.832947081865359,0.33445405510598625,0.40153097644208896,-3.3535185812917923,73.1432176271838,82.31543800729503,0.8885722945518633,18914.95130241775,1.12540083247175,4.983775337476968,370.5514498347462,0.6410256410256411,0.6551724137931034,0.9473684210526315,0.1935483870967742,49.98921251348435,50.14512166464227,49.83119967808412,44.827586206896555,0.41363398467594864,0.5863660153240513,47.04160970330693,56.00908311429806,0.6084838461963412,0.3915161538036587,64.21046574735718,51.505799895160386,0.5225153747543059,0.47748462524569407,56.284531422810964,53.80457607929205,0.6612944286860166,1.8585042288677132,0.8950363681626284,1.0804921839537127,-1.0001047370687601,-0.6023761786012631,-0.4002123250996999,0.0003020259168525003,0.15839348015676633,0.5822089482961053,2.2881963555419462,6.526222304998016,1.4887258917939084,1.1929594088674143,1.2276546396001895,1.8195189145940165,2.0362759718269596,1.9531500430136934,4.572577698549048,1.233142385566252,Relax
89.20267062466056,675.2905982905983,79.23634004205174,,,,,,,105.5429721275521,105.99725428539165,0.11733665512688496,0.1562926722135908,680.0,78.5778,0.11555558823529412,115.0,0.7507495614799633,605.0,740.0,53.84615384615385,81.19658119658119,459.0,911.0,16.714285714285715,257.8125,,,0.03804976936380843,0.0589429619853577,0.04404839663686702,0.14104112798603316,0.6455354139356037,0.26977782939722644,0.4179132911585522,-2.83118504868762,74.95137729235528,82.67886317126252,0.9065361377441731,19468.118762966275,1.1030999850578518,4.996294096903693,364.8122109152795,0.6495726495726496,0.6637931034482758,0.948051948051948,0.1935483870967742,50.54659595194286,50.820497699092805,50.281410278980964,44.827586206896555,0.41851286333514165,0.5814871366648582,48.48962237696711,57.15634545776135,0.6224961718146136,0.3775038281853864,65.23232216341225,50.79900156953036,0.5304769516772916,0.4695230483227085,57.473904222229734,54.0711863497931,0.6766782595771897,1.908827653969999,0.9194674869693454,1.1578405632709552,-1.1653488358049167,-0.9098509321816386,-0.37512069211390614,0.00034705005909808304,0.1730955035315081,0.5713774259522397,2.4423470353692043,6.549768352025054,1.4490635160864274,1.1214250135020982,1.2617629561454198,1.7144801071739864,2.062811087570656,1.947100397449894,3.02190578597796,1.1744213195869069,Relax
88.38971930879107,681.4396551724138,77.52938167229735,,,,,,,105.4478647195525,105.88230660872541,0.11377292337453024,0.15474277717646576,683.0,77.8365,0.11396266471449487,103.25,0.7352389911212833,610.0,743.0,54.310344827586206,80.17241379310344,510.0,911.0,16.571428571428573,171.875,,,0.04350377846789983,0.04949851360754682,0.029754755866270723,0.12275704794171738,0.8788906029143267,0.3543892525710993,0.40322339480701536,-3.005812637988713,74.87009701070292,78.62510133461168,0.9522416599766497,18493.51597267007,1.0501535923397023,4.973989596695167,330.27373045846235,0.6206896551724138,0.6347826086956522,0.9315068493150684,0.1935483870967742,51.48525585429314,51.60730061893234,51.367224068324404,43.47826086956522,0.4325556770317678,0.567444322968232,49.253862614582225,56.41322322280446,0.6164567371822504,0.38354326281774975,61.73230878128497,48.693209099524765,0.5289789270829809,0.4710210729170192,55.8427297413193,52.69478326549985,0.7060478790929716,1.8592979378155552,0.9706151870108329,1.0951156269722044,-0.7704661652680951,-0.3137711373708485,-0.43303900497644604,0.0003388439197626419,0.16551949226100793,0.6070886514592484,2.538973871058276,6.541128516660643,1.4849358360230207,1.2487838361922865,1.530392041805036,2.010606612050075,1.993407359620657,1.9444096591869628,3.2459364628400387,1.1824105164013055,Relax
88.14380589366786,682.7241379310345,80.26386768510544,,,,,,,110.7918141694436,111.27650088461088,0.11756412762604462,0.16227903484589445,683.5,80.0604,0.11713299195318215,108.5,0.7244566603300754,615.0,749.0,53.44827586206896,81.03448275862068,432.0,911.0,16.571428571428573,312.5,,,0.04252168719200289,0.045836488155655046,0.023529488732813582,0.11188766408047152,0.9276820477084653,0.38003910030171484,0.4096652524865356,-3.0826748204254484,78.6843683622192,81.44504073646506,0.9661038615822088,20132.74442529804,1.0350853979222054,5.010873090390544,337.21028959797667,0.6120689655172413,0.6260869565217391,0.9305555555555556,0.1935483870967742,49.878319754523325,50.126934486401765,49.637124919915294,43.47826086956522,0.3905355960059648,0.609464403994035,49.1721822657072,61.42757109985767,0.6462954789626075,0.3537045210373926,65.47570808895166,48.43786030384542,0.5228233856239252,0.47717661437607484,57.9006556893855,55.31533603822232,0.654106002981683,1.943168429587189,0.9517865334118039,1.0382919620645206,-0.6733294664559129,-0.12597424054180095,-0.4554822796955928,0.00042407756633472063,0.18865726071345204,0.6859648245859202,2.4203681286504293,6.558369895970989,1.4728765819190723,1.4675940231834865,1.5181606568571573,1.983065064540064,1.9552770493036555,1.9407114711282367,3.5314304527634,1.1232899905812401,Relax
87.76593747177739,686.1739130434783,79.97195351239623,,,,,,,112.18726512461363,112.67040054298093,0.11654764483494572,0.163496838034857,684.0,80.0604,0.11704736842105264,105.5,0.7128434178653541,626.6,763.6,53.91304347826087,83.47826086956522,433.0,911.0,19.166666666666668,203.125,,,0.05804946483273199,0.04566393261180813,0.03160893360155617,0.13532233104609628,1.2712322726606582,0.4289718066780714,0.33744565482139927,-3.086446513428811,79.67000426294628,79.99461633802518,0.9959420759803732,20021.90852779036,1.004074457860044,5.008475582884422,321.2822041252994,0.6086956521739131,0.6228070175438596,0.9154929577464789,0.1875,50.99009900990099,51.280641140711104,50.70687948007938,42.98245614035088,0.38807514904495544,0.6119248509550447,49.636332325481746,62.32909376209106,0.6675540464209476,0.3324459535790523,65.35878590356917,46.12339697246131,0.5283677013279229,0.4716322986720772,58.03247531130417,54.82829414400375,0.7257180253711281,1.9410351474300236,1.0392219165676468,1.1217070733784096,-0.5682977882189473,-0.08186978280249768,-0.4575045527022141,0.0005269029747413887,0.19926213265324794,0.5478902997783806,2.2587824703356527,6.519318094385011,1.4934635057833645,1.328817542378264,1.4254134084550176,1.8365847759917753,1.9995631764594983,1.9283507324471885,3.534912957572846,1.1905200088598913,Relax
87.97110243420416,684.3565217391305,79.38151175713527,,,,,,,110.03564015928275,110.52070797020092,0.11599438192742857,0.1607870118336173,680.0,74.13,0.10901470588235293,103.5,0.7214163669355319,629.6,752.4,54.78260869565217,81.73913043478261,433.0,911.0,16.428571428571427,203.125,,,0.057882724442216725,0.05193033669290179,0.0396131730891672,0.14942623422428572,1.1146225526037952,0.3873665473984705,0.34753158949957486,-2.9578521375555202,78.14994206726718,81.22366053426374,0.9621573511119961,19941.650073598397,1.0393310396103796,5.006731201159564,337.6730861761476,0.591304347826087,0.6052631578947368,0.8985507246376812,0.1875,49.753271830079385,50.051364910409035,49.46903301232228,42.98245614035088,0.37615029841468556,0.6238497015853144,47.93053602022244,61.72648776688495,0.6636232604864187,0.3363767395135813,66.16729158057436,47.108094373223864,0.5254280271553621,0.47457197284463803,57.77303332132816,54.90597347972242,0.7083622015247283,1.9466204885348541,1.025025543062482,1.192255046438426,-0.8617445490235713,-0.6509817294106499,-0.41409239532775527,0.0005242371023193978,0.20276300971415365,0.5675209326165325,2.456735772821304,6.560664942229911,1.487986917228724,1.4219229896079086,1.4608165789433483,1.8354258781335329,1.9895449432355943,1.937032522202753,3.8704326505206703,1.1905200088598913,Relax
88.94602710764796,676.1452991452992,83.42147504847411,,,,,,,107.28354310279678,107.72758691954559,0.12337803006827883,0.15866936180494284,671.0,83.0256,0.12373412816691505,105.0,0.7775794183879763,611.2,745.4000000000001,53.84615384615385,82.05128205128204,433.0,911.0,19.5,203.125,,,0.05369567162123216,0.04508198025671232,0.047896855666833195,0.14667450754477768,1.1910672804404447,0.36608728074194913,0.30736070644688834,-3.0992726631641636,76.17490723167388,89.25294144296807,0.8534722329610734,21359.168626784336,1.1716842814329844,5.036554454393837,418.3050742415371,0.5982905982905983,0.6120689655172413,0.9014084507042254,0.18181818181818182,48.65070729053319,48.92049267776574,48.39145332837697,44.827586206896555,0.3667450109801878,0.6332549890198124,46.14028702724466,60.62998970949865,0.6185789143405476,0.3814210856594523,70.19724917736792,55.121989842098465,0.5124228535237122,0.4875771464762877,59.399410262333426,57.94147657907209,0.6499441669264019,2.7258742150761326,1.0343212278922602,1.4345624006244024,-1.8153972349705043,-1.285728099295448,-0.3531696104983466,0.0016216457741098104,0.4213914794888672,0.6287632929476352,2.2216160304603787,6.624596450334141,1.39862739849341,1.290164173251732,1.287145706834184,1.5692169748092484,2.0393870261748637,1.918922402317821,3.140122833697312,1.233142385566252,Relax
89.39344224478101,673.3760683760684,82.25158278486789,,,,,,,109.5193259594885,109.99279654756408,0.1221480635378504,0.16264214174348104,669.0,80.0604,0.11967174887892378,104.0,0.7510234569494427,611.2,741.6,56.41025641025641,82.05128205128204,433.0,911.0,16.714285714285715,234.375,,,0.0504867051058278,0.03918534348300563,0.04340068193641792,0.13307273052525134,1.2884078744320175,0.3793918175914159,0.2944656153694087,-3.2394524928399426,77.77665232045482,86.32491792219012,0.9009756880459431,21092.851398116207,1.109907862407279,5.0311054029664275,383.25082049400737,0.6068376068376068,0.6206896551724138,0.9166666666666666,0.22580645161290322,50.369198312236286,50.57975324225954,50.1624839105436,44.827586206896555,0.4008976828426862,0.5991023171573137,49.24618722826914,60.20136499969155,0.62884075861021,0.37115924138979006,68.4552113374997,52.59159148581752,0.5267092299300152,0.4732907700699848,59.62928356010781,56.52468417796423,0.739117400251372,1.8999315579490244,1.0193540334055544,1.1503609526193426,-0.8420179215759678,-0.4405789906022286,-0.4310465060356121,0.000325582729409293,0.17469026443462207,0.6662882204244029,2.472930458741285,6.573314399052091,1.4564052340444325,1.7055575273222687,1.5725499391800555,2.2787307347924246,2.0004860494731393,1.9238530657019894,3.753234815244322,1.1744213195869069,Relax
89.52757768500543,672.3983050847457,81.08886544814159,,,,,,,108.50770975798483,108.97416528822441,0.12059647508766631,0.16137415715869338,669.0,77.09519999999999,0.11523946188340806,98.5,0.7473097130978239,611.4,739.2,54.23728813559322,82.20338983050848,433.0,911.0,11.8,234.375,,,0.04422170874709581,0.019889730750733525,0.0134429803569378,0.07755441985476713,2.2233437597170553,0.5702023022015756,0.2564616019045746,-3.917551723124245,77.05637124944715,85.5638981468073,0.9005710693222128,20713.285346542325,1.1104065343256244,5.0232190980254545,380.0428464183481,0.6186440677966102,0.6324786324786325,0.918918918918919,0.1875,49.856520352853636,50.11776038360233,49.599996031631036,44.44444444444444,0.39450429712482116,0.6054957028751792,48.398890340656536,59.9604754875214,0.6275766594494083,0.37242334055059173,67.78349434517472,52.21665022226993,0.5232001858307148,0.4767998141692851,58.894204688785926,56.22204719291417,0.6310471420050245,2.476717826994642,1.003027197000011,1.306926130354989,-1.288011137639419,-0.8045194373052695,-0.37729771633947407,0.0015335670729726208,0.36041803180511084,0.6682794689086466,2.145399509471633,6.537262646801134,1.4419153007988033,1.2213662579068838,1.4153212223187424,2.051562450293546,2.0195684842184782,1.923316468548462,4.006199717630204,1.166549669383363,Relax
89.43319465333612,672.974358974359,79.03997913959282,,,,,,,102.12293977156263,102.5562817653567,0.11744872309853387,0.15174863411913977,668.0,74.13,0.11097305389221557,98.0,0.7739688978440714,611.2,739.6,50.427350427350426,82.05128205128204,433.0,873.0,14.625,234.375,,,0.030661799700958094,0.0215360760394496,0.024127418232863122,0.07632529397327081,1.4237412444491777,0.4017252748701614,0.28216171754270025,-3.838025794719515,72.51824228956198,83.55508354676421,0.8679093983428894,19035.75118515247,1.1521939984856864,4.98654012949566,385.08666322220733,0.6068376068376068,0.6206896551724138,0.8888888888888888,0.2,50.92414105907699,50.94429143445781,50.9325026044302,44.827586206896555,0.43956190200657147,0.5604380979934286,48.08375844385458,54.29404643476916,0.6124044325794141,0.387595567420586,65.38709461642325,52.0190334793877,0.5381370174779377,0.4618629825220621,57.39128840017465,53.168709418183774,0.6689743321887226,2.5610607247888586,1.0000883255362791,1.3643294583095682,-1.7410614576842978,-1.118033271421466,-0.35777723688948515,0.0012424289879663442,0.3470087523141978,0.5831618125183686,2.1162555148025524,6.556220381958075,1.4324423357319505,1.3824543921425256,1.4561738684110808,1.7751749401097094,1.939290025390502,1.9130776816230626,3.676563281894016,1.1157002536075613,Relax
89.3319806395858,673.6581196581196,79.74119369746043,,,,,,,104.34074649584574,104.79032645593117,0.11837041871911075,0.15488679413349682,670.0,84.5082,0.12613164179104477,103.0,0.7642382901739665,610.2,739.6,52.13675213675214,80.34188034188034,433.0,898.0,13.0,234.375,,,0.04069880583221128,0.030519843306429626,0.0396595623000008,0.1108782114386417,1.333519488405671,0.3670586430295493,0.27525555210925134,-3.48937820670653,74.097950439741,85.42697131928303,0.8673835592602265,19886.16678835579,1.1528924998911432,5.0055211875507455,393.95245808966877,0.6068376068376068,0.6206896551724138,0.9027777777777778,0.1935483870967742,50.51432363676586,50.687813622619615,50.34269053169056,43.96551724137931,0.4201494824177226,0.5798505175822775,48.030923010258626,56.42571106831723,0.5945068582523821,0.40549314174761775,65.86784334061574,54.39848014826986,0.5196458925722355,0.4803541074277646,57.64348337653307,55.42136551911604,0.6852552844852894,1.7231155367116906,0.9692965415201151,1.1272520387546228,-0.6340653845906594,-0.5736382148186041,-0.40833145319092057,0.00047401388673729396,0.16253124198912647,0.5517448828959504,1.9459101490553135,6.509128287903999,1.4289446943696547,1.5963598572111017,1.2918978883509702,1.6575324581019941,1.9278075571996605,1.9161822417932102,3.9331847572696237,1.0569791876282162,Relax
88.9988016534478,675.9230769230769,81.32090050790416,,,,,,,107.47060544392015,107.92965669639969,0.12031088046008354,0.15899827822589757,671.0,84.5082,0.1259436661698957,109.0,0.7566803980679041,610.2,743.0,52.13675213675214,80.34188034188034,433.0,898.0,11.7,250.0,,,0.04616032369898294,0.039711700175423845,0.05077588403898732,0.1366479079133941,1.162385984359086,0.33780483290120206,0.2906133052588897,-3.22610941996266,76.31779214116028,85.62811753591005,0.8912702315235965,20530.147378995247,1.1219941658889847,5.019362176997003,384.2969932453894,0.6153846153846154,0.6293103448275862,0.9041095890410958,0.2,49.227301996136504,49.47343010745263,48.98646766819233,44.827586206896555,0.4197718750373193,0.5802281249626806,49.449447176757765,58.13720652567248,0.5842748571943503,0.41572514280564965,65.45231253635993,55.21022818632694,0.5114441282040829,0.48855587179591703,58.005400793565315,56.69261009600363,0.5952389816072408,2.676026704424651,0.9509657490214366,1.4949134414359546,-1.8970169735591185,-1.702207054365665,-0.2967330850939817,0.002711260092757517,0.4649051737660488,0.632284901070777,1.7619065060783738,6.47075029648799,1.4047989439987285,1.536561527513278,1.3608147595193707,1.7305274020897674,1.9192738719468636,1.9180030725240582,3.0183590186957274,0.9982581216488708,Relax
89.80624855574854,670.1186440677966,77.7539588121804,,,,,,,103.45613051033244,103.89960708535149,0.1160301380964323,0.15438479652248815,668.5,78.5778,0.1175434554973822,102.25,0.7515645368585954,608.2,733.6,50.847457627118644,78.8135593220339,433.0,898.0,11.8,242.1875,,,0.04177277531497098,0.04243613431584035,0.04208242833882976,0.1262913379696411,0.9843680624645927,0.33076516558097313,0.3360177744418345,-3.15975505525108,73.46811673266988,82.33407118517303,0.8923173077089409,19003.27138886167,1.1206775788845098,4.985798480590091,369.0797902220184,0.6186440677966102,0.6324786324786325,0.9054054054054054,0.15625,49.63860780607139,49.80346424377491,49.48262846458335,43.58974358974359,0.42034671408984153,0.5796532859101585,47.633116558791826,55.935731285849464,0.6332615477473895,0.3667384522526106,65.51958675665266,49.86063606857221,0.5388794693344748,0.4611205306655251,57.27883571558513,52.985323739906335,0.7169561979180605,2.204494769380458,1.0446054545884509,1.4590950023475788,-1.4925994220198469,-1.6064181080545077,-0.3119797998542703,0.001179814011387943,0.29532344958812085,0.6641206796355998,2.0501711593797225,6.456671333205143,1.4367972163919767,1.426031403561102,1.3203687532462551,1.790600287723823,1.8355225747880126,1.9092230605991605,3.8712889534449295,0.9332397355066904,Relax
90.0715746859612,668.2881355932203,79.5462668890342,,,,,,,107.24235672962001,107.68795041919859,0.11902989541842345,0.16047323155666085,665.0,79.31909999999999,0.11927684210526314,109.25,0.7417429951636242,605.8,734.6,53.38983050847458,79.66101694915254,433.0,898.0,13.11111111111111,242.1875,,,0.047291888770704754,0.05430185942505557,0.044767585795233725,0.14636133399099405,0.8709073551334722,0.3231173663230941,0.37101232917429466,-2.9131968090731934,76.14687999349601,81.83091352592896,0.9305392878128886,19575.793974615084,1.074645652361836,4.9986894955986045,351.7569417977477,0.6101694915254238,0.6239316239316239,0.8904109589041096,0.1935483870967742,51.13395506570582,51.18273190107103,51.094135948951234,41.88034188034188,0.4481936789912068,0.5518063210087929,50.98567242964879,56.57292364422376,0.6262775598785398,0.37372244012146005,64.7591030472663,50.0255632752057,0.5436218992972247,0.4563781007027751,58.28070101066863,53.39968478678868,0.5833934824673438,3.429003537216918,1.0195459224759518,1.7598516448796495,-2.3492454022792284,-1.8745603823647239,-0.28410470728048526,0.008092302823667895,0.8906912757051243,0.6354465872858399,1.9760631872260006,6.439722180662771,1.4761479416889622,1.337732777025557,1.3457070184781381,1.7245782918839205,1.8101772699662264,1.9297189846144953,3.9054755078801775,1.108222185914195,Relax
90.309054189403,666.1779661016949,76.31464684006359,,,,,,,105.66686888276372,106.1191303216253,0.11455594559309372,0.15861657734058593,663.5,79.31909999999999,0.11954649585531273,109.25,0.7222192504325446,605.8,734.0,55.08474576271186,81.35593220338984,433.0,898.0,13.11111111111111,242.1875,,,0.04922503678521648,0.06985107438223181,0.056117208702148466,0.17519331986959674,0.7047140966773443,0.28097553503670464,0.39870854912861237,-2.661389812119979,75.03755666404022,77.90965762315898,0.9631354950497817,18366.22298686075,1.0382755127805905,4.970989962804322,323.56675887698253,0.6101694915254238,0.6239316239316239,0.8904109589041096,0.1935483870967742,49.57127545551983,49.75729110284535,49.39260030218202,41.88034188034188,0.42315453143921833,0.5768454685607818,48.813199529183315,56.992475304897134,0.6414800985374781,0.3585199014625221,62.39975570912545,46.64960062422098,0.5364133880319714,0.46358661196802853,56.01989807574803,52.07843833957883,0.6819067385841415,2.1124281324414835,0.9579567707273592,1.375998518899875,-1.6013915215516175,-1.6588071098828348,-0.30210368260464554,0.0008481596105072639,0.2490092981568906,0.6419225334541965,1.9760631872260008,6.4969669900031395,1.4996262956592004,1.465744306101254,1.4142551969734354,1.846968145432043,1.8164751241108594,1.9344661201667928,3.532687721717586,1.108222185914195,Relax
90.18510480525569,667.5798319327731,76.68673849492143,,,,,,,106.48732716834256,106.94139199189766,0.11487276101930528,0.15951249884233484,666.0,77.09519999999999,0.11575855855855854,103.5,0.7201489654603661,608.8,734.0,55.46218487394958,81.5126050420168,433.0,898.0,13.222222222222221,242.1875,,,0.02928425938536417,0.04888853007280264,0.05809639668036645,0.13626918613853325,0.599000611017663,0.2149000828081072,0.35876437996115895,-3.0182124688529295,75.61898346699958,78.37773737526159,0.9648018174465348,18619.732166718215,1.0364822929610782,4.976943539595679,324.9485478072493,0.6218487394957983,0.6355932203389831,0.8933333333333333,0.1935483870967742,49.94246260069045,50.10432715561335,49.78518858131532,40.67796610169492,0.4248621332115656,0.5751378667884344,49.289568251928706,57.3478291156126,0.6431223333877589,0.3568776666122413,62.85495469698238,46.82226378664076,0.5379009306448719,0.4620990693551283,56.48100064809956,52.350252579998475,0.5213610891656677,3.402268612075604,0.9501454283561284,1.8092476373687534,-2.490521032746063,-2.401073983872323,-0.24749136327348442,0.009326753925558139,0.9526577974244793,0.6575876993985514,2.0890109926959863,6.529189401927044,1.5435378157972819,1.3349312560224733,1.4315201226380114,1.9819520595048805,1.7678176996722594,1.9468381558314578,4.310712476790884,1.158792901396293,Relax
90.42432693048224,665.4705882352941,75.24725610509637,,,,,,,105.45221425615217,105.90190454134701,0.11307375177111625,0.1584626219707051,664.0,74.13,0.11164156626506024,96.5,0.7135673407702425,608.8,731.4,53.78151260504202,82.35294117647058,433.0,898.0,11.9,218.75,,,0.029968128309448904,0.04959357924936409,0.05169147768109743,0.13125318523991042,0.6042743589601505,0.2283230555865888,0.37784667213001144,-3.003893904248369,74.88395484175689,76.06015312011517,0.9845359464830314,17893.522377797453,1.0157069465794615,4.959665950733945,309.01930352799394,0.6386554621848739,0.6495726495726496,0.8947368421052632,0.2413793103448276,49.98938203440221,50.15161786540655,49.83105887099942,41.88034188034188,0.4250544894755292,0.5749455105244706,48.82149589615686,56.78088037419265,0.643104967100475,0.3568950328995249,60.99554657573408,45.43886211804629,0.5357787334064075,0.46422126659359275,55.244887381598524,51.42352849937078,0.6473781082182944,2.250879297114395,0.9215109117213673,1.3957994731918129,-1.8961201525134541,-1.8891506522481376,-0.28928742999303486,0.0009548253057289508,0.27812595902204335,0.6610836336371757,2.1078794770003695,6.512382679237969,1.5100184072470724,1.3355327958839183,1.387739046494118,1.89669159112888,1.7998967713971838,1.959234233383478,3.867804776589604,1.1008532563264786,Relax
90.15786327916163,667.5,75.48790020210575,,,,,,,104.31162221878505,104.7504683751619,0.11309048719416591,0.156272093211663,666.0,73.3887,0.11019324324324324,95.0,0.7236767926375077,611.4,731.6,55.08474576271186,84.7457627118644,433.0,898.0,14.75,265.625,,,0.036200850210286316,0.04415471341442172,0.03803146217673725,0.11838702580144528,0.8198637792191507,0.3057839316869161,0.3729691924896949,-3.120055598526966,74.06976652054398,76.17296783366308,0.9723891378669687,17725.22371284001,1.0283948689447504,4.955561835150538,313.3435570897305,0.6440677966101694,0.6551724137931034,0.8947368421052632,0.20689655172413793,50.89123705838403,51.12292347245596,50.66859353835056,43.103448275862064,0.4480471177086516,0.5519528822913483,49.58421954196927,55.034197832206864,0.630827993013788,0.36917200698621205,60.50013660551549,46.282334635390136,0.5419871966423725,0.45801280335762745,55.31212053823395,50.84691450981424,0.6400723777709373,1.8154269425392862,0.9183376667749695,1.1839016358085406,-0.7325531014965065,-0.8199470459231741,-0.3537181734991111,0.0008883157396174769,0.20347875798603696,0.6534227684392806,1.995671658614377,6.524467943374634,1.5413100647203075,1.525341088591162,1.5022295378035195,1.9156846172223543,1.8111463785660762,1.9757146844280133,3.037769417686804,1.166549669383363,Relax
89.85939236582402,669.1880341880342,75.3282393839686,,,,,,,104.02362132277192,104.4741598432958,0.11256662632255349,0.1554475214862292,666.0,74.13,0.1113063063063063,90.0,0.7241455202778873,612.4,731.8,53.84615384615385,82.90598290598291,433.0,898.0,14.625,203.125,,,0.037016916394364545,0.04800157421719951,0.031879708806745004,0.11689819941830906,0.7711604670894515,0.31665942314391893,0.4106271478607677,-3.036521472420373,73.87438688396175,76.05440528804456,0.9713360666508886,17650.952120395497,1.0295098002979988,4.9537382468517075,313.1950223995113,0.6410256410256411,0.6521739130434783,0.88,0.21428571428571427,49.74857892435506,49.93958059555593,49.55750439696355,42.608695652173914,0.421355994856703,0.5786440051432968,47.95364609613166,56.19565974266201,0.6314032336374346,0.36859676636256544,60.43350396073297,46.17428031649452,0.5294323683627882,0.4705676316372118,54.551629558084564,51.42964289521782,0.5821564661670405,2.039004466143334,0.8522837979785266,1.2272402313684418,-1.355836159303454,-1.3625989696169702,-0.31610808626666487,0.0008888212413250737,0.2358573726755414,0.6580730736955531,2.052290552613885,6.498486300743003,1.5118658454420233,1.5073838121214986,1.5074903698381015,2.006347579149257,1.8371511733412558,1.9935855485084724,3.1024667347207835,1.0569791876282162,Relax
89.95475469379312,669.2796610169491,71.82182198123786,,,,,,,101.34121932877429,101.75811355962568,0.10731212401121959,0.1514183460689505,667.0,72.64739999999999,0.1089166416791604,91.25,0.7087128263992098,615.6,731.6,55.08474576271186,81.35593220338984,511.0,898.0,14.75,187.5,,,0.0537518623842567,0.07872494367947076,0.05718773580116909,0.18966454186489656,0.6827805759138785,0.2834049098251885,0.41507465183212144,-2.541795227403742,71.95385213876209,70.57277400589494,1.019569559965884,15952.953917712855,0.9808060570516259,4.909811220639284,276.8728168316692,0.635593220338983,0.646551724137931,0.88,0.20689655172413793,51.243078927369446,51.31107209107609,51.17338035885349,44.827586206896555,0.5000902966473728,0.49990970335262713,50.89314363414307,50.883953503417274,0.5690672537145528,0.4309327462854471,53.23766342924096,46.327827744045806,0.5339040224473984,0.46609597755260146,52.07859865804118,48.65924551213218,0.4752062788273642,3.0585603040827793,0.866951617128779,1.6564539953733504,-2.0218108885528334,-2.12891468746649,-0.24187124014174616,0.008292811607517563,0.8084404053691704,0.6193798266594488,1.8769172775683618,6.4622223673750865,1.5364134909886296,1.1433212708819223,1.5259211550229477,1.9332307566353766,1.9172877481268746,1.9907418625942352,3.040464196020032,1.166549669383363,Relax
89.50358727265636,671.8974358974359,69.18458376907196,,,,,,,95.11336248991479,95.52592684005046,0.10296896531040324,0.14155934731745828,671.0,66.717,0.09942921013412817,85.0,0.7273907888222104,619.2,730.2,52.991452991452995,82.05128205128204,511.0,898.0,14.625,187.5,,,0.04780746850604077,0.07502847284119697,0.04769515869459069,0.17053110004182842,0.637191011567417,0.28034457347847047,0.4399694414848303,-2.589887599607428,67.54703064772971,71.33654742487018,0.9468783265529989,15137.990255284463,1.056101900273063,4.887038331296518,301.3546531772995,0.6410256410256411,0.6521739130434783,0.88,0.21428571428571427,50.08179481187193,50.120679457635156,50.038181775269244,45.21739130434783,0.46323613493424826,0.5367638650657518,45.97352735424273,49.487811411102726,0.5762508241165526,0.42374917588344724,54.15241958338753,46.437252844731205,0.522824809628895,0.4771751903711047,50.22972110278215,47.98677906479224,0.5095218631016252,2.7364308527618038,0.8577270905896773,1.6400352727836665,-1.7225744476882063,-2.138633428253076,-0.21411366693061973,0.007874376152567761,0.7055413535704596,0.6393182882312365,2.197224577336219,6.484728689850382,1.5338543913306013,1.6032436254122093,1.3593699706441242,1.7460121020296908,2.022784161361288,1.9810599510262885,3.920819369428199,1.0569791876282162,Relax
89.39230147805503,672.8034188034188,67.0401628614287,,,,,,,91.0716372063678,91.46418630432265,0.09964301754093292,0.1353614364331542,668.0,62.2692,0.09321736526946107,85.0,0.7361255920931352,626.2,730.2,47.863247863247864,76.06837606837607,511.0,898.0,14.625,187.5,,,0.04765315932216252,0.07115868510760831,0.06638640846949698,0.1851982528992678,0.6696745344591454,0.25730890316811905,0.38422978615415243,-2.642842894325876,64.67494637149629,68.74635031882724,0.940776434989656,13968.044076202686,1.062951794717302,4.8521057067429165,292.2962258066471,0.6068376068376068,0.6173913043478261,0.8450704225352113,0.1724137931034483,50.49981019865874,50.62068490573181,50.382329437378424,44.34782608695652,0.46031063008453305,0.539689369915467,43.88071776195494,47.51384237663067,0.6019418538956635,0.39805814610433654,53.33679526032797,43.3733438129547,0.535442181611709,0.46455781838829124,48.8381568036023,45.490725268498856,0.5530437399442675,3.0099321909219685,0.9496005665742784,1.752859454546343,-2.1850731519698208,-2.4346115310055527,-0.2331305700524704,0.0068410559653881405,0.7559616532777504,0.7012612552866782,2.4079456086518722,6.433446638568327,1.4523631001882107,1.414673566741602,1.367525791177149,1.9982584046058651,1.9874519851047248,1.9482165140395884,2.8996291016479794,1.0569791876282162,Relax
88.7898104700793,677.2649572649573,62.33618437240306,,,,,,,89.30348296099945,89.68459601079324,0.09204105971190255,0.13185900437199566,670.0,54.856199999999994,0.08187492537313432,81.0,0.6980263513308487,633.2,730.2,44.44444444444444,72.64957264957265,532.0,898.0,14.625,226.5625,,,0.0513602028760274,0.08584244077222473,0.059392799833223174,0.1965954434814753,0.5983078115440253,0.2612481854436618,0.43664511878838863,-2.4552417470911365,63.41658600720788,60.56586827826254,1.0470680568112731,12066.48225984396,0.9550477578748668,4.788550788691524,231.37318681159664,0.5811965811965812,0.591304347826087,0.8088235294117647,0.13793103448275862,50.81188118811881,50.95058817771368,50.679162454873264,45.21739130434783,0.46955669199330247,0.5304433080066976,43.458776068721775,46.190531685523,0.5816149927148542,0.4183850072851458,46.189764102632594,39.17563135985178,0.5230067156626146,0.47699328433738525,44.84506397168004,42.82695010057514,0.5176817214859815,2.668378536398019,0.9509519438257652,1.424953736909059,-1.0862102076315674,-1.0172510492820976,-0.3223633616379115,0.005271170713673629,0.5885530673663107,0.6672819530540184,2.120263536200091,6.48472868985038,1.4034348991627215,1.359696584218486,1.5448211568103902,1.9921126751741571,1.9666003003032113,1.9727116339449582,2.826543733196014,1.1157002536075613,Relax
89.30609541598962,673.0854700854701,62.1342501820235,,,,,,,85.00867095732667,85.37731538300437,0.09231257090445517,0.12629699307954464,664.0,53.373599999999996,0.08038192771084336,82.0,0.7309166168850486,628.2,726.4000000000001,41.88034188034188,69.23076923076923,532.0,898.0,13.0,164.0625,,,0.03275891788197093,0.061898915170174686,0.04863602997644655,0.14329386302859218,0.5292325041870113,0.22861354415041749,0.431971850447103,-2.782252624967379,60.37087866682493,64.35762705709239,0.9380532102787015,12206.113171443012,1.0660376075072477,4.793547502250017,274.43060309114594,0.5641025641025641,0.5739130434782609,0.7878787878787878,0.14285714285714285,50.13307185880376,50.20107994084554,50.06323262079444,44.34782608695652,0.4432826615736438,0.5567173384263561,40.19468924470322,45.04490513100088,0.6188439308602304,0.3811560691397695,50.627978943273305,39.73300779628022,0.5366689435726789,0.46333105642732086,45.70998411375127,42.47208134057085,0.5795523371817402,2.4427467363730058,0.9796496811116777,1.4065766134820286,-0.9004714442859463,-0.9209674584929031,-0.32522669009712707,0.004133760641005439,0.4856517665052652,0.6665361410585682,2.079441541679836,6.457846236621947,1.3687717681050133,1.3770400244182683,1.5131759143645644,1.9732387117775905,1.9702901617039699,1.9640369184747177,3.605735049035802,0.9395370556695254,Relax
89.6542767096623,670.6271186440678,64.07564928225908,,,,,,,86.18346560442869,86.55054623025595,0.0955458666983417,0.12851175147626287,664.0,57.8214,0.08708042168674698,85.25,0.7434796086799095,624.4,725.8000000000001,42.3728813559322,67.79661016949152,532.0,898.0,13.11111111111111,164.0625,,,0.0444087733322908,0.04792482687799365,0.053659432421595855,0.1459930326318803,0.9266339854569747,0.3041841965449611,0.32826790439264,-3.03812160240972,61.20047815481376,66.74805708092921,0.9168877841734142,12833.446859702632,1.0906460062629284,4.815313426594083,291.1940075245017,0.576271186440678,0.5826086956521739,0.7910447761194029,0.13333333333333333,49.37072503419971,49.37203693473286,49.36571601699511,46.08695652173913,0.4446657645093137,0.5553342354906861,40.81217490761372,45.60895442934349,0.5753244265119031,0.4246755734880968,50.62849706239987,43.497797752088005,0.5156468510672747,0.48435314893272513,45.98303130224827,44.56587895138771,0.6333195981656147,1.6853935384271617,1.034750369747298,1.1442961393850553,0.08912059024835539,-0.1479345741242828,-0.43500285414646395,0.0020438694005717774,0.24853445539908284,0.6151154435911126,2.0794415416798357,6.479171519917462,1.3319190345306684,1.7423714436089828,1.4760783406095555,2.0126921528767103,1.9523167650090023,1.9875521099960218,3.6299471297107795,1.0498947024450267,Relax
90.95699402992351,660.7226890756302,70.56358166302482,,,,,,,81.3305663139582,81.63310470551815,0.10679757609314926,0.12309334560273989,657.0,68.19959999999999,0.10380456621004565,93.0,0.8676145373269641,598.0,722.0,38.655462184873954,63.02521008403361,532.0,898.0,13.222222222222221,125.0,,,0.024755775840746518,0.033390146377028064,0.04341282418456208,0.10155874640233666,0.7414096231030042,0.24375818644583958,0.32877666926636884,-3.3994944411779002,57.723321906583344,78.56764681951778,0.7346958225589075,14247.705665626667,1.3611075077534154,4.860715044693612,427.7560558102576,0.5546218487394958,0.5641025641025641,0.7878787878787878,0.14285714285714285,47.663413191363496,47.90793613285796,47.37932644639078,49.572649572649574,0.4213457522452692,0.5786542477547306,37.489200724210846,43.93356484122498,0.4557806185928876,0.5442193814071123,53.04221756082337,57.960316450022624,0.4437007739864492,0.5562992260135509,45.928841781117725,51.4274071028517,0.7452287972534073,3.01746999127663,1.263252843290498,1.971167055464289,-1.7423665044709686,-2.165612252839108,-0.26539477965966873,0.006653327271651754,0.805261982515725,0.6144044340472066,1.4017985476558559,6.494736750917718,1.1108094659571743,1.3576908091668183,1.538245421792284,1.824222644545265,1.8460293616101702,1.9366968051355313,2.572846232652239,0.9849739661868491,Relax
91.5529496675601,656.4214876033058,65.46191667248416,,,,,,,77.68290245178365,78.00853038177894,0.0997254323765292,0.11834302185234016,656.0,56.3388,0.08588231707317073,78.0,0.8426811384025613,598.0,713.0,36.36363636363637,62.8099173553719,532.0,819.0,13.444444444444445,125.0,,,0.0180048787838292,0.02894213566501573,0.02600356208295528,0.0729505765318002,0.6220991772073298,0.24680927334385927,0.39673621568157774,-3.5424567641983735,55.160360823352704,74.79180346499352,0.7375187957483956,12960.775159136132,1.3558976473070794,4.819601086594213,405.6401214241527,0.5454545454545454,0.5546218487394958,0.7727272727272727,0.17857142857142858,50.10709914320687,50.15723100680641,50.05385482450563,48.739495798319325,0.4565107518269543,0.5434892481730456,37.269459414405475,40.66521442050375,0.4434984743050114,0.5565015256949886,49.8081109350271,55.79395980417819,0.4480827572361679,0.5519172427638321,43.987842183710164,48.819184827769284,0.7271250947367666,2.569359201714483,1.2101834373019804,1.736996942805464,-1.339155319263126,-1.7834125791459972,-0.29496307672669864,0.003828981261586316,0.5501217112089936,0.6336440550112181,1.428494715610267,6.460104766164454,1.1385073064941282,1.5665202177983055,1.3858188869135661,1.7958030735013812,1.8536135689841022,1.8860833575302844,4.6648453679426565,1.1436137582272057,Relax
91.29343868306175,658.1333333333333,65.5322017620888,,,,,,,76.05195040013021,76.37083158392977,0.09957283493024029,0.11555705591591908,657.0,57.080099999999995,0.08687990867579908,83.0,0.8616768066736735,598.0,713.6,36.666666666666664,62.5,532.0,819.0,12.0,164.0625,,,0.01496647062060093,0.010983583984783413,0.008765254025952228,0.034715308631336574,1.3626217672970302,0.43112019482641445,0.3163902156660888,-4.511353485889282,54.0023328978525,75.57154676926733,0.7145855180486211,12820.964737121705,1.399412631158247,4.8148908156628885,423.0231084203157,0.5416666666666666,0.5470085470085471,0.78125,0.14285714285714285,49.40081993062125,49.47237174600147,49.33170039625176,50.427350427350426,0.44302206647256087,0.5569779335274392,35.94516775236642,40.30387751039447,0.44833278556867057,0.5516672144313294,50.60093721507046,56.13023992516026,0.4465375426899548,0.5534624573100454,43.889121270476956,48.86208333886786,0.8072567811337017,2.1204632895457936,1.2181255962551223,1.6857188254542907,-0.96726846289741,-1.6170352453109784,-0.27948534572398687,0.0029263165968903882,0.3910313077476289,0.6308736777518695,1.3700338402481098,6.415061012203071,1.1483319007409611,1.2754735488439994,1.3176587371678012,1.7157521932221216,1.7945648848716536,1.8819986893550857,3.791101723217004,1.2087058542314906,Relax
90.96905074394857,660.9,67.05590292917589,,,,,,,72.85042809722933,73.13019063830255,0.10146149633707957,0.1102291240690412,658.0,58.5627,0.08900106382978723,80.5,0.9204599709377161,607.6,716.2,35.833333333333336,61.66666666666667,532.0,819.0,13.333333333333334,164.0625,,,0.018576800893859997,0.007557133496476247,0.008972296645247681,0.035106231035583926,2.4581808568714605,0.5291596490386684,0.2152647343093106,-4.8852633278255,51.7108537098087,78.39842784206266,0.6595904424765081,12736.17254501202,1.5160923136566156,4.812009044058196,475.437015416456,0.525,0.5338983050847458,0.746031746031746,0.10714285714285714,51.977679304119484,52.10354359724661,51.85822389390038,48.30508474576271,0.47611213591848683,0.5238878640815132,35.694739203132734,37.442837789020686,0.4692227215010941,0.5307772784989058,53.702792684258974,57.11675363690242,0.4713124748769163,0.5286875251230838,45.59662459474473,48.29228534514349,0.7508230889144935,2.343747536235245,1.1127046802829055,1.6694668290879662,-1.2242390885500178,-1.6746601823677998,-0.2624479001269112,0.003769652964241535,0.4616403153923679,0.6158513947546833,1.3274538610969575,6.427642470572461,1.129511081353485,1.2512646716058158,1.400101246669414,1.7498027253907678,1.8175278205526801,1.872995093167143,2.7838740954336965,1.2662632758615617,Relax
90.83667893653565,661.1344537815127,65.03778880288449,,,,,,,69.92338422171048,70.2145059844805,0.09837301388679065,0.1057627292327111,661.0,54.856199999999994,0.08298971255673221,75.5,0.9301293054790524,610.6,711.2,32.773109243697476,58.82352941176471,532.0,819.0,10.818181818181818,148.4375,,,0.02180592175809798,0.009276367111832164,0.009761113707301983,0.040843402577232124,2.350696290391974,0.5338909195154456,0.22712033098347226,-4.6802852838484625,49.649153319289574,76.77221184746031,0.6467073453339877,11974.731172737414,1.5462944826822043,4.785235882444449,474.84979041214893,0.5210084033613446,0.5299145299145299,0.7580645161290323,0.06666666666666667,48.967707781895186,49.11898351708007,48.81158380189816,50.427350427350426,0.43469194969970615,0.5653080503002937,32.73756043519222,37.33344780202231,0.4340933712053554,0.5659066287946447,50.58195723283795,57.75325198156965,0.43426991460618136,0.5657300853938187,42.60447312637788,48.62727855449554,0.8442010317403243,1.8822901232374416,1.2146691830915681,1.575187668896953,-0.5234198407028607,-1.099758753153041,-0.30846816260964494,0.002531487825353182,0.3154612195552747,0.6721076684613903,1.3336506276344688,6.381209229872955,1.0970769332060712,1.0674522334933243,1.3626272175372844,1.6115370777130527,1.7531567875624532,1.8410271215415515,2.7688552837288456,1.2167325464661076,Relax
90.84268851353059,660.890756302521,64.16356084997608,,,,,,,67.55757117991153,67.84563831855864,0.09708648553196797,0.10222199438508599,659.0,56.3388,0.08549135053110773,71.5,0.9497612144625964,610.6,711.2,31.092436974789916,58.82352941176471,532.0,819.0,9.916666666666666,148.4375,,,0.02198996432206019,0.011935096341863212,0.008580448105371551,0.04250550876929495,1.8424622384428353,0.5173438680951693,0.2807894008901939,-4.428271947010836,47.97411092898269,76.07782699193356,0.6305925501009555,11466.07840272864,1.5858100445999619,4.766385017028566,482.5799288605854,0.5210084033613446,0.5299145299145299,0.7741935483870968,0.06666666666666667,49.93590917414394,49.99075336532566,49.879538370822566,51.28205128205128,0.4598063336149511,0.5401936663850488,32.530787521241116,35.25996252500784,0.4334821560890563,0.5665178439109434,50.089155755051046,57.261786870135396,0.4409716976700112,0.559028302329989,42.23254468420001,47.55090531643834,0.8843258269628647,2.353950978453189,1.2855957130962237,1.7540770215521504,-1.2869346515320625,-1.645447626411988,-0.300980856124807,0.002355331062457828,0.41255568535256076,0.6695940958106834,1.457246097092175,6.301295154206342,1.0936448647811396,1.3719395012115074,1.321822176316662,1.752667052733293,1.7541525963132982,1.8285205613379971,2.869644032244244,1.2167325464661076,Relax
90.3959557766437,664.3277310924369,64.93427044871403,,,,,,,67.53699551143703,67.82441957350169,0.09774433221677276,0.10166216514908617,668.0,59.303999999999995,0.08877844311377245,79.0,0.9614622320253758,615.2,721.6,31.932773109243694,59.66386554621849,532.0,819.0,10.818181818181818,148.4375,,,0.017063796143788234,0.007733771774857002,0.0051240199510683565,0.029921587869713592,2.206400271503195,0.5702837769869854,0.2584679599402232,-4.862158595560472,47.95910701046464,78.61358252294015,0.6100613338219225,11844.549542255692,1.6391794473109502,4.780488658766236,515.4470750043472,0.5210084033613446,0.5338983050847458,0.7777777777777778,0.06451612903225806,50.29940119760479,50.330915856325056,50.26565989486789,51.69491525423729,0.4730011686518883,0.5269988313481117,32.98419720043622,34.81606123124958,0.4324873781945322,0.5675126218054679,51.699257615371415,59.22231099096505,0.4434760665135323,0.5565239334864677,43.36340913107389,48.576950494903954,0.7850676784397862,2.409018136777901,1.1780632911938698,1.777371469291739,-1.445154511678684,-2.02075491313413,-0.25122305268342515,0.0036274832328209543,0.4864116546958916,0.668836401625279,1.4542450230283985,6.4084790827959495,1.1107309396129965,1.388801616368099,1.4523556235349144,1.6426462878034571,1.7113950219331409,1.8247621595713144,4.088625987496111,1.0429136112566637,Relax
90.36705251925974,664.5084745762712,64.88948471603872,,,,,,,65.93197737839841,66.2136854188931,0.09765034939157999,0.09921916710007414,669.0,60.7866,0.09086188340807175,80.0,0.9841883604312882,614.2,722.4000000000001,33.05084745762712,56.779661016949156,532.0,819.0,9.833333333333334,148.4375,,,0.0171606935731654,0.004361232740686682,0.002140880620717704,0.023662806934569788,3.934826365277499,0.7252180022689857,0.18430749795431964,-5.435000522894639,46.820145967052134,79.18265648936044,0.5912929427082714,11646.963213546564,1.6912090907423092,4.773182813733974,535.6577139357275,0.5084745762711864,0.5213675213675214,0.7868852459016393,0.0625,49.45652173913043,49.51075829104804,49.40495426565133,51.28205128205128,0.46656717826512684,0.5334328217348733,31.98174317562637,34.1967557444895,0.42303753511779535,0.5769624648822047,51.50145743278385,60.145598101699896,0.43431456732929624,0.5656854326707035,42.867423611949036,48.92295511546437,0.8710020034419907,2.2953999529795794,1.2192636902991705,1.7273235743238828,-1.2818703575146309,-1.6226892866847447,-0.2786617171594792,0.0027795582400482,0.40355589504846484,0.6371488195421318,1.401798547655856,6.3477327486943524,1.1099777527015686,1.4293238186427013,1.3426568511122006,1.6143353791653294,1.7786455508774963,1.825965802202452,3.3010304534293025,0.9332397355066904,Relax
90.05915355867064,666.9830508474577,66.09381871751744,,,,,,,61.630412073161516,61.872151489773444,0.09909370055736756,0.09240176642398173,675.0,66.717,0.09884,87.0,1.0724221450776186,613.6,731.0,30.508474576271187,54.23728813559322,532.0,800.0,9.833333333333334,148.4375,,,0.019982303465059158,0.005284693862527698,0.0027165422715033126,0.027983539599090168,3.7811657562130785,0.7140734785998568,0.18885008609488127,-5.242940587065662,43.75021788502015,82.02020275808549,0.5334078240949884,11273.296549664321,1.8747381549879958,4.759021041445554,615.0656143617381,0.5338983050847458,0.5431034482758621,0.7936507936507936,0.13333333333333333,51.995163240628784,52.024743465268166,51.9665236054339,50.86206896551724,0.5249031282487479,0.47509687175125226,31.709076259667032,30.167206447193387,0.419211603608243,0.5807883963917571,53.10525348385404,62.507165292413156,0.44263617933040517,0.5573638206695944,43.73576033879925,49.07752060628494,0.9715452207896645,2.8454454161044427,1.4423150713335244,2.0216231134979488,-1.6616485539125758,-1.8506557083500565,-0.29640866105331015,0.004472854370096625,0.6359925881682648,0.6808008769813458,1.3403846598158131,6.334938045267853,1.058116568493482,1.5258509766719857,1.2972300697069885,1.3120310706486578,1.6996874438426341,1.7918859964718714,2.8313318749190057,0.9332397355066904,Relax
90.80722196630545,661.6386554621848,64.952489950111,,,,,,,59.45194612714612,59.70547309343854,0.0981691281394959,0.0898556117245239,665.0,66.717,0.10032631578947368,84.5,1.0925208371009625,599.2,717.6,29.411764705882355,52.94117647058824,532.0,800.0,9.916666666666666,148.4375,,,0.01647818562814544,0.005912676033413242,0.0028305673680167737,0.025221429029575457,2.7869251646843556,0.6533406814032064,0.23443065127197388,-5.130656752514146,42.21814489832134,81.62692382793483,0.5172085743095615,10826.359617942271,1.9334559589135438,4.741452558866287,631.2882491316102,0.5378151260504201,0.5470085470085471,0.8125,0.12903225806451613,50.01039717196923,50.03554762287315,49.98632501312959,51.28205128205128,0.4860924294191693,0.5139075705808309,29.434629875326035,30.26506829621171,0.42007088365209444,0.5799291163479057,52.90475655249952,62.16141429964597,0.43400461862250006,0.5659953813775,42.809524067528926,48.88770697581647,1.030362907167414,1.8730189057360103,1.3445462253755949,1.6467365334721669,-0.6131617812237113,-0.8151277088131166,-0.3386613679279307,0.0018013070380595764,0.2594350037581232,0.683619191553337,1.4542450230283985,6.367465767491444,1.0593675749702296,1.4627716227293646,1.186379321625255,1.4706929113473126,1.7842278076106883,1.7496908945448528,2.999001717928219,1.0429136112566637,Relax
91.00663076790796,659.7333333333333,62.640595923914084,,,,,,,51.98884819011145,52.20431004410761,0.0949483567965553,0.07880282163012042,658.5,63.01049999999999,0.09568792710706149,83.5,1.2048852418282399,600.8,713.0,25.833333333333336,51.66666666666667,532.0,800.0,10.909090909090908,148.4375,,,0.013324870435345698,0.004272019869161037,0.0026342104095622904,0.020231100714069028,3.1191031042565145,0.6586329940060737,0.21116102032897333,-5.455668526314217,36.91402163935348,80.69383946190936,0.45745774256755173,9357.96927884147,2.1859942612127337,4.678151725080452,705.5850799158219,0.55,0.5593220338983051,0.8333333333333334,0.12903225806451613,49.08382959230417,49.08861474643474,49.08153618011112,52.54237288135594,0.505795335128312,0.4942046648716881,26.25518512147099,25.952613270983335,0.42313887612540574,0.5768611238745942,52.49063710665301,61.28807994416257,0.43744481632776516,0.5625551836722348,41.50061282454182,47.062548161118954,1.099154153300504,2.642532351694725,1.4831922006323333,2.0861647107064063,-1.6196762341679296,-1.7962958300646417,-0.27182019751343023,0.004295419390227876,0.5484865216236067,0.7253075825095507,1.457246097092175,6.41726653309049,1.0542844771035875,1.5213694060056826,1.2229983182298034,1.4692331561866003,1.794891971119941,1.7195966695638432,2.8608589068149795,0.9784761677112068,Relax
91.30236156591316,657.6,61.67376899065441,,,,,,,51.507281038703645,51.724322110515246,0.09378614505878104,0.07832615729729873,657.0,62.2692,0.09477808219178081,82.25,1.1973796276357793,600.8,708.4,25.0,51.66666666666667,532.0,800.0,10.0,125.0,,,0.018830297453646134,0.00386852099218616,0.0030194485263842176,0.025718266972216512,4.867570188110792,0.7321759850299608,0.15041919412242394,-5.554883017548708,36.574618916622605,79.38473973992099,0.4607260669550317,9121.509352387591,2.170487132644924,4.667036817717458,689.2142245354586,0.55,0.5593220338983051,0.8636363636363636,0.125,49.61779013203614,49.567532459802564,49.6662871577803,51.69491525423729,0.5147621053698525,0.48523789463014755,26.241544239388745,25.477890049137354,0.4180040658597953,0.5819959341402047,51.324801494854654,60.56155261458176,0.4349468270733924,0.5650531729266077,40.760605322750244,46.45871574013151,1.1768359242160997,2.464892440890946,1.5421668478786923,2.1897875694973656,-1.867530835277643,-2.3755399765568805,-0.23726207648046985,0.0032420686522957316,0.4683551010893294,0.7402319195289517,1.527372959379796,6.3371861958035165,1.0559599769017827,1.2075752257543737,1.1688152957041338,1.414678332667167,1.818119883628703,1.7230149659319727,3.142515983171058,0.9784761677112068,Relax
91.04948747862406,659.4285714285714,62.70506310871007,,,,,,,53.179421277949494,53.40500399482873,0.09509000038149273,0.08064470297782636,658.0,65.2344,0.09914042553191488,87.0,1.1791227057732259,602.2,711.2,26.89075630252101,52.94117647058824,532.0,800.0,9.916666666666666,125.0,,,0.02380813617326046,0.005223748441292011,0.0026613128902756296,0.031693197504828095,4.557672797768166,0.7512065063688687,0.16482238627062581,-5.254540042590897,37.76304047403806,80.60062899008287,0.4685204190985214,9562.143517678844,2.1343786935137143,4.68752536767214,688.1290608009467,0.5546218487394958,0.5641025641025641,0.8787878787878788,0.12121212121212122,50.473186119873816,50.46117767029196,50.48164849869682,51.28205128205128,0.5333433220460878,0.4666566779539121,27.579101464820017,25.797369507457027,0.4146745894981181,0.585325410501882,51.902961973091685,61.66477059080641,0.43603568123032527,0.5639643187696748,41.560343472997424,47.26546416529228,1.0505036202343814,2.7502461495231265,1.4577870994012536,2.2026044875941517,-2.115913677433573,-2.6463957230427058,-0.22918155405033674,0.004636389782304267,0.6142580325642488,0.7281987427018688,1.5814640603916945,6.377928897725363,1.0699062981058256,1.1488649541835372,1.176119486559388,1.3842212879579998,1.7868751295834602,1.7354762250207576,3.1749019551919586,0.9849739661868491,Relax
90.73722158091817,661.8833333333333,63.16726938509079,,,,,,,53.77302125718854,53.99366545637195,0.09543565490155484,0.08124244643898251,661.5,65.2344,0.098615873015873,88.0,1.1747018841097085,602.6,713.0,27.500000000000004,55.833333333333336,532.0,800.0,10.909090909090908,148.4375,,,0.025739361792999314,0.0075423391172281485,0.004448112925135146,0.037729813835362606,3.4126497619559,0.6822021944056047,0.1999039579187911,-4.887222917323859,38.17928698531844,80.85807223175877,0.47217656730533203,9698.421817264722,2.117851814855844,4.693671179092353,684.981660087101,0.5916666666666667,0.5982905982905983,0.9142857142857143,0.15151515151515152,51.099020674646354,51.1322181966652,51.06319736917495,51.28205128205128,0.5386102013118544,0.4613897986881453,28.023295394113852,25.93677122725408,0.4132330192752261,0.586766980724774,51.9781587448984,61.93786288310617,0.4360946334281682,0.5639053665718317,41.75544318562324,47.48165414252844,1.045842860316225,1.9100669623801387,1.3709297905586944,1.9034772154651254,-0.9182855586867511,-1.7299056256915963,-0.22118913347267025,0.003347900214983071,0.3521415231055176,0.744222363027538,1.6397432619294288,6.381727678869736,1.0852966205795715,1.5133729780197949,1.256982227745002,1.4926156509734263,1.810107994498254,1.7376446506128382,2.81413344842007,0.9209187460811358,Relax
89.59408373055201,669.7777777777778,63.30646738099146,,,,,,,48.28739394286156,48.47183760163998,0.09451861420519626,0.07209464921794194,677.0,56.3388,0.08321831610044313,78.0,1.3110350800024941,614.6,730.2,26.495726495726498,54.700854700854705,532.0,800.0,11.7,132.8125,,,0.02988631673557768,0.012638668088940699,0.00524246531536199,0.04776745013988037,2.3646729643710884,0.6256628027675696,0.2645874555147932,-4.370994268525908,34.27476506469271,82.234110170672,0.4167949892515098,8854.751073538506,2.3992610894766835,4.654146466689671,789.2044030409285,0.5982905982905983,0.6086956521739131,0.9285714285714286,0.15625,52.16658642272508,52.13766411775189,52.19517377024858,51.30434782608696,0.5570184195153693,0.4429815804846307,25.593732249025006,22.823995763421784,0.4004246566622455,0.5995753433377544,52.0370182580919,63.67572226813943,0.42362198249942684,0.5763780175005733,41.005428906595846,47.83059893508507,1.2169341743808832,1.913562658568868,1.4492001747104744,2.1460371489725283,-1.5325396690752502,-2.4771829596896717,-0.13584313733253436,0.003393126218120709,0.3446676631634466,0.7801488212757794,1.7623455840217617,6.389470168245878,1.0840162913742497,1.465799078896369,1.232050064632255,1.5223816331886642,1.8401945226298524,1.712712731249066,2.7476909429033483,0.9982581216488708,Relax
88.42577724819265,678.9310344827586,60.28248345161679,,,,,,,46.30813619938584,46.48792400791823,0.08879029001457092,0.06820742291544464,680.5,51.891,0.07625422483468038,76.75,1.3017687257388753,634.0,737.0,27.586206896551722,57.758620689655174,532.0,800.0,11.6,132.8125,,,0.03394317495763914,0.01401645873338344,0.009157337421067478,0.05711697111209006,2.4216655293105966,0.5942747715215299,0.24539919502868296,-4.2675230160583215,32.871926309283886,77.93194629445489,0.42180296877331847,8048.047851869842,2.3707751581459613,4.612660659897952,739.0364892034354,0.6379310344827587,0.6460176991150443,0.9452054794520548,0.15151515151515152,52.043063371666264,52.26383062158444,51.84789067502237,48.67256637168141,0.5356979210173105,0.4643020789826893,24.071257520048494,22.40985841958768,0.4515049035204746,0.5484950964795253,52.365681293403625,57.71675385812578,0.46423240325380943,0.5357675967461906,40.752852758542026,43.78027769615812,1.1561251873771834,2.3799385555566737,1.4365559408216921,2.287788593738947,-1.9667280454067235,-2.810429590749651,-0.14232998749913137,0.00580348097366646,0.5503491234834037,0.8371808012537896,1.7989797172015418,6.349191770915038,1.1603943750334216,1.2832911145522397,1.2479454817239282,1.6344599560028796,1.8256306920707441,1.7241890915047573,2.3843313603799743,0.9459284131210444,Relax
87.1989174192322,688.3478260869565,48.26190308195788,,,,,,,46.194763126905166,46.39827198196708,0.07011266870168212,0.06710962303681271,684.0,48.925799999999995,0.07152894736842104,72.5,1.044748361397025,650.0,737.2,26.956521739130434,60.0,592.0,800.0,9.583333333333334,93.75,,,0.027685158877713195,0.010667672067787447,0.006837914469416734,0.045190745414917376,2.595239027014382,0.6126289492134462,0.23605877641190823,-4.540537412937298,32.808532753786714,60.13653054128263,0.5455674356082824,6198.335074090568,1.8329539754971749,4.499245159905577,440.9099709130051,0.6521739130434783,0.6607142857142857,0.9594594594594594,0.14705882352941177,49.71792985038019,49.69978473258645,49.73698049571624,50.0,0.5184382848757147,0.4815617151242853,23.623241143498785,22.767582916471547,0.4742102295333684,0.5257897704666316,41.41177329451574,43.60581770986814,0.4843550789005032,0.515644921099497,33.71195996616231,34.78383367316387,0.9908612464954629,2.0096198582014493,1.2104302747506306,1.778324194260382,-1.4959841623800934,-1.8874110971408973,-0.21741226720460466,0.0022320784052084013,0.2945821309531253,0.6919712393119317,1.9348603128687283,6.227928746521299,1.3310791487233335,1.3353670784616687,1.0181462477452927,1.5536263796343244,1.8683708449721934,1.7843493221696451,4.025079804105207,1.0119420075309076,Relax
87.23951287278412,688.0347826086957,48.83483269983371,,,,,,,46.13671521931389,46.337592608420906,0.07097727314697029,0.0670557890175054,682.0,47.4432,0.06956480938416422,74.0,1.0584809184549473,650.0,737.2,26.08695652173913,60.0,592.0,800.0,9.583333333333334,70.3125,,,0.01825752757663713,0.008132207543422039,0.005162302242892749,0.03155203736295192,2.2450887387158773,0.5786481350353284,0.2577395383339269,-4.811922861723951,32.76562595727406,60.41719573726127,0.5423228529136519,6219.119552483831,1.8439200830786655,4.500699015462398,445.6179223329232,0.6521739130434783,0.6607142857142857,0.9594594594594594,0.15151515151515152,49.28536224741251,49.337296783723865,49.23143571510627,49.107142857142854,0.49591197560372524,0.5040880243962746,23.075290389259948,23.264732700175593,0.4749464118324716,0.5250535881675286,41.63732967323378,43.77865140039134,0.4797117157808698,0.5202882842191302,33.66107729163036,35.055799135432686,1.0457802146519344,2.128520344589788,1.296016020441779,1.8977085827065832,-1.390520837498764,-1.8060025089291756,-0.21731885777170554,0.0036666350374333326,0.37642008291947754,0.6628214732001565,1.8718021769015911,6.286666898714025,1.302554794804288,1.1485670479114611,1.1382125515513144,1.539758075387758,1.9264352307431438,1.7904453541479028,2.836896441990783,0.952416007087913,Relax
87.33768732174725,687.4347826086956,47.86496547484879,,,,,,,45.18432036688771,45.38103186461658,0.06962837302647032,0.0657288829573346,684.0,48.925799999999995,0.07152894736842104,68.5,1.0593268878716062,650.0,735.4,23.47826086956522,59.130434782608695,592.0,800.0,9.583333333333334,70.3125,,,0.014611356052945142,0.008368087380617402,0.005731546079889335,0.028710989513451877,1.7460807217176917,0.5089116153972794,0.2914593861941514,-4.783329929479697,32.089235368713176,59.81876350024061,0.5364409675332742,6030.407677367196,1.8641380142876065,4.487316782971952,446.0417240339139,0.6608695652173913,0.6696428571428571,0.96,0.14705882352941177,49.27975739196362,49.26778877411221,49.29424166038647,49.107142857142854,0.4933296096586395,0.506670390341361,22.54003321526241,22.842767682534227,0.4895584589129587,0.5104415410870415,41.85426416828651,42.73763022944774,0.490401252318932,0.5095987476810679,33.61422709518876,34.26585087975516,0.9338313953707145,2.051640048569866,1.191922008681697,1.7554520830039306,-1.5085704908552824,-1.9955154185868706,-0.2253270257055799,0.0020507868050843657,0.3074823645072494,0.6724597777350283,1.81373837594683,6.253845702967787,1.2869082580482782,1.2238365927238073,1.2535617042905651,1.5406769981559159,1.8813918484604042,1.7914774063371814,3.792758943560112,1.0714680079739023,Relax
87.46997578351692,685.9652173913043,49.51996415318804,,,,,,,45.32407671232324,45.509993681811146,0.07219019696291643,0.06607343282606765,681.0,45.9606,0.06748986784140969,63.0,1.0925752435619713,648.8,733.0,22.608695652173914,60.86956521739131,592.0,816.0,9.583333333333334,70.3125,,,0.020458606566786323,0.011887055689904062,0.008530027375595184,0.04087568963228557,1.721082755939494,0.5005079241678931,0.2908099116330284,-4.4323052280527495,32.180425144165596,61.329572388115615,0.5247130200177539,6200.28405972878,1.9058036714357964,4.499381696677265,467.52849689943275,0.6695652173913044,0.6785714285714286,0.9605263157894737,0.15151515151515152,51.61129153135149,51.4760697272788,51.755938164368054,48.214285714285715,0.5270232762706726,0.47297672372932736,23.3691044810833,22.138442119287134,0.5489898425027345,0.4510101574972654,45.44144061436823,41.187278669511024,0.5442452630624428,0.45575473693755725,36.13197731481729,33.06435046745198,0.9554485816380888,2.148673435053455,1.2217962392856632,1.8786928487020207,-1.5686627288221526,-2.17927792284528,-0.19427806073284695,0.003609448999035166,0.3926577896466841,0.6876009394430165,1.876917277568362,6.260409942117035,1.2656119413919644,1.2847622440446838,1.3386225173662991,1.6792535273219797,1.8199174265428122,1.7940087657794577,3.639837544545219,1.0714680079739023,Relax
87.8113801773899,683.7130434782608,50.563103741307586,,,,,,,48.8403234324104,49.05537824818186,0.07395369186475857,0.07143395010272803,680.0,45.9606,0.06758911764705883,63.0,1.0352737285059408,645.4,733.0,25.217391304347824,62.60869565217392,592.0,815.0,8.846153846153847,70.3125,,,0.020679573489054116,0.010664784693388512,0.008105339396372141,0.039449697578814766,1.93905213125157,0.524201065109291,0.27033882001457227,-4.540808115411832,34.687390612960456,62.86521396235876,0.551774000701404,6850.6519191822645,1.8123362078112055,4.54270201159024,455.73161390312526,0.6695652173913044,0.6785714285714286,0.9473684210526315,0.1875,49.681378333726684,49.69223071626707,49.67042156554592,50.0,0.4693251646545288,0.5306748353454709,23.76367794304011,25.26917041478266,0.5369724551700839,0.46302754482991604,46.06662571551032,42.777343556142306,0.5211835596731065,0.4788164403268936,36.65273792088013,35.13141112431692,1.0000638431838533,2.2918403788533612,1.284969629379562,1.771703425724079,-1.2614564792704144,-1.2355767981162677,-0.28762316920690767,0.0035045362770648523,0.38984927807207126,0.7043941516327781,1.7824570765657417,6.308321029111181,1.294172525056535,1.3157498834172583,1.4608873914710834,1.877637429880345,1.7834028030211202,1.8104996138714708,4.099638117563087,1.0119420075309076,Relax
87.72627692500348,684.1739130434783,49.99636142367169,,,,,,,46.283167339188964,46.48623908047659,0.07307551555315511,0.06764824916124468,681.0,45.9606,0.06748986784140969,63.0,1.0802277436474983,645.4,726.4,21.73913043478261,60.86956521739131,592.0,815.0,9.583333333333334,70.3125,,,0.01262289827674322,0.005115423144444728,0.004555970735974402,0.02229429215716235,2.467615663515832,0.5661941714838405,0.22944990172299898,-5.275495156813517,32.87073488566409,62.56630111648147,0.5253744315884633,6461.0003837236145,1.9034043909912248,4.517269876795033,476.35588909276,0.6608695652173913,0.6696428571428571,0.9466666666666667,0.15151515151515152,49.51115567811482,49.55823754583358,49.462805808374135,47.32142857142857,0.44970373009340575,0.5502962699065941,22.0437015666848,24.38482046328307,0.5586374382337698,0.44136256176623023,46.76333750400279,41.5659993370177,0.5350727418405432,0.46492725815945674,36.55635726706325,34.07603094487021,1.1181898195097377,1.5736479939208303,1.2581565998511133,1.8362823181912264,-1.2189419162511186,-2.0325858076166403,-0.13262068736243787,0.0018629238921769517,0.20878440150327568,0.6735906778575531,1.9148195619852824,6.31914809430976,1.2626318231827485,1.2089931538422622,1.4333160840677364,1.823891886289168,1.8091002143166603,1.7770984336867222,3.1157633997006093,0.952416007087913,Relax
88.36312847886508,679.3534482758621,49.52667341251929,,,,,,,45.55274057521724,45.74878839892363,0.07290265993087033,0.06705307920468498,677.0,42.9954,0.06350871491875923,57.75,1.0872380626746319,640.0,713.0,19.82758620689655,61.206896551724135,592.0,815.0,9.666666666666666,70.3125,,,0.026979741533914855,0.013021830656989133,0.008499963965536797,0.04850153615644078,2.0718854548637653,0.5562657118094613,0.26848285000680117,-4.3411280486300665,32.349278507947346,62.31422550452531,0.5191315184619941,6332.886043913193,1.9262941363349537,4.508571783218077,480.1421087984845,0.646551724137931,0.6548672566371682,0.9324324324324325,0.12121212121212122,49.20273348519362,49.1991356025567,49.20720231104652,49.557522123893804,0.454651742648692,0.5453482573513081,21.814006445240235,23.890925385791853,0.5673465861025613,0.43265341389743867,46.936578130462614,40.98805110799745,0.5434202357189095,0.45657976428109054,36.59845108600912,33.54695701119019,1.0986539927865242,2.002938585601562,1.296844157563621,1.7159698431291839,-0.9658963875764357,-0.8815237256027086,-0.2907446146484402,0.0028914757724929573,0.2877564156628052,0.6722590439188822,2.0794415416798357,6.355699421795758,1.2378536786455208,1.3336598228019778,1.602070330494967,1.9030742165525154,1.9003282134485127,1.7710594471773682,3.9560664268297154,1.0050489389411097,Relax
88.18303909350911,680.7241379310345,49.39716348253147,,,,,,,43.77005130570843,43.960772333925966,0.07256561172146357,0.06429924967658904,679.0,47.4432,0.06987216494845361,63.5,1.1285607854905384,640.0,720.0,18.96551724137931,57.758620689655174,592.0,815.0,11.6,70.3125,,,0.043353482053393975,0.02409677260344416,0.012488686810267002,0.07993894146710515,1.7991406055430612,0.5423324509648896,0.3014397258857872,-3.725677364322729,31.08496022351702,62.572837801326074,0.49678041328754075,6110.630736123999,2.0129618101935742,4.493056150168419,503.826931398025,0.6293103448275862,0.6403508771929824,0.9315068493150684,0.08571428571428572,49.589186323880206,49.62637922726801,49.55047205842714,50.877192982456144,0.4619982843059383,0.5380017156940619,21.128989813200153,22.800815620991635,0.5391716306248767,0.460828369375123,45.94617559856441,42.477158313344646,0.5238954110753128,0.4761045889246871,35.759511061117934,34.08948643907239,1.127979347453075,1.8888443813361642,1.351114428799062,1.8225819512823054,-1.2611056237244682,-1.636948400014254,-0.25039366549099806,0.0015283373941339282,0.2424494313706758,0.6575947051921847,2.056452023455137,6.372940801106102,1.2456104819456164,1.258490641201767,1.4901875424939586,1.9014395980647218,1.8896921354703355,1.7538685881543168,3.1217856057069726,0.886807887300979,Relax
88.6099579474176,677.4913793103449,48.64413735436702,,,,,,,43.460026611168544,43.64166023433519,0.07180037833674653,0.06414845699646962,674.0,45.9606,0.06819080118694362,62.25,1.1192845736055357,633.0,715.0,17.24137931034483,61.206896551724135,592.0,815.0,11.6,70.3125,,,0.047501450474462574,0.027809580878961206,0.01357774803628836,0.08888877938971214,1.7080965973995985,0.5343919761368703,0.31285817028757457,-3.5823746817250117,30.859313893937703,61.28161165287231,0.5035656383963804,5941.092539081427,1.9858384364440147,4.480836427007629,486.781519470037,0.6293103448275862,0.6403508771929824,0.9452054794520548,0.08571428571428572,51.30023640661939,51.398537727839276,51.20252601715221,50.0,0.4858960724463536,0.5141039275536464,21.515090583286362,22.13079144144107,0.5483112808861966,0.4516887191138033,45.37783471360433,41.18601757245122,0.5356817542877764,0.4643182457122238,35.510892738019216,33.06100401759467,1.1615744093154414,1.3726578232577484,1.272125842466107,1.5201583581157658,-0.6463726959875409,-0.7044352912878953,-0.3193049196623528,0.0005792603889068719,0.09779452787648212,0.6298182458181172,2.0541237336955462,6.318935089843252,1.247192420352809,1.2243322427084526,1.48875882987202,1.8707943274658816,2.0011128394331523,1.772603527197079,2.487504251126456,0.8276873614809139,Relax
88.2117250123714,680.6120689655172,45.785847737848684,,,,,,,42.711366983102025,42.89785821590424,0.06727157778356763,0.06275434852047264,675.0,43.7367,0.06479511111111111,57.75,1.0719827289995898,641.0,715.0,15.517241379310345,59.48275862068966,603.0,815.0,11.6,54.6875,,,0.04836021528049102,0.02047428932089291,0.012918562948757296,0.08175306755014122,2.3619972601999923,0.5915400697451564,0.25044062485282903,-3.888585359447696,30.333366442844937,57.09703558118106,0.5312599180340404,5441.066640588422,1.8823177997326823,4.442654155011711,429.8990655457096,0.6293103448275862,0.6403508771929824,0.9452054794520548,0.05555555555555555,50.29617662897148,50.334596156501895,50.256942152769,50.0,0.4749797416464084,0.5250202583535917,20.905593979820875,21.97925656837022,0.554059909446375,0.4459400905536249,42.50029299490694,38.128684313856425,0.5366530613168438,0.46334693868315624,33.49118364810401,31.1198030746016,1.1748690249720928,1.476041695406919,1.3542484179986776,1.5254462201163848,-0.515430792329969,-0.4767004168262101,-0.3840156056225018,0.00036763416663352337,0.10979551069555184,0.6918601359991539,2.2192034840549946,6.26721095191222,1.276900453195003,1.116699054588803,1.7172239304185979,1.931696658005412,1.9626666826921368,1.7698569841809537,2.6240158837400847,1.0050489389411097,Relax
88.0114347891491,682.051724137931,44.88397502887644,,,,,,,42.81669727124444,43.004076226357654,0.06580728915480254,0.06277631997098454,678.0,40.771499999999996,0.060134955752212386,54.75,1.0482820462432159,643.0,715.0,16.379310344827587,59.48275862068966,603.0,815.0,9.666666666666666,117.1875,,,0.061823373325580036,0.019640551509295997,0.012316315347975632,0.09378024018285167,3.14774120758873,0.6592366708065315,0.20943166141397238,-3.9301588955286944,30.40847391832069,56.02622996361549,0.5427542409701409,5352.243918703632,1.8424545116636206,4.435506007347332,412.90312067186755,0.6379310344827587,0.6491228070175439,0.9459459459459459,0.08823529411764706,50.02678093197643,50.03697211313472,50.01428964075229,50.0,0.47568136757325935,0.5243186324267405,20.972622086734468,22.018732057126012,0.5573755142676146,0.4426244857323855,41.82783080011648,37.27426745749343,0.5387860091844462,0.4612139908155534,33.08638924570159,30.61205298486417,1.136094012459336,1.1976214458772874,1.2753865211950437,1.2810874311136373,-0.03674440402198975,0.19907529833307924,-0.49523980641945037,9.567948058091635e-05,0.06004361092532191,0.5990023722762405,2.0014800002101243,6.202471512219746,1.2947029982240914,1.5580443428908342,1.4362925055490854,1.9155970211669928,1.9755491221529102,1.7697011662858522,3.4789853891871823,1.0050489389411097,Relax
87.83351591143142,683.5086206896551,43.97558525989762,,,,,,,43.004145401799704,43.18895386646137,0.06433801115123695,0.06291675642424062,679.0,38.547599999999996,0.05677113402061855,51.25,1.0225894468782366,645.0,715.0,16.379310344827587,60.3448275862069,604.0,815.0,11.6,117.1875,,,0.05633792329720501,0.018829343113580647,0.010831316268269504,0.08599858267905516,2.9920280785882185,0.6551029277709949,0.21894945854923384,-3.9723388220208506,30.539202151327792,54.126422061848785,0.5642198576590095,5192.982740474692,1.7723587470832292,4.4223869891274115,383.72575035854544,0.6379310344827587,0.6491228070175439,0.9324324324324325,0.08823529411764706,50.824029771398195,50.88700698087766,50.7600650432983,50.877192982456144,0.48479377080629704,0.5152062291937031,21.265242211547687,21.92211092409718,0.5612344899484083,0.4387655100515918,40.54912581242852,35.8530049098431,0.5427739451352548,0.45722605486474505,32.37624229638105,29.715458169391013,1.1308517160706448,0.8980769203356775,1.2409285731563104,1.3900993217441053,0.009463212600017812,-0.5181691629816836,-0.3338998083459947,0.00018130828556642492,0.04496306480228135,0.6209794787414413,1.791759469228055,6.21126073643228,1.3197292624994554,1.4619186321718374,1.0999784165354727,1.5547219495958622,1.8688981357692833,1.7942870418783101,2.6353513927447816,1.1232899905812401,Relax
88.15092201478011,680.8706896551724,43.66961537896031,,,,,,,39.694704498426375,39.862898143010504,0.06413789878526982,0.058299916711835244,674.0,44.477999999999994,0.06599109792284866,57.75,1.1001370568381863,643.0,712.0,12.931034482758621,55.172413793103445,604.0,815.0,9.666666666666666,117.1875,,,0.04333092315948845,0.019692349812466824,0.0103975561242221,0.07342082909617736,2.200393735239079,0.5901720764107315,0.26821203267360133,-3.927525053052068,28.18732559467136,54.93054556440388,0.5131448323523902,4864.269820456583,1.9487675544070828,4.393987767156839,428.1874597671607,0.646551724137931,0.6548672566371682,0.9459459459459459,0.11764705882352941,48.889538281706606,48.856350728860676,48.920102215002295,50.442477876106196,0.4384995750598779,0.5615004249401221,18.668037230386265,21.124630174277605,0.5759415199797666,0.4240584800202334,41.687236535672355,35.77064643002632,0.5472877376874825,0.4527122623125175,32.2979976470383,29.37506720010998,1.1973420523131024,1.06588586998818,1.327340245035284,1.4409680008670578,-0.03976303449454299,-0.24558201795802148,-0.39339594507146075,0.000218502731042198,0.058004009281600155,0.6326484124689054,1.8658674413817766,6.122772266548741,1.2636050375219299,1.3363094857112692,1.266594986035998,1.7566649876904956,1.9456452221152456,1.7579829070407245,3.402742679667552,1.0641694647611748,Relax
85.85037380389706,699.0796460176991,46.56890854132959,,,,,,,43.44362110006156,43.63876279644187,0.06661459650071198,0.06214402228349482,695.0,42.9954,0.06186388489208633,59.0,1.0719389259488685,663.4,736.2,19.469026548672566,69.91150442477876,593.0,827.0,7.0625,109.375,,,0.06132764657917746,0.009294535005342835,0.013425060177912698,0.084047241762433,6.598247953654929,0.7296806568920549,0.11058703189349943,-4.678328685381461,30.857265095955263,58.15949610173937,0.5305627999592042,5638.037230242763,1.884791018286415,4.45809804932916,438.47398352248854,0.6194690265486725,0.6306306306306306,0.9571428571428572,0.07894736842105263,49.85628429579305,49.85631634580251,49.85472886212518,48.64864864864865,0.4560820879635543,0.5439179120364457,20.839152340492888,22.757535134662657,0.5260373599247532,0.47396264007524697,42.18217118659061,40.03987288682872,0.5106707446034242,0.48932925539657574,33.26864767528961,32.56606229035687,1.1886056259266111,0.901527371310511,1.2415024455612687,1.6320737753561136,-0.6925053380917117,-1.6925053380917117,-0.06676708636467853,0.0010949804055022153,0.08153758808308355,0.6405795127734413,1.563975538357343,6.147266572881491,1.3368928281162697,1.2897715265450913,1.2327507126967578,1.6512973993543345,1.7600206048563185,1.7820561986985364,2.940862627426946,0.9053334905860869,Stress
85.7680103566544,699.8672566371681,45.49440790297724,,,,,,,43.99543401633531,44.193166390274136,0.06500433828205637,0.06286254085915016,695.0,41.5128,0.059730647482014385,56.0,1.0340711239735778,665.4,734.2,20.353982300884958,68.14159292035397,587.0,827.0,6.647058823529412,109.375,,,0.06007166188217474,0.009299391579823546,0.011910604693157986,0.08128165815515627,6.4597410880631605,0.7390555661094614,0.1144094718401561,-4.677806302487358,31.249287636668257,56.48840974900679,0.5531982184578615,5545.610240221873,1.8076703189458525,4.450919452940894,408.44968667092445,0.6106194690265486,0.6216216216216216,0.9565217391304348,0.08333333333333333,49.986982556625875,50.00913678652532,49.965066490469226,46.846846846846844,0.4284389746617648,0.5715610253382352,20.45429975282406,23.624979145803273,0.543026146259123,0.4569738537408768,41.62648301127673,38.18607531658071,0.5161761034971085,0.4838238965028913,32.79590268819025,31.75150380472722,1.162381188893141,0.6279885396498965,1.18507150088853,1.4339780652382315,-0.7109519108209152,-1.7109519108209152,-0.1036447345225968,0.0003564205710515749,0.02981056116378668,0.733624849611302,1.6945957207744071,6.136247878210371,1.3393298101878865,1.0162884407230919,1.2306125853856007,1.6001859231361724,1.7579010838458968,1.7968898320736744,3.4249954637386057,0.9656890566251594,Stress
86.28950955421783,695.8849557522124,44.55148550761832,,,,,,,48.843225879191415,49.058012043788985,0.06402133734801131,0.07018865040183926,694.0,38.547599999999996,0.055544092219020166,49.0,0.9121323316730089,663.4,724.0,21.238938053097346,68.14159292035397,587.0,827.0,7.0625,132.8125,,,0.06448107631596803,0.013367996356404817,0.00828267682826766,0.08613174950064051,4.823540835652168,0.7486330730515177,0.15520405000371446,-4.314891760250061,34.68925298769451,52.411055685263186,0.6618689994723451,5711.730765938185,1.5108729987311984,4.463737837857511,316.74579547944563,0.6194690265486725,0.6339285714285715,0.9436619718309859,0.1111111111111111,49.07226562500001,49.02911738867495,49.114156963227614,47.32142857142857,0.42776409649917296,0.572235903500827,22.69023681777797,26.243660753212946,0.5545017197978824,0.44549828020211735,39.02782565657901,34.98210374696511,0.5158892365893757,0.4841107634106245,31.921920543156343,30.923108772349845,1.077604788106551,0.7713214838961209,1.1132038832741769,1.206141394966981,-0.07642813889203737,-0.3424523630120886,-0.37950872154713544,0.00011426909544438804,0.022419697190355917,0.6845827452042919,1.9951003932460853,6.074127966629362,1.3753305264087885,1.2935946367317557,1.1571617886838317,1.5736402690785771,1.7268105248028813,1.8130912168859314,3.6546861333112344,1.0864001887033041,Stress
86.86216753087477,691.1228070175439,47.81734057125679,,,,,,,51.44057487395365,51.667396987891934,0.06918790710670755,0.07443044036694314,690.0,37.065,0.05371739130434782,49.75,0.9295646615230297,658.6,720.4,22.807017543859647,71.9298245614035,587.0,827.0,7.6,117.1875,,,0.05607401978444317,0.014212977701943857,0.011074120489698787,0.08136111797608582,3.945268961955392,0.6891992290583422,0.1746900491967358,-4.253599809075866,36.534366776395785,57.10676562502648,0.6397554891531969,6554.491743161674,1.5630971784605328,4.52350913067161,357.05369687794337,0.6491228070175439,0.6637168141592921,0.9466666666666667,0.15151515151515152,49.375142013178824,49.401244071974695,49.35245577983191,47.78761061946903,0.44508767177346814,0.5549123282265319,24.374954212411208,27.216558772713558,0.5493861549600879,0.45061384503991225,42.32787040793547,38.334502303808854,0.5190937222238439,0.48090627777615613,34.53829039000137,33.24360944835336,1.0556108412376368,0.8759124428725631,1.1101239268170051,1.3020106982393624,-0.31361573409652266,-0.7634299090281056,-0.28092927782477567,0.0001569470797058722,0.035451683403150684,0.6695229409037933,1.701105100959924,6.09140470703333,1.3388306293710155,1.1926359313893213,1.3922359506591568,1.6495794891724864,1.7920089794143432,1.809383327997537,3.559154616168931,1.0189397389543913,Stress
86.51772128895207,693.7719298245614,51.761884204690716,,,,,,,57.319165430628146,57.572770419750604,0.07460936653603163,0.08261960878861561,691.0,39.2889,0.05685803183791606,50.25,0.9030467177219588,659.0,725.2,27.192982456140353,73.68421052631578,587.0,898.0,8.76923076923077,140.625,,,0.05974997419154064,0.01280057837184489,0.014272581670060264,0.0868231342334458,4.667755819765286,0.6881803417841129,0.14743280676124085,-4.358264923777009,40.71009637550192,60.95491173172596,0.6678722882033644,7795.800378395978,1.4972922483280275,4.598830819874916,365.0692673337297,0.6578947368421053,0.6696428571428571,0.9466666666666667,0.15151515151515152,50.5175983436853,50.499302622960826,50.53662740719791,47.32142857142857,0.49107902817432536,0.5089209718256748,28.52927694241729,29.042917749919194,0.5220475109834979,0.4779524890165022,44.04166421745887,42.14063451324749,0.5124944984982,0.48750550150180005,37.10517369519067,36.189253574836805,1.0789214844584063,1.0842515944501558,1.1465853910000785,1.2689146716962862,-0.36442734865130255,-0.3387190364439441,-0.3871762962375507,0.0001775862054223971,0.04606542352915764,0.694543396657235,1.5404450409471488,6.108948566682452,1.3213430863682336,1.1817410332324096,1.418131455369622,1.6594466217210915,1.7210848054311194,1.8434869971646688,3.125247643448704,0.9590021072511917,Stress
86.47100589891102,694.6052631578947,52.92165162759078,,,,,,,59.28922658780878,59.55209582854908,0.07618953445154195,0.08535671946719961,691.0,41.5128,0.06007641099855282,55.75,0.8926014838330287,658.6,735.0,27.192982456140353,72.80701754385966,587.0,899.0,8.76923076923077,132.8125,,,0.06476580575189357,0.017568074983615838,0.011114336411139542,0.09344821714664894,3.686562461299534,0.6930662534765766,0.1879979685010591,-4.041671945471056,42.10969079423816,61.45521621370783,0.6852093831677941,8130.002443461872,1.4594079190464324,4.617060786082532,358.7529168359837,0.6403508771929824,0.6517857142857143,0.9452054794520548,0.14705882352941177,50.43779271024231,50.395825891857314,50.483821910411386,47.32142857142857,0.5007388871126507,0.4992611128873492,29.798654691589206,29.754651497106895,0.5239987592163255,0.47600124078367456,44.4860535472855,42.39970093835126,0.516566976685795,0.48343302331420507,37.86138389996148,36.6269977296523,0.78439027302247,1.192452896568693,0.9755829134758267,0.720053851497213,0.30744475086813505,1.018957762699646,-0.7142886001735613,0.00022037711796325115,0.06746387151781197,0.6693077119003763,1.5404450409471488,6.139736066720408,1.299578987747843,0.8645036858950661,1.3163884292618966,1.8460064094025643,1.7316009868248707,1.85358211480664,3.662512392861544,1.0189397389543913,Stress
87.22796572404017,689.3304347826087,56.98271848507806,,,,,,,65.0392593989038,65.30800278257753,0.08266386570186542,0.09435135330912084,690.0,44.477999999999994,0.06446086956521738,55.0,0.8761280342321744,648.0,727.4,29.565217391304348,72.17391304347827,524.0,899.0,10.454545454545455,195.3125,,,0.06082633362054523,0.03183183542011275,0.008092782859414787,0.10075095190007277,1.9108647936182932,0.6037296171739822,0.3159457535615578,-3.447288376136245,46.17973163331048,65.34622301233601,0.7066932028281528,9480.293176372616,1.4150412031671553,4.683791877986786,369.8703921352208,0.6347826086956522,0.6460176991150443,0.9178082191780822,0.12121212121212122,51.64424514200299,51.68606265525463,51.600586672908946,46.902654867256636,0.5340500008294761,0.4659499991705237,33.7570707113169,31.531414311692,0.49076232888949806,0.5092376711105022,45.77792464673952,46.631646732829324,0.505185719263355,0.49481428073664513,40.21913852863715,39.80414906458224,1.0505742347722067,1.0312205743664746,1.123623624529781,1.2159113764951246,-0.4440235460760764,-0.5230888119923351,-0.41050629297030844,0.00016630625379884467,0.03882607811111008,0.6406203702071953,1.5305439699644374,6.227928746521299,1.2630741046981868,1.3071088401814503,1.187852559646531,1.6226138401896568,1.7725479828199968,1.836719727752665,2.4596927817430996,1.0714680079739023,Stress
87.15029237119684,689.2434782608696,55.12467389478238,,,,,,,62.63266621494715,62.90905265102523,0.07997852084705316,0.09087161241334446,681.0,41.5128,0.060958590308370045,56.5,0.8801265733379716,644.0,727.4,28.695652173913043,73.91304347826086,573.0,899.0,10.454545454545455,101.5625,,,0.05337270403832628,0.0414616707524883,0.008548798808925864,0.10338317359974045,1.2872781793320074,0.5162610333956732,0.40104853922372136,-3.1829858748489546,44.483417727561495,63.83911116688955,0.6968050919642663,8921.437795850634,1.4351215447938808,4.657404961701639,366.46753534437926,0.6608695652173913,0.6725663716814159,0.9342105263157895,0.1875,50.142234022378155,50.12897318030557,50.158178223647695,47.78761061946903,0.49604543777462234,0.5039545622253777,31.329959650172164,31.578739907717853,0.5027295324086479,0.49727046759135196,45.26411471933619,45.017685782959276,0.5005448770209445,0.4994551229790555,38.92561144674958,38.88321519250013,0.8915156184687806,0.7539002698172492,1.0370079232391467,0.8229945997774841,0.4610783874853457,0.5986473352149342,-0.7838748466206822,0.00018865902912017988,0.028019000237569612,0.6586972433303573,1.5885312276147867,6.1757548334778205,1.281780647880292,1.189951732238844,1.168050679919324,1.6771932276075594,1.721563816610167,1.8116154794313517,3.574761864501057,1.0119420075309076,Stress
87.4640954021647,686.5739130434782,57.27083408077939,,,,,,,67.92139419559705,68.21666078437215,0.08341539489449351,0.09892801474864052,679.0,45.9606,0.06768865979381443,59.0,0.8431928519584471,642.4,725.0,31.30434782608696,74.78260869565217,566.0,899.0,9.583333333333334,109.375,,,0.057113969220863654,0.010807377097810888,0.009565049620061205,0.07748639593873574,5.284720677733407,0.7370838265083403,0.13947450990436683,-4.527526313422296,48.23646343053198,65.09535003024175,0.7410124288159211,9864.505023316902,1.3495050300275266,4.701045408264114,351.386009188855,0.6521739130434783,0.6637168141592921,0.92,0.2,50.79225352112676,50.793732343466004,50.792013096646706,46.902654867256636,0.47072167143927374,0.5292783285607262,33.09686775009467,35.09512988425774,0.524621641547875,0.47537835845212484,47.149063138359786,44.88173838806445,0.5055143955183934,0.49448560448160656,40.73350469633257,40.286713581077684,0.9670651256928807,1.1316998736339872,1.1234970002796016,1.1470440423793298,-0.19779192692638503,-0.21773540868283048,-0.4791932095705582,5.598019533593391e-05,0.05232397219828036,0.6090221513993401,1.5453590557495782,6.227928746521299,1.2746797957544056,1.221999595449019,1.1994187928880025,1.6871442414055249,1.7153112798337171,1.841315835109432,3.132350579068091,1.0714680079739023,Stress
87.23966039296843,688.1578947368421,63.248432622136676,,,,,,,76.39713426493041,76.71407398026656,0.09190976824631716,0.11101686814789123,677.0,51.891,0.07664844903988183,66.75,0.8278901195796612,640.0,735.0,33.33333333333333,75.43859649122807,553.0,909.0,10.363636363636363,93.75,,,0.0659842531277426,0.03161907016325555,0.006417574574778227,0.10402089786577637,2.0868498911274993,0.6343365081590197,0.30396844107282456,-3.4539948542348524,54.245041923892956,68.48192419327638,0.7921074438679219,11670.40362280242,1.262454996151687,4.7740559864120105,345.82138937553145,0.6666666666666666,0.6785714285714286,0.9342105263157895,0.2,51.70591061989428,51.477979133856344,51.96677914706621,48.214285714285715,0.5172798081048994,0.4827201918951007,39.026090174211845,37.699883952076036,0.5598132831132479,0.4401867168867523,51.23863529691018,45.43540683348045,0.5434089681047785,0.45659103189522166,45.54356958658096,41.74720017033407,0.9470303740684325,0.9339636055556237,1.08501898958096,1.1535731920201018,-0.12826081813953483,-0.51515729775572,-0.42659863614454424,6.578053854618743e-05,0.03772373377546423,0.6034500421480562,1.496642418288756,6.2625430842642675,1.2183742550350223,1.1601037380692212,1.2941712853873437,1.7398801003076896,1.7277656193140063,1.851066842660628,3.503159977861644,1.0788773706575907,Stress
86.78739654760942,692.3859649122807,66.47223237848483,,,,,,,82.30399080636897,82.67057224029938,0.09600459244852876,0.11887010277106957,679.0,52.632299999999994,0.07751443298969071,74.25,0.8076428825288625,642.6,750.0,36.84210526315789,77.19298245614034,525.0,899.0,10.363636363636363,148.4375,,,0.05437549724563755,0.0264807563035306,0.006836659550990839,0.08769291310015899,2.0533966863472033,0.6200671790151645,0.30197145205206544,-3.6313369870096177,58.45692223568805,74.07366835703846,0.7891727726231003,13603.469005544343,1.2671496466814731,4.840619781409575,375.44969074808756,0.6666666666666666,0.6785714285714286,0.9342105263157895,0.1935483870967742,49.94095069382936,49.965366490807355,49.92373562490679,48.214285714285715,0.48163055747162475,0.5183694425283754,40.568889822480614,42.087759078925956,0.5138171959334167,0.4861828040665833,53.09677824115311,51.64920603725027,0.5014646436004859,0.49853535639951446,47.24988191000461,47.111675562242766,0.8061671680369854,1.0614140849597158,1.0429507712360515,0.8018453060043282,0.44429383365050956,0.7586800242192351,-0.7271549517273214,0.0004467410694189928,0.06850770805479034,0.6088869837060642,1.5781853689299958,6.339340343055177,1.248744498422134,1.4357548110009581,1.3700707716340799,1.550728708013876,1.81393189479422,1.860541541677627,3.538764799272381,1.1388150023607901,Stress
86.32189299926404,696.5132743362832,71.89341255391402,,,,,,,79.89820532581264,80.20500147687027,0.10321901276385897,0.11471167638829095,681.0,60.7866,0.08926079295154185,90.0,0.8998126085654077,640.0,751.6,37.16814159292036,78.76106194690266,553.0,990.0,11.3,93.75,,,0.046154938449244634,0.036743915157444844,0.012224922457298122,0.09512377606398759,1.256124674016753,0.4852092753151143,0.3862747745918755,-3.3037826409792497,56.71350042937202,80.14487941991645,0.7076372294756788,14279.470574686979,1.4131534610480379,4.8616822158085045,453.0280549501304,0.6460176991150443,0.6576576576576576,0.9178082191780822,0.21428571428571427,52.44215938303341,52.13043099301178,52.82859588604413,45.04504504504504,0.5083128548191062,0.4916871451808938,40.46085863005234,39.79366829077254,0.5798132966739078,0.4201867033260924,61.02669703723178,51.95136134846586,0.5559352509171417,0.44406474908285826,51.77518146928678,46.27353445542553,0.8756185888546184,1.7697290622050006,1.175911503816387,1.2169621585984742,-0.5699457896972717,-0.20933508767220976,-0.4768039890066901,0.0002832607479292707,0.15474119407247072,0.6354548827077777,1.7740598921286541,6.3619980994876,1.2322707326886757,1.406875655397562,1.2105117495072917,1.644032620104026,1.845447511169261,1.8260264793868055,2.7766353316821215,1.0260446226642317,Stress
85.53177351767384,702.4196428571429,75.27794005770058,,,,,,,82.72476888687805,83.07982997730646,0.10716946888259288,0.1177711496654465,691.0,74.13,0.10727930535455861,102.5,0.9099806632356914,640.0,767.8,41.07142857142857,80.35714285714286,553.0,909.0,11.2,93.75,,,0.060432046551935174,0.04792726775772438,0.01878048856447165,0.1271398028741312,1.2609115724564837,0.47531964959677564,0.3769650941269157,-3.038070672281578,58.7463111567788,88.0918932387178,0.6668753388871299,16257.973739475345,1.4995306344192947,4.9180365276897,528.3859702218051,0.6517857142857143,0.6636363636363636,0.9178082191780822,0.2692307692307692,51.44906743185078,51.43039331258466,51.46958434438583,43.63636363636363,0.46704124189063945,0.5329587581093604,40.15719113683127,42.897552377728964,0.5758106522676549,0.4241893477323451,66.8460564291192,57.374091663891846,0.5423174181105295,0.4576825818894708,55.14070755859499,50.65563341947598,1.0489346139081843,1.912854453613508,1.3112017786135182,1.633950556168211,-1.1736715934909014,-1.262487815593281,-0.33127374017139716,0.0006431102799602208,0.20294356293721272,0.69931835376613,2.0402208285265546,6.38079744428245,1.29182617500253,1.2804964335574969,1.4972177878337487,2.0896108579361945,1.8899024371678477,1.8303313549695612,3.296826286520038,0.9116993199184291,Stress
84.97241278175821,707.2678571428571,75.20158879657369,,,,,,,83.51403830850592,83.88121158911366,0.10632688596985701,0.11807978754453333,699.0,75.6126,0.10817253218884121,97.75,0.9004664403698749,642.2,769.6,42.857142857142854,83.92857142857143,553.0,909.0,14.0,93.75,,,0.06187790396581773,0.03665054208267307,0.01410932019433306,0.11263776624282386,1.6883216577326194,0.5493530813849921,0.3253841345154345,-3.3063270599628685,59.31297352880589,87.74915667010421,0.6759378184316338,16350.93232305007,1.479426025193089,4.920512630946603,519.2735442659916,0.6517857142857143,0.6636363636363636,0.8904109589041096,0.32,51.07302118171684,51.03586658952754,51.11458128431976,42.72727272727273,0.4592329949107443,0.5407670050892558,40.20001130709927,43.622919330428715,0.5811918962270961,0.4188081037729038,66.89639681552009,56.78720445148684,0.5429374488941361,0.4570625511058636,55.186813714828816,50.63469996121266,0.9044799633633442,1.34889820294168,1.1531297820871855,1.2128319684611062,-0.15129774117435346,-0.2703053254439758,-0.4557400356500424,0.0002854261322658299,0.10112616524193346,0.6709410298617962,1.978345424808467,6.362940301425307,1.283272979214761,1.3987599944191982,1.5182943978780568,2.0096568262237797,1.8244302071702243,1.8479670301163604,3.9974272064375,1.0940391839021149,Stress
85.1781102728951,706.1160714285714,75.07326698005033,,,,,,,84.56374534649602,84.93299377517215,0.10631859267579993,0.1197589868977373,698.5,77.09519999999999,0.11037251252684323,99.5,0.8877713099442451,640.0,768.8,41.964285714285715,81.25,553.0,909.0,12.444444444444445,85.9375,,,0.04924238431363574,0.028322513645043138,0.008817968537329192,0.08638286649600807,1.7386304383422513,0.5700480466911958,0.32787188934453776,-3.564098255442781,60.05669584489905,87.31963837831238,0.6877799422932032,16474.9170258097,1.4539534210110714,4.923793345954774,507.8347477663877,0.6339285714285714,0.6454545454545455,0.8732394366197183,0.2692307692307692,51.200111638291936,51.22518600247085,51.173351859481684,41.81818181818181,0.46264506830745655,0.5373549316925433,40.85623352906895,44.03165183860769,0.5840837226669594,0.41591627733304065,66.73435698197274,56.31380687470765,0.5450769466517675,0.4549230533482326,55.32949584073214,50.5471621773084,0.999221400184572,1.0274699005338173,1.1763556695067983,1.1270262275257577,0.23341622583830457,0.23275810466438784,-0.5480105956927903,8.11019668250994e-05,0.050295390733889944,0.6339650663783307,1.8607523407150066,6.394277578249655,1.2835447792643284,1.5125656404901446,1.563781308830408,2.0009687351513947,1.846794844027177,1.8464468733446702,3.299980763782388,1.0332592292408862,Stress
85.02631292161495,707.0803571428571,76.56948071162476,,,,,,,91.45599049924613,91.87067165978657,0.10828964478807437,0.12934313557909874,701.0,83.76689999999999,0.11949629101283879,116.0,0.8372276139992811,640.0,777.2,46.42857142857143,80.35714285714286,553.0,909.0,11.2,85.9375,,,0.04064273620069099,0.030808328524374387,0.009318202605669564,0.08076926733073495,1.3192126333155656,0.5031955537527243,0.38143627573369066,-3.479970218920361,64.96237492279785,86.56895156049525,0.75041194044497,17667.45216546402,1.332601396783522,4.954144034100064,461.4476230704041,0.6428571428571429,0.6545454545454545,0.875,0.32,49.91007194244605,49.959960952496345,49.864467920903536,43.63636363636363,0.4596758384620853,0.5403241615379148,44.04414108183248,47.75177293234062,0.5766441621276579,0.42335583787234204,65.7379425651173,56.326781210972044,0.5345059136769196,0.46549408632308015,55.952495280956974,52.21560159459303,0.8228452514530413,1.3089739158631049,1.0711863283353833,1.1565824755305767,-0.004829890483886601,-0.21125849345810233,-0.4347610016056849,0.00045616112266064153,0.10762279995742788,0.611745144875774,1.9095425048844383,6.441108939837482,1.2861892788996252,1.5307858040562017,1.48601206232497,1.876508811396278,1.825678817601145,1.868609768790612,3.814924614986647,1.0940391839021149,Stress
85.89123672050209,701.3097345132743,88.11357115819513,,,,,,,104.35815732370901,104.81183728721311,0.12564144888042664,0.14880466103345344,696.0,84.5082,0.1214198275862069,124.0,0.8443381276355356,639.0,776.4000000000001,48.67256637168141,82.30088495575221,304.0,909.0,12.555555555555555,335.9375,,,0.044924311282479236,0.038451224994264385,0.013154391203230763,0.0965299274799744,1.168345385333768,0.465392572596711,0.3983347548069098,-3.2583647241292875,74.11316089440942,99.9362336911683,0.741604502761635,23268.48925596462,1.3484276272273632,5.07373829689712,539.0271138808853,0.6460176991150443,0.6576576576576576,0.8904109589041096,0.3333333333333333,51.16849731245618,50.82401020401575,51.34244644081469,45.04504504504504,0.5452387784382046,0.4547612215617953,54.73338326143601,49.98625937321302,0.4825253393272302,0.5174746606727698,69.41974923123526,71.88984087510708,0.504782105417093,0.49521789458290694,62.50937860261783,61.91435757227213,0.8784474113279188,1.1915660954173535,1.1028618805841215,1.0404866370895445,0.1927435316506525,0.25140911621838,-0.5523472795461922,0.00017534385835689807,0.07513279297086359,0.6382101588732385,1.7819071727850435,6.512613586289847,1.2387811819568955,1.5682775939785651,1.4090259766500697,1.6340606863094127,1.8393165215903697,1.8897080273372564,3.252400021798751,0.9656890566251594,Stress
85.36624327932357,704.5357142857143,89.74648263542781,,,,,,,107.21301521098374,107.69412809074237,0.12738386545303282,0.1521754157199546,702.5,94.1451,0.1340143772241993,126.5,0.8370857069807834,639.0,778.8,50.89285714285714,81.25,304.0,909.0,12.444444444444445,335.9375,,,0.060691952600885515,0.043851869236604904,0.015019467144237866,0.11956328898172829,1.3840220190710484,0.5076136088073028,0.3667670035683475,-3.1269379330997453,76.15124826693658,101.55472980104443,0.7498542747947265,24295.567864630186,1.333592450711508,5.092497164321639,541.7304839868794,0.6428571428571429,0.6545454545454545,0.9027777777777778,0.32,49.33835272644307,48.945709602531295,49.587757339305355,46.36363636363636,0.5202562261737559,0.4797437738262439,54.929583021438376,52.747554876548975,0.46790831106565145,0.5320916889343488,69.46731843512055,74.0787068893397,0.486750019280465,0.5132499807195352,62.621751099260756,64.30380766273196,0.8614848867809209,1.63732198714542,1.184581429762935,0.9741533459261811,0.22916352212925162,0.986841287009999,-0.6285196714444808,0.00040042773563312865,0.14945067914196783,0.5476214069578167,1.6700625342505353,6.472446216661831,1.2474083681137789,1.7869373538398143,1.4453871508829326,1.6400550462006436,1.8938097482092848,1.8790843380772921,2.939495111979417,1.0332592292408862,Stress
84.71308344368376,710.8828828828829,90.36841149013188,,,,,,,107.02718431229601,107.4672927724828,0.1271213777488295,0.15055529805171666,713.0,85.9908,0.12060420757363254,115.5,0.8443500786346458,642.0,783.0,53.153153153153156,81.08108108108108,304.0,917.0,13.875,335.9375,,,0.05567578143068542,0.038206558358650396,0.011213209610268516,0.10509554939960433,1.4572310048983983,0.5297634557196104,0.36354116398761827,-3.264748093324329,75.99085147518264,100.50505072391894,0.7560898773527783,23993.801994755464,1.3225940856412464,5.08706918054381,531.7095426581147,0.6306306306306306,0.6388888888888888,0.8985507246376812,0.32,52.04993128721943,51.608118914608035,52.335378300505766,44.44444444444444,0.5526193820782045,0.44738061792179545,56.516499174126864,50.85114993332289,0.48251067191770003,0.5174893280823,69.81381144882477,72.30004807747682,0.5080266678758862,0.49197333212411365,63.51410452769974,62.5025455543482,0.920457005500373,0.779940527286787,0.9996299163561375,1.1559056148898568,0.14925967912698468,-0.37578758065665463,-0.2996312628126117,0.0002680101533655144,0.03738219812323933,0.6321387647296839,1.897119984885881,6.481308771736025,1.2535151530178632,1.2059890135352096,1.3562363194134788,1.4054181346254198,1.8881806334850575,1.8736844562065122,3.1206226174875904,1.0405862137653317,Stress
84.45783661211487,713.2636363636364,90.85866403757124,,,,,,,111.85012088184976,112.36591737879954,0.1273844051559775,0.1568145566092287,715.5,88.2147,0.12329098532494757,117.25,0.8123251304622876,639.8,788.2,55.45454545454545,80.9090909090909,304.0,912.0,15.714285714285714,335.9375,,,0.05185833617911638,0.045040424843957365,0.010004451944595795,0.10690321296766953,1.1513731577528339,0.4850961420102478,0.42131965535571725,-3.100194862602885,79.45470215279649,101.34642289982688,0.7839911846847454,25297.51727883076,1.2755245461109552,5.11004801117668,517.0794002770824,0.6363636363636364,0.6481481481481481,0.9,0.32,49.74269133909997,49.40165344601254,49.93203588756226,44.44444444444444,0.5131277412863668,0.48687225871363315,56.91615828632563,55.440909484282855,0.4793730555322375,0.5206269444677624,70.168991448424,73.1259876767593,0.49222249351319985,0.5077775064868002,63.88715220982648,64.8887683584224,0.77521883393667,1.3756584732859332,0.9650000495530409,1.0957943614873,-0.4162697782142857,-0.427437444036729,-0.40492239572963157,0.000205415834794552,0.09157970429212263,0.6269416289602643,2.0668627594729756,6.4472243725958975,1.2761907815031632,1.3369105772630265,1.2565222388574084,1.2227539027952015,1.9229677113026105,1.9016791580908778,3.1473046675046787,1.109677044031308,Stress
84.83186340614294,709.4864864864865,89.48142162328902,,,,,,,109.38638771886481,109.87754044804802,0.1261213896636964,0.15417684452394187,713.0,90.4386,0.12684235624123422,120.0,0.8180306845241679,642.0,787.0,54.054054054054056,78.37837837837837,304.0,912.0,15.857142857142858,414.0625,,,0.06503366371873935,0.07296775655995681,0.01618747029206549,0.15418889057076166,0.8912657697691705,0.4217791792781177,0.47323614749319337,-2.6177376263674264,77.6951539509139,100.0264602190505,0.7767460108132118,24415.111070087296,1.2874221252234732,5.0946288142942535,515.1051119751648,0.6396396396396397,0.6513761467889908,0.8873239436619719,0.3333333333333333,49.11136107986501,48.817431331331726,49.26222071831009,44.95412844036697,0.5056921786487077,0.4943078213512923,55.25537044761126,54.62986379580883,0.4807434697198631,0.519256530280137,69.35401321690819,72.07852381023226,0.49013267307852476,0.5098673269214754,62.70221332853342,63.95207429400098,0.93332124915715,1.6403116232006631,1.0727059837519242,1.5397062572695202,-1.4092227500962302,-1.777070558669001,-0.21529783309932277,0.0008472898772375377,0.1595558607690174,0.6274667086170318,1.9009587611930472,6.391218681645931,1.2678267844605584,1.440654085201343,1.159839708677615,1.4171520764207708,1.8684714280291215,1.8840693184332802,2.5849566873194396,1.0405862137653317,Stress
