PPG_Rate_Mean,HRV_MeanNN,HRV_SDNN,HRV_SDANN1,HRV_SDNNI1,HRV_SDANN2,HRV_SDNNI2,HRV_SDANN5,HRV_SDNNI5,HRV_RMSSD,HRV_SDSD,HRV_CVNN,HRV_CVSD,HRV_MedianNN,HRV_MadNN,HRV_MCVNN,HRV_IQRNN,HRV_SDRMSSD,HRV_Prc20NN,HRV_Prc80NN,HRV_pNN50,HRV_pNN20,HRV_MinNN,HRV_MaxNN,HRV_HTI,HRV_TINN,HRV_ULF,HRV_VLF,HRV_LF,HRV_HF,HRV_VHF,HRV_TP,HRV_LFHF,HRV_LFn,HRV_HFn,HRV_LnHF,HRV_SD1,HRV_SD2,HRV_SD1SD2,HRV_S,HRV_CSI,HRV_CVI,HRV_CSI_Modified,HRV_PIP,HRV_IALS,HRV_PSS,HRV_PAS,HRV_GI,HRV_SI,HRV_AI,HRV_PI,HRV_C1d,HRV_C1a,HRV_SD1d,HRV_SD1a,HRV_C2d,HRV_C2a,HRV_SD2d,HRV_SD2a,HRV_Cd,HRV_Ca,HRV_SDNNd,HRV_SDNNa,HRV_DFA_alpha1,HRV_MFDFA_alpha1_Width,HRV_MFDFA_alpha1_Peak,HRV_MFDFA_alpha1_Mean,HRV_MFDFA_alpha1_Max,HRV_MFDFA_alpha1_Delta,HRV_MFDFA_alpha1_Asymmetry,HRV_MFDFA_alpha1_Fluctuation,HRV_MFDFA_alpha1_Increment,HRV_ApEn,HRV_SampEn,HRV_ShanEn,HRV_FuzzyEn,HRV_MSEn,HRV_CMSEn,HRV_RCMSEn,HRV_CD,HRV_HFD,HRV_KFD,HRV_LZC,Labels
82.64026052748673,726.2477064220184,31.380329992393833,,,,,,,18.706059624267926,18.759529711635384,0.04320885245475585,0.02575713418280724,728.0,26.686799999999998,0.03665769230769231,36.0,1.6775489131705321,705.8,752.4,0.0,22.93577981651376,631.0,782.0,7.266666666666667,125.0,,,0.012961762162358587,0.010982859843734896,0.0014842967604197165,0.0254289187665132,1.1801809680520092,0.5097252573486394,0.43190431903844806,-4.511419417457854,13.264990670967897,41.473723055084456,0.31984084605449187,1728.3426412283916,3.126555011143349,3.9445999548427393,518.679506594583,0.5779816513761468,0.588785046728972,0.8412698412698413,0.10714285714285714,53.80742605412209,54.00535334292661,53.622369564759744,41.1214953271028,0.4680744092508797,0.5319255907491202,9.09169282942802,9.691985319801734,0.595289929916342,0.4047100700836581,31.99906519845626,26.384266722325055,0.5834452180304236,0.41655478196957635,23.52231974189331,19.875413327954234,1.1050826941738214,1.9146979648733957,1.3072211012531079,1.9968291107530094,-1.6910042648803767,-2.5634556539863094,-0.13983457331062657,0.002310368602361942,0.3024052708445052,0.8246374217596286,1.7214429708105952,5.9445656320171345,1.064050816652961,1.0391395878524066,1.2677435174948084,1.613813920940425,1.7286507909928717,1.7152264547848384,2.0107489307394077,0.8693080784117153,Relax
82.0163952606685,731.6851851851852,25.99448113538903,,,,,,,19.343911597395458,19.433635697882625,0.03552686546306111,0.026437478835244735,730.5,24.462899999999998,0.033487885010266935,31.25,1.34380686163232,711.4,753.6,0.0,25.925925925925924,666.0,782.0,6.75,109.375,,,0.01638598619918818,0.017046798076393557,0.0023227078459030588,0.035755492121484794,0.9612354253130698,0.45827886086742337,0.4767602699600507,-4.071792888994458,13.74165558508177,34.22226431822018,0.4015413900524874,1477.3985666630624,2.4904032928443196,3.87646778330479,340.90895898673676,0.6018518518518519,0.6132075471698113,0.8307692307692308,0.15384615384615385,50.73349633251832,50.74604743405688,50.720407306859194,41.509433962264154,0.4176032768869573,0.5823967231130427,8.880761483583594,10.487638725553806,0.5571477449139781,0.442852255086022,25.544295514731573,22.773939969232167,0.5377699994053249,0.4622300005946753,19.12300914961133,17.729113172405526,1.0838328080527164,1.971766807813852,1.109293983628051,2.0311429876558753,-2.0074154073507167,-2.9302689587431825,-0.03247564551007851,0.002394094432004205,0.3177465221851342,0.8081544661541931,2.2246235515243336,5.849568636322568,1.1974151589424762,0.9823429109406897,1.3903308285257994,1.665703064720488,1.7768677783227427,1.7380917976617196,3.0431984931576643,0.8756335650952644,Relax
81.75364693216403,734.0654205607476,23.63331156700954,,,,,,,19.693165177720445,19.778815116265537,0.0321951026503281,0.026827534203527757,734.0,20.7564,0.028278474114441416,28.5,1.2000768466486391,717.0,753.8,0.0,27.102803738317753,676.0,782.0,6.6875,101.5625,,,0.02036682051401973,0.026209545517118914,0.002433288880462025,0.04900965491160067,0.7770764472324415,0.41556751523257246,0.5347833108474932,-3.641631601853671,13.985734292546354,29.994717264737705,0.4662732496894785,1317.8922931801685,2.144665173620757,3.8268500282706888,257.31450204113685,0.6074766355140186,0.6190476190476191,0.8307692307692308,0.16666666666666666,51.802076970067205,51.87874805886293,51.727824120401856,40.95238095238095,0.4203945608017708,0.5796054391982292,9.071672287689744,10.651849828170915,0.6297933253292428,0.3702066746707572,23.803663341756543,18.250169185623186,0.5923733880173567,0.40762661198264316,18.012629272026366,14.942064450165091,1.0201098395809323,2.0644777364334232,1.3131279145065238,1.7876874277317991,-1.0881943197899222,-1.4417878226968575,-0.2701309610414492,0.0024592430454504753,0.3276545206414402,0.721516570784758,2.6508917872622613,5.761150603320949,1.2693014550262667,1.3853158862896064,1.3684221115601984,1.5868308236583775,1.8339955711500504,1.7552139410427154,2.4209841237418757,0.8820611010244491,Relax
81.4006098088864,737.1869158878504,21.460859871781803,,,,,,,20.051584419587623,20.14666127345188,0.029111829590647106,0.027200136067849184,734.0,20.7564,0.028278474114441416,28.5,1.0702824985150556,720.0,755.8,0.0,28.037383177570092,677.0,782.0,5.631578947368421,78.125,,,0.022196262166739495,0.024434312527755714,0.0024380972456822347,0.04906867194017744,0.9084054295174482,0.45235098667027895,0.497961562064387,-3.7117668833905855,14.24584080472623,26.921593420025047,0.5291603874431061,1204.8659206575785,1.8897862042016842,3.7879088306001565,203.50422336116068,0.6074766355140186,0.6190476190476191,0.8153846153846154,0.16,50.26801667659322,50.27570854307495,50.260328035865676,42.857142857142854,0.41239822614326943,0.5876017738567306,9.148510157136958,10.920273849697221,0.5925776099532104,0.4074223900467897,20.72399028801556,17.1839581824262,0.5531616392048484,0.44683836079515155,16.018411462329862,14.39688854870651,1.023601161043171,1.5938236790480431,1.1253185147018927,1.8205130005671926,-1.2320921588422866,-2.211012233410948,-0.0638197028917749,0.0023669544392191703,0.2432940784384215,0.7786120947978739,2.6288008294480694,5.754095579936245,1.4034259203244615,1.409760517827472,1.4142787673968642,1.714262730830956,1.793560397763191,1.8015370247862195,3.5462798113274596,1.0710741941011168,Relax
81.41937373483378,737.0093457943925,21.567574949229204,,,,,,,20.14967577809291,20.244757954051938,0.029263638340952636,0.02733978326472155,734.0,20.7564,0.028278474114441416,29.5,1.0703683367787913,720.0,755.8,0.0,28.037383177570092,677.0,782.0,6.294117647058823,101.5625,,,0.0197747746872192,0.016757436963868336,0.0015904182772170925,0.03812262992830463,1.1800596194905413,0.5187148610788042,0.4395666562192385,-4.088913121406052,14.315205632790418,27.015879161417843,0.5298811690435149,1214.9728372652971,1.8872155842131428,3.7915366786305578,203.9391526985874,0.6448598130841121,0.6538461538461539,0.8382352941176471,0.21739130434782608,49.49852507374632,49.49516109055275,49.50223919477769,43.269230769230774,0.40827659920533493,0.5917234007946649,9.147208785822514,11.012114541116373,0.58870072596023,0.41129927403976996,20.72842911686061,17.325990684853085,0.5491458028445239,0.4508541971554763,16.02091136958418,14.516484076357514,0.9795046187138113,1.527942422742191,1.2393734749432166,1.4933675001409608,-0.14251750014608078,-0.5385016616352685,-0.33376727982858,0.001778200544812688,0.19518390928408003,0.7564992761808931,2.505525936990736,5.775828551518418,1.403523191262382,1.161398025121752,1.1869788391239173,1.6704342263400687,1.799686614060102,1.7903172438082222,3.720771377554288,1.0710741941011168,Relax
81.57742310378624,735.5981308411215,22.69396886594276,,,,,,,20.486304675203947,20.58299658523202,0.030851042049268515,0.027849859612583343,734.0,20.7564,0.028278474114441416,29.0,1.107762928734088,717.0,755.6,0.0,29.906542056074763,677.0,782.0,6.294117647058823,101.5625,,,0.028999060899522887,0.02729343499863963,0.0028764563892730486,0.059168952287435565,1.0624921671078875,0.49010604005034564,0.4612796736040119,-3.601109081950577,14.554376462557112,28.743020559910846,0.5063621073582204,1314.2436350796086,1.9748713133713238,3.82564599235646,227.05506705364039,0.6542056074766355,0.6634615384615384,0.8405797101449275,0.2608695652173913,49.50667440510738,49.514918723961166,49.49886831881383,45.19230769230769,0.4158743003574077,0.5841256996425922,9.386160024205852,11.123976678457087,0.542331970293069,0.457668029706931,21.167277768711507,19.44498862868448,0.5165236383074822,0.48347636169251784,16.37305176406934,15.840619304694592,1.027800189467904,1.827880339722396,1.0910041562987232,1.9246562306561483,-1.486978106633753,-2.4528098492878456,-0.04392415288845786,0.0030111939892397102,0.3147314369832781,0.7183383783660542,2.3774864011671633,5.813577149811014,1.3847227034675411,1.5531559303574642,1.3571499612226063,1.6124317847940386,1.7583959773802507,1.8040495054159245,3.1334357561255892,0.9450654653833384,Relax
81.67581546410676,734.6168224299065,21.92768770119188,,,,,,,19.730973639299126,19.820118741274964,0.029849149967273055,0.026858864426810423,733.0,19.273799999999998,0.026294406548431102,26.0,1.1113332824852318,717.0,752.4000000000001,0.0,28.971962616822427,677.0,782.0,5.944444444444445,78.125,,,0.03168709461916308,0.03771034139568148,0.0038404762051950795,0.07323791222003964,0.8402759944992656,0.4326597203366583,0.5149019169522835,-3.277820914565859,14.014940365878104,27.500326715367073,0.50962814045575,1210.818311610645,1.962215036056919,3.7900490902768205,215.84621830948424,0.6635514018691588,0.673076923076923,0.8714285714285714,0.24,48.65671641791045,48.699284505274335,48.61370503765174,47.11538461538461,0.40732304262485763,0.5926769573751423,8.94666737633948,10.79197232514366,0.4987819186609234,0.5012180813390765,19.42196665698495,19.469339501557226,0.4799186055525504,0.5200813944474494,15.120443875228867,15.740423235948315,1.0858255220391682,1.936599505080554,1.3567034302052599,1.866494848400875,-0.9450193607276756,-1.5092852299806951,-0.23675950197332615,0.0029855628541800732,0.325453187102585,0.7491385110835509,2.09848973665053,5.653582612626305,1.3456333676387482,1.3423338699121423,1.2231235441500723,1.5301280363167473,1.7457249654345073,1.7760107413098136,2.513995310512952,1.0080698297422277,Relax
81.98950441357991,731.8055555555555,22.35334691673849,,,,,,,19.440058843801562,19.530131263145787,0.030545473106949543,0.026564513887904963,730.0,21.4977,0.029448904109589037,29.0,1.1498600439610205,711.0,747.6,0.0,28.703703703703702,677.0,784.0,6.0,78.125,,,0.028265934191157492,0.029618656261900633,0.004309334333177703,0.06219392478623583,0.9543287156992605,0.45448063115986276,0.4762306987973776,-3.519350837076321,13.809888253633778,28.019212430205066,0.4928721065245411,1215.6147496862218,2.0289239069572056,3.7917660709225705,227.39539981502224,0.6574074074074074,0.6666666666666666,0.8571428571428571,0.30434782608695654,49.25373134328358,49.29717542961389,49.20867398319109,46.666666666666664,0.41533743848455623,0.5846625615154436,8.900657173108486,10.56024942529902,0.49329941041161157,0.5067005895883885,19.679371401437823,19.944889231410357,0.4780603715073674,0.5219396284926324,15.272513821714753,15.958030492165333,1.114522079759687,1.3778813464280528,1.3384470045013077,1.5428949149847,0.019822567620940035,-0.33111226116933956,-0.3516215412790134,0.0014868908114377714,0.15249098044345052,0.7136863045878892,1.9740810260220094,5.703509029740925,1.3162886542476135,1.1452172737671207,1.2154877067917969,1.4872690954228063,1.771513873855742,1.7849166867100839,2.4311196246767333,1.000724074394588,Relax
82.00573231059184,731.8518518518518,21.531899749417573,,,,,,,19.0,19.0819077390716,0.029421118078657615,0.025961538461538463,731.0,18.5325,0.025352257181942544,24.5,1.1332578815482932,711.4,747.0,0.0,28.703703703703702,677.0,778.0,5.684210526315789,78.125,,,0.021184467020417257,0.017902616976879514,0.0022874609050722392,0.041374544902369005,1.183316776970435,0.5120169193499524,0.43269640836229367,-4.0228083769959095,13.492946360273587,27.154202838480355,0.4969008459034071,1151.048768067644,2.0124739336716497,3.768063834333537,218.58850160829778,0.6666666666666666,0.6761904761904762,0.8732394366197183,0.30434782608695654,51.72205438066464,51.7047360293073,51.73942413303473,45.714285714285715,0.4554845056566651,0.5445154943433351,9.109915808487795,9.96053533455624,0.5252140253600105,0.4747859746399896,19.679099215851487,18.710526070797897,0.5113976297057296,0.4886023702942705,15.33390869910641,14.988262907971544,1.1229855937533022,1.847090972149032,1.3489918601588096,1.8738940727677318,-1.2415854641958326,-1.8242014145418457,-0.21582221962883882,0.0018296736405499995,0.25788558335422634,0.7371713863725358,1.9740810260220094,5.752074886202374,1.3227570732788316,1.5319594170816269,1.237335797894019,1.4033637994025885,1.7774670506010373,1.7594836982463982,3.1875442491441555,1.0632693290442496,Relax
81.79983591812767,733.4859813084112,22.137803612646405,,,,,,,18.64033970052433,18.725244214415145,0.030181631519605078,0.025413355095448738,734.0,19.273799999999998,0.02625858310626703,26.5,1.1876287647281287,715.4,749.8,0.0,26.168224299065418,677.0,778.0,6.294117647058823,78.125,,,0.042824493368842156,0.02141921863715806,0.004705602898984551,0.06894931490498477,1.9993490002735315,0.6211010715314027,0.3106516528362131,-3.8434666928184464,13.240747163387113,28.36438945928545,0.46680881964313115,1179.874473196196,2.1422045983717406,3.7788059151509024,243.04930211875288,0.6728971962616822,0.6796116504854368,0.8857142857142857,0.30434782608695654,51.221039448966806,51.20314562385019,51.238814106769006,45.63106796116505,0.4417474410143629,0.5582525589856371,8.802056036869482,9.894924143697303,0.5282183100501355,0.47178168994986447,20.614849358216123,19.48246840972877,0.5127418542935692,0.4872581457064308,15.850050544684931,15.451150428780428,1.1552451130175887,1.9922490926915337,1.4185011693879157,1.9752791841187793,-1.1695403995839602,-1.7604524498764018,-0.22052791150796555,0.0028584550456968324,0.33360168598467005,0.6872853867347946,1.988927534139004,5.727957902533161,1.3035676967294103,1.2205639912171522,1.3538841967023374,1.4540569099319365,1.788431977547637,1.7480235513471718,3.7074717356378017,0.9450654653833384,Relax
81.6923975478992,734.6168224299065,22.126840552294446,,,,,,,18.878709181968944,18.968278716959976,0.030120247558591242,0.025698716127304934,736.0,19.273799999999998,0.026187228260869562,26.5,1.1720526196477348,717.0,750.0,0.0,26.168224299065418,677.0,778.0,5.944444444444445,78.125,,,0.06110125837218502,0.030198146916364278,0.005514788934850937,0.09681419422340024,2.0233446291061803,0.6311188030051971,0.3119185896097177,-3.4999747168692275,13.412598508198862,28.163561714485663,0.47623942753306725,1186.7257733213094,2.099784146768415,3.7813204844408626,236.5496016184435,0.6728971962616822,0.6796116504854368,0.8857142857142857,0.34782608695652173,49.78056426332288,49.77620512800007,49.784928402910545,46.601941747572816,0.4199158262526801,0.5800841737473199,8.691539400063554,10.215534389210523,0.5002016635280814,0.49979833647191857,19.91866112348021,19.910629007984667,0.48535876266227235,0.5146412373377276,15.367106397999901,15.823878954775015,1.1674891446003894,1.1756097403360144,1.3333920326558908,1.666462542229561,-0.20612954267126682,-1.0165717032229935,-0.21668275776749565,0.0011437372401034652,0.1240710744015838,0.6956892446137442,2.15598161880217,5.728348967766491,1.2911579172659147,1.2262062120845127,1.373525056468067,1.4277313035877253,1.8344815886777444,1.7436979792275051,3.091814698047759,1.0080698297422277,Relax
81.54718394868578,735.8317757009346,21.16934682342248,,,,,,,18.405290461743114,18.49271729605776,0.02876927515566598,0.025012905217650736,737.0,19.273799999999998,0.026151696065128897,26.0,1.1501772747039598,719.2,752.0,0.0,26.168224299065418,690.0,778.0,5.944444444444445,78.125,,,0.05778420925053629,0.030790887986455014,0.005368606957038611,0.09394370419402992,1.8766658914142296,0.6150940049286289,0.32775893020845737,-3.48053647736887,13.076325802608194,27.087240508821665,0.48274853979125515,1112.757087860112,2.071471827615282,3.7533704792239058,224.44182240745408,0.6915887850467289,0.696078431372549,0.9014084507042254,0.4090909090909091,49.936386768447846,49.93928383868077,49.93358380115902,47.05882352941176,0.43881586276038764,0.5611841372396125,8.662178324955757,9.795771682575236,0.47132499386617677,0.5286750061338231,18.596233862861833,19.695143678087245,0.4651807515185031,0.5348192484814969,14.506089190674073,15.554032071421913,1.202418296449232,1.7573297906031042,1.4111213193549146,1.8365390834763216,-0.9616522064248603,-1.3366582288553976,-0.2579180832213592,0.0016021827216464674,0.21974055378012286,0.6547806776087697,2.0680128458562135,5.720119205885779,1.3279983258461059,1.4513165381998951,1.449549340967768,1.5571696168900169,1.9529743669158461,1.7550351031783493,3.901952013155536,1.1340785584600062,Relax
81.59029035534952,735.4859813084112,20.698812510821437,,,,,,,18.72869859182416,18.816408602717004,0.028143041522013468,0.025464385546147696,737.0,17.7912,0.024140027137042063,24.5,1.105192248641201,720.2,750.0,0.0,27.102803738317753,690.0,774.0,5.631578947368421,54.6875,,,0.03493338392439274,0.020976704067841693,0.005548083327879863,0.061458171320114295,1.6653418864762133,0.5684091012476903,0.34131676256003973,-3.8643427871235603,13.305210120558083,25.986292087560663,0.5120087958576873,1086.215325023095,1.9530914470421512,3.7428860357669675,203.01441926621547,0.7009345794392523,0.7058823529411764,0.9166666666666666,0.391304347826087,49.27261227071474,49.29910180727147,49.24569970815705,46.07843137254902,0.4373470320862805,0.5626529679137194,8.799621203968574,9.980934205726818,0.473592328617844,0.5264076713821557,17.883258123282083,18.854083254194123,0.46606326993739416,0.5339367300626058,14.09333626997646,15.084685992342216,1.166952247755977,0.6496185611595355,1.250765261958875,1.4311930685881407,0.12921786974808747,-0.7457149925412114,-0.22225577066761854,0.00014196434617290798,0.028461067265374167,0.6573654427249038,1.8325814637483102,5.651715968325186,1.3260633068114396,1.1517548676441438,1.3926840803323304,1.7437380909564688,1.8984989657362292,1.758914044624288,2.7764302478800187,1.0710741941011168,Relax
81.80460691532892,733.4907407407408,19.60473687294451,,,,,,,19.027771145521882,19.11727719700851,0.026727995029829546,0.02594139242481239,735.0,18.5325,0.025214285714285713,25.25,1.030322296973727,717.0,748.0,0.0,28.703703703703702,690.0,774.0,5.684210526315789,78.125,,,0.055675957801700725,0.0336553738258161,0.007316314829342039,0.09664764645685887,1.6542962229405769,0.5760715324459877,0.34822755710703235,-3.391582537994874,13.51795634382767,24.354198031040635,0.5550565174266204,1034.2719471252979,1.8016183372393282,3.7216048553033616,175.507879045923,0.6944444444444444,0.701923076923077,0.9178082191780822,0.375,50.120918984280536,50.12257709531915,50.11925171208901,46.15384615384615,0.45645327826535875,0.5435467217346411,9.13292819190486,9.96621651872531,0.4776869566274666,0.5223130433725334,16.832379904367553,17.60107804909083,0.4726858737167713,0.5273141262832287,13.54140669582461,14.302507126170228,1.146292201494537,0.2820466301187301,1.3191811564880904,1.2649226188023075,0.8436936660626921,-0.11152053843411869,-0.6923743519394024,0.00016404825014038648,0.009426398560564568,0.4723290949696324,2.043073897508961,5.698045229131823,1.3991765250951773,1.2770018331231279,1.271277957808168,1.5577025100871482,1.9382159757942006,1.805829287244446,4.674948562908498,1.0632693290442496,Relax
81.88870423877346,732.8691588785047,19.666120715657712,,,,,,,18.617804422365005,18.706164091615946,0.026834422594276434,0.025403994965288848,735.0,19.273799999999998,0.02622285714285714,26.5,1.0563071922720058,714.6,748.0,0.0,27.102803738317753,690.0,774.0,5.631578947368421,78.125,,,0.07109652374649982,0.04502174116913336,0.004735191720947812,0.120853456636581,1.5791597992492385,0.5882870521469197,0.372531679458027,-3.100609768793112,13.22725547916993,24.472438978201154,0.540496004135596,1016.9436031156073,1.8501524384056813,3.7142669787794924,181.11097059701243,0.6728971962616822,0.6796116504854368,0.9,0.36,50.190355329949234,50.197544647522626,50.18321281844974,46.601941747572816,0.44311686897828095,0.5568831310217192,8.805031029392879,9.870832453918633,0.47522527827935557,0.5247747217206447,16.870463753393764,17.72816184174789,0.4679659126755956,0.5320340873244043,13.456246108836302,14.34784052776827,1.1451291631948415,1.9215680789539453,1.3978611307304263,1.8154735390665793,-1.2224734773484762,-1.4961881563653474,-0.28267103158609347,0.0012242776691094033,0.23616726628129783,0.4820800360911912,1.9810014688665833,5.605737608151878,1.388262694460225,1.0863699846460222,0.9601117312329129,1.35040573073501,1.956149960545597,1.78305584880635,3.2296882652781114,1.1340785584600062,Relax
81.9180388484176,732.4766355140187,19.769113414041037,,,,,,,18.58433099389284,18.672531487865246,0.026989411614703553,0.025371909618456576,735.0,19.273799999999998,0.02622285714285714,27.0,1.0637516852523525,712.4,748.0,0.0,26.168224299065418,690.0,774.0,5.095238095238095,70.3125,,,0.06708899770248455,0.04000416632624885,0.005362270780378576,0.11245543480911196,1.677050264098715,0.596582973658544,0.3557335080705892,-3.2187716721360635,13.203473636988846,24.778791325461455,0.5328538209780076,1027.8226728819664,1.8766873026538227,3.71888830357843,186.0081722224088,0.6635514018691588,0.6666666666666666,0.8970588235294118,0.2692307692307692,49.8091603053435,49.813463785213976,49.80496955890049,46.07843137254902,0.43799508331057085,0.5620049166894291,8.738257426806724,9.89829230100781,0.4806149926260474,0.5193850073739528,17.178244327755618,17.857671219022247,0.47118981810037375,0.5288101818996261,13.628081688946741,14.437323364164252,1.173984974067512,0.47081015532957093,1.2635611805914397,1.2628429964949786,0.7271148169415698,0.07608960442386081,-0.5015254218464306,5.592294530763259e-05,0.013812068532751982,0.46184052738597803,2.1000608288825715,5.690574724963068,1.3839122051875525,0.9512022302802492,1.0570210611973077,1.605207666528604,2.0080163256155372,1.7769494771877203,3.7755725961876054,1.1340785584600062,Relax
81.96143622270509,732.0833333333334,19.71816611062893,,,,,,,18.76166303929372,18.84882175275456,0.026934319103875597,0.025627769660958977,734.0,19.273799999999998,0.02625858310626703,27.0,1.050981785001252,712.8,748.0,0.0,26.851851851851855,690.0,774.0,6.0,78.125,,,0.043636971132554894,0.019783681479468476,0.0052885072819253585,0.06870915989394873,2.2057053020107196,0.6350968517139159,0.2879336832236664,-3.922897848798183,13.328129678749253,24.48580715941953,0.544320617734752,1025.2588036840218,1.837152529995292,3.7178036171336766,179.9366502876177,0.6666666666666666,0.673076923076923,0.9,0.32,50.685785536159614,50.67199806880215,50.69967904038034,46.15384615384615,0.44395178419711134,0.5560482158028888,8.881027052623697,9.939201972445101,0.48217793505242224,0.5178220649475777,17.002707795817187,17.61995118773994,0.4734399780477082,0.5265600219522918,13.56400961919772,14.304726766132143,1.1735989457056628,0.34252621591958476,1.3575376281378757,1.2393477169467704,0.8871501836583899,0.12697222485441717,-0.8450536212937725,7.997101216267272e-05,0.009332452683500785,0.45972879588582316,2.26176309847379,5.691980210316513,1.3874571870074892,0.9688376030788096,1.052741326405412,1.506691641552484,2.0003875745058908,1.7837693179172034,4.0152371558574975,1.1258145836939113,Relax
81.95969134705666,732.2129629629629,19.928400307158466,,,,,,,19.37046600552057,19.461395124552848,0.027216672355152623,0.02645468871124093,734.5,19.273799999999998,0.02624070796460177,27.25,1.0288033494640183,711.4,749.6,0.9259259259259258,28.703703703703702,690.0,774.0,6.75,78.125,,,0.061158940841610866,0.020139689675462123,0.006414039639885335,0.08771267015695833,3.0367370017685005,0.6972646110552715,0.22960981166601074,-3.9050628001787464,13.76128446392213,24.628432545517224,0.5587560003459054,1064.7450200892915,1.789689953004418,3.734215727476961,176.30903313983677,0.6574074074074074,0.6634615384615384,0.8985507246376812,0.2692307692307692,50.304506699147375,50.298575100359585,50.31050512684468,47.11538461538461,0.46278768556341543,0.5372123144365848,9.361704408597948,10.086419040303836,0.46896215167910765,0.5310378483208925,16.865750418515322,17.947316024114635,0.46749306051692036,0.5325069394830795,13.639923874670489,14.557506680851047,1.1807617474431786,1.8110830336472228,1.412404423175497,1.8200253846456174,-1.1834907911116481,-1.5149810072258711,-0.2749297222175182,0.0009921202652060195,0.20509448533908595,0.4728009162701081,2.3025850929940455,5.684065830943611,1.4231545291822079,1.3035270101838887,1.0915658770152614,1.5651605841012382,1.9909628626733133,1.8034415806045192,3.714069349402246,1.0632693290442496,Relax
81.77365334991111,733.7009345794393,20.35172560171196,,,,,,,18.637049730080925,18.72511706197657,0.02773844851837031,0.025401425637768565,735.0,20.7564,0.028239999999999998,27.0,1.0920036108968192,714.6,752.0,0.9345794392523363,27.102803738317753,690.0,772.0,7.133333333333334,70.3125,,,0.06709224496219329,0.024068368503918643,0.005068622351817857,0.09622923581792979,2.7875692925039686,0.697212696244777,0.2501149292036063,-3.7268568107923215,13.24065725303555,25.591205390745134,0.517390918124706,1064.511012627628,1.9327745520244548,3.734120268642352,197.84812213945295,0.6728971962616822,0.6796116504854368,0.9142857142857143,0.28,49.54721862871927,49.55973763951825,49.534645525631895,48.54368932038835,0.46314302786680434,0.5368569721331957,9.011104260855047,9.70174260243022,0.4442376661884904,0.5557623338115096,17.056834353489197,19.078107746549012,0.44822998837153516,0.5517700116284651,13.6406671054309,15.13436494724412,1.2029075142690355,1.0753070007347967,1.3439397688373327,1.4452441602638149,-0.03765912650698233,-0.24627843251705528,-0.4057902614255676,0.00016434775069789983,0.05785824292119192,0.6888219065885397,2.1041341542702074,5.6633525337255275,1.3353071635832576,1.7159328675995222,1.4762961341202558,1.9467248486111,2.0978545866980025,1.7770917578479597,3.0585835375825496,1.0080698297422277,Relax
81.66074395614389,734.7757009345794,20.826012585504767,,,,,,,19.58098808384354,19.67397339406842,0.028343360509902063,0.02664893253674284,735.0,22.238999999999997,0.030257142857142854,28.5,1.0635833338098248,715.4,753.8,1.8691588785046727,28.971962616822427,690.0,775.0,6.6875,78.125,,,0.061812006060516594,0.03270049369529423,0.005601897563488237,0.10011439731929907,1.8902468762852858,0.6174137558195247,0.32663127952517323,-3.420365103477479,13.911599999829496,26.116774187870785,0.5326691535392742,1141.4226562154195,1.8773379185852725,3.764416598616017,196.12004197607564,0.6635514018691588,0.673076923076923,0.9142857142857143,0.25,49.875776397515516,49.87829691000483,49.87327562521895,47.11538461538461,0.4500516706854979,0.5499483293145024,9.332738076256078,10.316653204083838,0.4594900405126162,0.5405099594873839,17.70343681486907,19.200891097086405,0.45740392920201933,0.5425960707979808,14.151177955528324,15.412779636644153,1.1047306696398145,1.941347248166486,1.412854366186381,1.818423518476275,-1.0257058796911007,-1.454019893439522,-0.29108881593803715,0.0015318367659799654,0.26967888989075917,0.6721140538468187,1.8658674413817768,5.798533780891043,1.33826486339819,1.6745312058689332,1.4140703251695872,1.8102069316940181,2.0790085960665645,1.786859735656778,4.2085342781581225,1.1340785584600062,Relax
81.49584673019586,736.3551401869158,20.933971819972616,,,,,,,19.921781006992475,20.00963155324644,0.02842917863608415,0.027054582659578563,740.0,20.7564,0.028049189189189187,29.5,1.0508082491532693,717.4,754.0,1.8691588785046727,29.906542056074763,690.0,775.0,6.294117647058823,78.125,,,0.05506169199819179,0.03647619735348559,0.007360484840515608,0.09889837419219298,1.509523908553209,0.5567502241360237,0.36882504542086814,-3.3110953584229534,14.148946160344869,25.833582585818966,0.5476958572564288,1148.308566591384,1.825830863518481,3.767028714714781,188.67100960176734,0.6728971962616822,0.6826923076923077,0.9154929577464789,0.2222222222222222,51.68608215818517,51.71278808774158,51.65954434189648,46.15384615384615,0.4635479806983765,0.5364520193016235,9.636488196532218,10.366613075960087,0.4721978163368181,0.5278021836631817,17.75197285906234,18.76809656916339,0.4702008080356682,0.5297991919643319,14.282759627445788,15.160938551028252,1.1479108200440482,1.323713525322809,1.2883476788252763,1.5957778119698087,-0.5961479357345532,-1.0142022756786284,-0.26775176255031424,0.0006224322329072428,0.10852675144819948,0.682381619522745,1.8352445811677938,5.731063865481009,1.3113046442299425,1.4262785083414857,1.1662789967297724,1.4957607958572123,2.0043815175449087,1.7967037642698456,2.87299227019086,1.1970829228188953,Relax
81.05868665064847,740.1320754716982,22.0972204551131,,,,,,,20.650838793064626,20.73575683985544,0.029855780052540193,0.02790155902904696,742.5,20.0151,0.026956363636363636,29.25,1.0700398505136859,722.0,758.0,2.8301886792452833,31.132075471698112,690.0,821.0,7.066666666666666,93.75,,,0.0675042081181938,0.04167010451164397,0.008664570073530994,0.11783888270336876,1.6199673341191392,0.5728517325484112,0.3536193110090708,-3.1779713254721114,14.662394274497116,26.598712064994483,0.5512445203613341,1225.2236591407275,1.8140769895445166,3.7951854844292168,193.00844603450642,0.6886792452830188,0.6990291262135923,0.9166666666666666,0.2916666666666667,52.38948626045401,52.26241419390056,52.52427550977268,45.63106796116505,0.4943722363660726,0.5056277636339275,10.31638912679163,10.433166419570883,0.5257304493516711,0.47426955064832893,19.286000506626593,18.31779648251618,0.518414696241796,0.481585303758204,15.465731475701137,14.906250861858988,1.1438712655351027,1.4955959611038636,1.366532817836896,1.7728769045312869,-0.7464326239159416,-1.504698145529411,-0.2283062422858657,0.0011539123064096626,0.17481524917241958,0.6266716061677768,1.9459101490553132,5.723170516223408,1.2974370003856825,1.5382903908968824,1.4432194149720672,1.747803311181478,1.9513719949357764,1.8085964357173299,2.8852541563531666,1.0790061106374942,Relax
81.00245017033971,740.8411214953271,21.509607126360596,,,,,,,22.99528253507498,23.103495805152264,0.029034035101811323,0.031039425145111932,744.0,20.7564,0.027898387096774193,28.5,0.9353921654822781,722.0,758.0,3.7383177570093453,32.71028037383177,689.0,811.0,6.6875,85.9375,,,0.05888335725896496,0.026817801081499188,0.006437948571046464,0.0921391069115106,2.195681781665047,0.6390701975819659,0.29105774931435696,-3.618689392502513,16.33663855293812,25.560095140900003,0.6391462341154214,1311.8223901298893,1.5645871736755208,3.8248451491111854,159.96398806151262,0.6822429906542056,0.6923076923076923,0.9027777777777778,0.2608695652173913,50.628758884636426,50.656617512604385,50.60096306529328,46.15384615384615,0.43282011025673045,0.5671798897432695,10.748200292319153,12.303890209430278,0.4911526735588443,0.5088473264411556,17.91309884102473,18.23291950082428,0.4742334786350036,0.5257665213649965,14.771643774680783,15.553537665258869,0.9466715968195081,1.9656790005532336,1.2570264556138087,1.6162162972027563,-0.9559971796230062,-1.2279975664629532,-0.31726932958644066,0.0014157843279562928,0.26422056424138574,0.6038911562331393,1.9459101490553132,5.70260235559674,1.3389890265474194,1.5036609469724151,1.5071668119217885,1.7636883411488655,2.000927439648538,1.85842118895093,2.5688875427209523,1.0710741941011168,Relax
80.91531893253955,741.5794392523364,20.01652024457457,,,,,,,22.732862091428885,22.840808123253225,0.026991741120486443,0.030654655304829182,744.0,20.7564,0.027898387096774193,29.0,0.8805103450709589,723.2,758.0,3.7383177570093453,31.775700934579437,701.0,811.0,6.294117647058823,78.125,,,0.03345712708400367,0.025997024509827136,0.009191269591298143,0.06864542118512894,1.286959862324111,0.48739051354603213,0.3787146187029154,-3.6497731894393577,16.150890311733132,23.408544872456766,0.6899570391808839,1187.7382921560816,1.4493656028021666,3.7816908681209616,135.71015899915946,0.7102803738317757,0.7211538461538461,0.92,0.30434782608695654,50.14037057832679,50.147360931954886,50.1330820996788,46.15384615384615,0.4272622720385549,0.5727377279614452,10.557100972917752,12.222929272478018,0.5156804449339546,0.4843195550660454,16.809885267492675,16.290725285866028,0.48716444761367195,0.512835552386328,14.036107431525455,14.401175825944817,0.9356589617623652,1.9153273158967012,1.2144169939739196,1.4189568425321246,-0.6755558257549854,-0.4564145976424485,-0.39320893256177186,0.0008624268565398213,0.2112231510897285,0.6258644994584608,1.6554230256759235,5.667692659395716,1.3465642470235386,1.5253534749793516,1.3053907931716513,1.7322223062214188,2.02400754329949,1.836027705847025,3.1746357267119323,1.1970829228188953,Relax
80.765832556513,742.8018867924528,21.0859555205742,,,,,,,23.524455360326623,23.63625838881253,0.028387051642567853,0.031669891768731626,745.0,20.7564,0.027860939597315434,30.75,0.8963419215279734,723.0,758.0,4.716981132075472,33.9622641509434,701.0,811.0,6.625,78.125,,,0.03649904320668434,0.031088635803020227,0.010628805396357766,0.07821648440606234,1.1740316763316612,0.46664131587912944,0.39746910180241535,-3.470912934837831,16.71335858860676,24.63211928288551,0.6785189043891674,1293.3479613463699,1.4737982884946206,3.8186854928178438,145.211100964448,0.7358490566037735,0.7475728155339807,0.922077922077922,0.38095238095238093,50.62330623306232,50.61126987052338,50.63531263510668,47.57281553398058,0.4522346705216239,0.5477653294783762,11.239952778438994,12.37028853590483,0.4962040900210412,0.5037959099789588,17.35129720875195,17.483528978437306,0.4823418889433218,0.5176581110566784,14.618550770989266,15.1442699395084,0.9903682963362758,2.1819579748265316,1.3305812885800208,1.5952779515538198,-0.8111435610426252,-0.5551702931734241,-0.37868846878462786,0.0017453548021062516,0.3088252191085127,0.6052405106386796,1.6986690461620428,5.693498374452402,1.3410585218938365,1.4290385463797943,1.3948785915083324,1.8089172172812378,1.9596100002690549,1.8321713181452244,3.8972382578366433,1.1424770583220525,Relax
80.82336940686446,742.4150943396227,20.783174478880426,,,,,,,23.521621259315154,23.632573596596178,0.027994008523448778,0.0316825741268604,744.5,20.0151,0.02688394895903291,29.75,0.8835774647400109,723.0,758.0,3.7735849056603774,35.84905660377358,701.0,811.0,7.066666666666666,85.9375,,,0.04670782502290456,0.03696923467229426,0.011856493807186024,0.09553355350238484,1.2634241805905888,0.48891539475435275,0.3869764424849054,-3.297669207565311,16.710753047043312,24.10814310772532,0.6931580326353897,1265.6384340615941,1.4426724540693785,3.8092797646800443,139.12061592111144,0.7264150943396226,0.7378640776699028,0.9210526315789473,0.3333333333333333,50.833781603012376,50.81934500951956,50.84807923884374,47.57281553398058,0.4502263611794881,0.549773638820512,11.21361637954912,12.391451768177808,0.5125991350089041,0.4874008649910957,17.26047309965551,16.83088329466497,0.49235464893588354,0.5076453510641165,14.554537504359658,14.778814387522926,0.8288943786623204,2.469615071391496,1.2000227181322878,1.5213537179533099,-1.2450270280246993,-0.8659260558459114,-0.3698862006701436,0.0016857079155345944,0.37166647744297165,0.6042684225331247,1.8588987720656833,5.719487879189794,1.3711383936346744,1.3035908225145836,1.2330715355393111,1.7874020205281365,1.9644478777745815,1.8679998682262036,3.5784455438516622,1.0790061106374942,Relax
80.60607156236551,744.7641509433962,21.057088790235372,,,,,,,24.349831328251245,24.454031031705874,0.02827349942067198,0.03269468770402979,745.0,20.0151,0.026865906040268457,27.75,0.8647734970469567,726.0,761.0,4.716981132075472,36.79245283018868,701.0,817.0,7.066666666666666,93.75,,,0.028245346783919534,0.017146154798595638,0.00773163228756055,0.05312313387007572,1.6473283436256496,0.5316957928912802,0.3227624868768157,-4.06598134050343,17.291611169865483,23.339934963546153,0.7408594409912735,1267.8999228021476,1.349783703453917,3.8100550853607817,126.01545541387559,0.7169811320754716,0.7307692307692307,0.9342105263157895,0.30434782608695654,52.15562565720296,52.07734418692076,52.23756516847049,48.07692307692308,0.5023772809046518,0.49762271909534833,12.262356405495014,12.2041922179351,0.54948502456616,0.45051497543383984,17.301253598175368,15.66586059028319,0.532780399584629,0.46721960041537114,14.994978504215348,14.042106247399206,0.9617732274323044,2.237596900322734,1.2517913538045287,1.6223696159871401,-1.37008708579795,-1.161596321413839,-0.3343856026395272,0.0013181169493856019,0.29074350079327027,0.6630663854274292,1.9577446067023163,5.7098694828817385,1.3747048360443703,1.5248617704994059,1.2209578373772811,1.6390380840312875,1.9201708633236052,1.8738992789165119,3.082055484195946,1.1424770583220525,Relax
80.5587227836963,744.9056603773585,20.298031010250273,,,,,,,23.87387494232775,23.988370961612656,0.02724912977566526,0.032049528164725706,745.0,22.238999999999997,0.029851006711409393,30.25,0.8502193740766565,726.0,762.0,3.7735849056603774,38.67924528301887,701.0,811.0,7.066666666666666,85.9375,,,0.03792895013072071,0.03660249964652365,0.012401564337970863,0.08693301411521522,1.0362393414932534,0.4363008750674653,0.4210425696043754,-3.307638744553801,16.962339776574773,23.324174680835426,0.72724287177081,1242.9163941080878,1.3750564478755718,3.8014120263760156,128.28822714503565,0.7264150943396226,0.7403846153846154,0.948051948051948,0.30434782608695654,50.0515995872033,50.05691751690339,50.046146766969066,49.03846153846153,0.44764896567857515,0.5523510343214252,11.348924042528301,12.606469645506506,0.5324210596297718,0.4675789403702279,17.018994503361814,15.94901096108047,0.5030960600242992,0.4969039399757009,14.464512622769849,14.37522221671272,0.9228162008688867,2.2889112023531935,1.1956490617644382,1.6470511835007753,-1.5977388767020368,-1.4806844648918425,-0.3027874033417034,0.001586993106808554,0.31248119874767916,0.6278072501170833,1.817077277212345,5.735858987619129,1.4209312626078912,1.3955947052619235,1.3355334438386925,1.7979902461286723,1.9982857980326965,1.8975918723858416,3.7428357108283414,1.0155351629529357,Relax
80.50106802117156,745.4622641509434,20.387285733679768,,,,,,,24.42013220977432,24.536987106483473,0.027348514759362372,0.032758374748302024,746.0,22.238999999999997,0.029810991957104554,30.75,0.8348556657494107,726.0,763.0,4.716981132075472,38.67924528301887,701.0,811.0,6.625,78.125,,,0.033948567028938295,0.05269535123110302,0.01719512972706234,0.10383904798710365,0.6442421624642368,0.3269344980238509,0.5074714402008726,-2.943228039259251,17.350269972881346,22.682334059533606,0.7649243648093111,1236.3568856317547,1.3073187964790365,3.7991139618539527,118.61216665617971,0.7075471698113207,0.7211538461538461,0.9333333333333333,0.25,50.30060120240481,50.3214588654933,50.28017965534508,48.07692307692308,0.44174013031812953,0.5582598696818705,11.531728804943743,12.963706734869172,0.5669658670935231,0.4330341329064768,17.079147896363686,14.926184560108256,0.5207408185472655,0.4792591814527345,14.571857501647369,13.979425557405898,0.6842733774398975,2.398447613341858,1.0002340530664515,1.4388246203137154,-1.5191674934657176,-1.3515154383406305,-0.31713564857222076,0.0019198952813468957,0.35824896935928696,0.6394230897986115,1.7600107709134747,5.712366298980704,1.4439376150765835,1.324687100710902,1.3530840138022135,1.9345502984753058,1.9302300436608362,1.9152737770871884,2.708154258038668,1.1424770583220525,Relax
80.42167989514186,746.1981132075472,20.016859470775536,,,,,,,24.440598543056534,24.55602848179108,0.02682512742458256,0.03275349818025959,747.5,21.4977,0.02875946488294314,29.5,0.8190003790419542,727.0,764.0,4.716981132075472,38.67924528301887,701.0,811.0,5.888888888888889,85.9375,,,0.04294655394546798,0.07790923237641753,0.022188157139450035,0.14304394346133553,0.5512383145808987,0.3002332912967849,0.5446524368050314,-2.5522108173843847,17.363734258484474,22.343866085535677,0.7771141391562897,1218.8529789878767,1.2868122578308725,3.7929214330821988,115.00944306479529,0.7264150943396226,0.7403846153846154,0.948051948051948,0.2916666666666667,50.76923076923077,50.79046159905691,50.74784472618956,47.11538461538461,0.44449227531448793,0.5555077246855121,11.577290436287493,12.942550574929788,0.5591234523044376,0.44087654769556256,16.707527104000942,14.835999788265884,0.5159583404775018,0.4840416595224981,14.373154068907073,13.92150324322127,0.7831341452454638,2.585690779422614,1.0633204750434881,1.6444719707544109,-2.311478030156609,-2.2203994828840017,-0.275243234676076,0.0016767772343519443,0.3825430846796935,0.6379070783889973,1.688575232992824,5.743922694904726,1.4224863348110537,1.3947014545483285,1.4229197785608736,1.8413335577211913,1.979573052457039,1.929687163339101,2.9290811280179905,1.0155351629529357,Relax
80.13178103639383,748.8285714285714,18.960717054183135,,,,,,,25.046879123877964,25.16353532558871,0.025320504288466165,0.03344808154968632,749.0,20.7564,0.02771214953271028,28.0,0.7570091651102072,731.8,766.0,4.761904761904762,42.857142857142854,701.0,811.0,5.526315789473684,85.9375,,,0.0409678518509033,0.0656248048960518,0.017488766615271125,0.12408142336222622,0.6242738841783293,0.33016909977980663,0.528885010486024,-2.7238015310873127,17.793306467351012,19.92453555924655,0.8930349424929767,1113.7680066292592,1.1197770125415496,3.7537648484356865,89.24414761924389,0.7238095238095238,0.7378640776699028,0.9342105263157895,0.3181818181818182,51.20772946859904,51.218720275468755,51.19646897055572,45.63106796116505,0.4438722334620807,0.5561277665379192,11.85675015642333,13.27162093830656,0.5652561492049305,0.4347438507950697,14.979966928590029,13.137264101403659,0.5113900632675352,0.4886099367324648,13.508921745526095,13.204613405929882,0.6165450707933573,2.6507941726401336,0.9347640390782622,1.4796592271975668,-1.885457664437812,-1.6613672336397773,-0.2944407778833313,0.0027130503195353824,0.4491740128385574,0.5194347214594028,1.8245492920510458,5.614977155736963,1.5136861545099343,1.2252575136374262,1.4161239108026122,1.6487221785261954,1.8915089030007266,1.9449636833429944,3.0780045783215155,1.0231231265015044,Relax
79.96792842472158,750.3904761904762,18.52363108099782,,,,,,,24.8270943806281,24.945639180325912,0.024685322733621493,0.033085567005951826,751.0,17.7912,0.02369001331557923,24.0,0.7461054764206037,734.6,766.0,4.761904761904762,40.0,701.0,811.0,5.833333333333333,93.75,,,0.04620501005507325,0.07258489146303122,0.022201217287994048,0.14099111880609852,0.6365651187700168,0.3277157486679556,0.5148188912725444,-2.6229984853783814,17.639230625441282,19.405113736685024,0.9089990847152124,1075.3397596852155,1.1001111187183406,3.7385158136957113,85.3911255268848,0.7047619047619048,0.7184466019417476,0.9324324324324325,0.25,50.741106719367565,50.75271591973484,50.72918841178961,48.54368932038835,0.4512198926744041,0.548780107325596,11.849583172383038,13.067970181332454,0.533354964742949,0.4666450352570508,14.171778753134864,13.255909101448946,0.49619113745864313,0.5038088625413569,13.06238749974575,13.162275083853688,0.7382266691989539,2.29292726737987,0.9823979653494659,1.4792643299493395,-1.962968699175537,-1.8931634223413445,-0.28330478612710497,0.0011904272238858608,0.2892923422359314,0.5320919633763297,2.031432322493475,5.65559298913211,1.5323284046896186,1.4026071358803665,1.3300720270500233,1.6734224239926143,1.9237832939878046,1.9383123385564858,3.229130457003006,1.1510135173141924,Relax
79.85864880589864,751.1142857142858,20.571317917895318,,,,,,,27.10715914519773,27.230735871466425,0.027387733543548103,0.03608926053033286,752.0,19.273799999999998,0.02563005319148936,24.0,0.7588887425534485,737.4,767.2,5.714285714285714,42.857142857142854,683.0,811.0,6.176470588235294,109.375,,,0.04484505571479949,0.08625818430517046,0.025969659746603303,0.15707289976657327,0.5198933420177662,0.28550472921454895,0.5491601952555732,-2.450410337077756,19.25503799141368,20.93631542523098,0.9196956389092638,1266.4688293101822,1.0873162356037431,3.809564615241003,91.05758270229892,0.6857142857142857,0.6990291262135923,0.9166666666666666,0.25,48.461185117133674,48.40181573131162,48.517646960961024,49.51456310679612,0.4005940930920321,0.5994059069079679,12.190438717146518,14.911714297858945,0.49303982110628114,0.5069601788937188,14.700809549989863,14.906894450545073,0.45066440788088963,0.5493355921191103,13.504084521758186,14.90930456897072,0.623565823810452,3.4913676462535834,1.055982683569589,2.087415105680136,-2.6158713462645284,-2.92510164486904,-0.20457639337486352,0.012575412513817023,1.1428897607353359,0.6680275954687831,1.893542163537997,5.603118941471854,1.4911620709433497,1.2325679366760691,1.5855502614637411,1.9126917947551865,1.9779376924142913,1.9642821479731085,3.9921513809239997,1.0870683219078485,Relax
79.71257973195593,752.8285714285714,19.505648660588797,,,,,,,26.08031235065432,26.206394487298294,0.025909814532642905,0.0346430958394209,753.0,19.273799999999998,0.025596015936254976,24.0,0.7479070188398041,738.8,768.0,4.761904761904762,41.904761904761905,706.0,814.0,6.176470588235294,85.9375,,,0.037249744995573694,0.0677190236218402,0.019724912074453083,0.12469368069186697,0.550063231915237,0.2987300141345757,0.5430830435519985,-2.6923881396911913,18.53071925241838,20.571682674994225,0.9007877257869272,1197.6004916795116,1.1101394605775752,3.785282075598102,91.34974683196454,0.6952380952380952,0.7058823529411764,0.9305555555555556,0.24,49.74311069593648,49.75229311215428,49.734104787492775,48.03921568627451,0.43878200144192037,0.5612179985580796,12.274964655002206,13.882306962531182,0.5722490734562358,0.42775092654376423,15.56189087759825,13.454429768458475,0.5124624274200758,0.4875375725799241,14.015120494805405,13.670042556560007,0.5871887216884557,3.56628072772007,0.9889408020341309,2.0727142986853266,-2.8174074041258805,-3.0589486425321493,-0.1961053883876231,0.01338717111518298,1.180274365420781,0.4742424893830659,2.7515353130419484,5.581550727124325,1.5649898843490986,1.0768919452125656,1.4649452299405745,1.6689604831797276,2.0371142228142967,1.9584245521991475,4.341740447620159,1.2149587127205366,Relax
79.75658769326543,752.4761904761905,19.821363396256242,,,,,,,26.72293742490493,26.851783874386147,0.026341515714553922,0.03551333286438448,752.0,19.273799999999998,0.02563005319148936,24.0,0.7417359506961746,738.0,768.0,4.761904761904762,45.714285714285715,706.0,814.0,5.526315789473684,85.9375,,,0.04923786651761906,0.1130955202370574,0.017264481592471338,0.1795978683471478,0.4353653125642155,0.2741561855425051,0.6297152704421476,-2.179522505512265,18.98707846453403,20.741140797537426,0.9154307687255248,1237.2021255394022,1.0923818973139976,3.7994107674206727,90.62898694748277,0.7142857142857143,0.7254901960784315,0.9459459459459459,0.2916666666666667,50.4046762589928,50.4075339028407,50.4016428587965,47.05882352941176,0.4446194861851673,0.5553805138148327,12.660810262572234,14.150199833917746,0.5772062981920177,0.42279370180798226,15.757893837314846,13.486426635517127,0.5167540361851372,0.4832459638148628,14.29348338742064,13.822298266478546,0.6647615815955086,2.7005352849977964,0.9693718848515112,1.5644543622536355,-2.1903209210637087,-2.002893214607728,-0.27964276908064545,0.0025503754766965404,0.45052578279532945,0.4892167385301338,2.751535313041949,5.565023703376615,1.5659795179150777,1.4253822289851903,1.4858901889305374,1.6505951828553331,1.992331364425949,1.9663581277172415,4.298519271274196,1.2149587127205366,Relax
79.63539547329826,753.4711538461538,19.532873326863257,,,,,,,25.691220970429885,25.816784798037975,0.02592385020601803,0.034097152677029494,752.5,18.5325,0.024627906976744184,23.25,0.7602936952410798,739.0,768.0,3.8461538461538463,42.30769230769231,706.0,814.0,5.777777777777778,85.9375,,,0.04789366649639812,0.13373914891675584,0.014657553086538828,0.19629036849969278,0.3581125413487482,0.2439939710871401,0.6813332204680494,-2.0118640260915535,18.255223599126424,20.872848495169592,0.8745918700723123,1197.0678039512743,1.1433904592748143,3.785088860241145,95.46326330906231,0.6826923076923077,0.6930693069306931,0.9428571428571428,0.2222222222222222,49.85808893093661,49.864824286568755,49.85147203240585,48.51485148514851,0.45604848199576375,0.5439515180042364,12.328032777246447,13.463822258330714,0.5547330364876742,0.4452669635123258,15.546181584068368,13.9281026151259,0.5119631077224767,0.4880368922775234,14.029685563149467,13.697929629352723,0.6546510817411005,3.109119573260196,1.0289303253689486,1.9780618574986486,-2.0850501737290177,-2.506249483561449,-0.1947265906745269,0.012471590646434562,0.9815868388804774,0.45947377294391867,2.7300291078209855,5.627854381394605,1.5651495900593184,1.407747961144233,1.6576580288747165,1.8874077159170004,1.9892576539089224,1.9635180446537548,4.389241911137356,1.3529734046246433,Relax
79.57251937720612,754.0857142857143,19.65965914766067,,,,,,,25.777897509300484,25.902730672859178,0.026070854778468662,0.034184306930834574,753.0,19.273799999999998,0.025596015936254976,25.0,0.762655648722616,739.8,769.2,3.8095238095238098,41.904761904761905,706.0,814.0,6.176470588235294,85.9375,,,0.03816306817084927,0.14265984613095117,0.015237349337861545,0.196060263639662,0.2675109304114796,0.19464968302291455,0.7276326343880923,-1.9472921807045975,18.315996510027507,21.02975860122959,0.8709560987997544,1210.0817532397984,1.1481634968491272,3.789784822246452,96.58240469392311,0.6761904761904762,0.6831683168316831,0.9420289855072463,0.25,49.99999999999999,50.00451127490299,49.995542081690495,48.51485148514851,0.4670805116629044,0.5329194883370956,12.517754381568666,13.370921935231626,0.548467670935976,0.45153232906402374,15.574345478425297,14.131189254434426,0.513360962603482,0.48663903739651804,14.128949214973986,13.75630879165449,0.6129601529855074,3.2091580757987614,0.9898951649644776,1.9761627082396327,-2.2741570753603515,-2.664412384888797,-0.192670937367374,0.012631257582225821,1.02287611135669,0.4847286028516766,2.1785324443240666,5.628158850834621,1.5900643197193942,1.3359881575305386,1.6014132780045016,1.908653970624113,1.9259222806806637,1.9823097228750632,4.343636588074065,1.2149587127205366,Relax
79.51099694180155,754.6153846153846,19.13940057106196,,,,,,,23.149367245855668,23.259455806379247,0.02536312002281401,0.03067704120245909,753.5,18.5325,0.02459522229595222,25.25,0.8267785623595566,740.0,770.4,1.9230769230769231,40.38461538461539,706.0,814.0,6.117647058823529,93.75,,,0.02604662687708758,0.12221108499451816,0.010501446314984278,0.15875915818659003,0.21312818618913262,0.1640637754357132,0.7697891976151899,-2.102005524455951,16.446918927399583,21.48226748939269,0.7656044193435626,1109.978442739129,1.3061575596146775,3.7522846542526342,112.23690431573952,0.6634615384615384,0.6699999999999999,0.9552238805970149,0.20689655172413793,50.982367758186406,50.97807668617129,50.986419126341296,49.0,0.5073464137543707,0.49265358624562927,11.71642052010432,11.545519460286018,0.5317036090361619,0.46829639096383796,15.664441820624418,14.700784976799381,0.5227010680183933,0.47729893198160656,13.832014447571417,13.217641592620327,0.692480660195763,2.692716366565998,0.9586497860149077,1.651415999253186,-2.426861498983069,-2.3643543982525976,-0.24272588756841174,0.0030199660269728634,0.46583452311983253,0.5258564315818708,2.1316272948504063,5.66886075164932,1.6048035114440666,1.3495436025230056,1.5342270922020744,1.8860808224084433,1.9024264414589127,1.9748786116248196,3.410790871221775,1.2241187946603918,Relax
79.36435074814163,756.0961538461538,19.004097274504254,,,,,,,23.751341300908315,23.86475552469728,0.025134498010382818,0.0314131227623479,756.5,18.5325,0.02449768671513549,25.25,0.8001273289680481,741.6,771.4,1.9230769230769231,42.30769230769231,706.0,814.0,6.117647058823529,93.75,,,0.025170613430045154,0.11886353815967922,0.010840291797747752,0.15487444338747214,0.21176059386883964,0.16252270471166202,0.7674832306728674,-2.12977918203185,16.87493046287257,20.87176998747476,0.8085050033130534,1106.499302922508,1.2368507256012609,3.7509212546263297,103.26105541436311,0.6634615384615384,0.6666666666666666,0.9393939393939394,0.20689655172413793,50.9037616023449,50.91569522313751,50.89171355304754,49.494949494949495,0.5127269598141294,0.4872730401858703,12.084668621285173,11.780883484963024,0.5123275228830251,0.4876724771169751,14.939398905034153,14.575498028071483,0.5124854374357747,0.48751456256422554,13.587215596471747,13.252063206395263,0.6035766354829939,3.056458897433015,0.8794028474989097,2.0490495234489496,-2.7546597331017786,-3.5705720056626067,-0.11731967770534245,0.012955580398236403,0.9872917849089075,0.49091025871614136,2.1400661634962708,5.589392842933067,1.6764298283480534,1.467921382139959,1.5185905267047424,1.8704628373645082,1.9834062534833548,2.0046241029187972,3.1389830804071757,1.09526418469614,Relax
79.10038054373473,758.5192307692307,19.39020910437216,,,,,,,23.893168378129158,24.00729234348043,0.025563239952015628,0.03149975295141638,760.0,20.7564,0.027311052631578948,26.0,0.8115377917865919,743.6,774.4,1.9230769230769231,42.30769230769231,706.0,814.0,6.117647058823529,93.75,,,0.025471232404405585,0.1234317014740104,0.013658993789813027,0.16256192766822902,0.20635891833483938,0.15668633344696528,0.75929034088425,-2.0920673003904966,16.975719214002893,21.483477064676986,0.790175592288749,1145.7309063277191,1.265541494522114,3.7660527383960876,108.75292668785148,0.6538461538461539,0.6565656565656566,0.9230769230769231,0.1724137931034483,50.901999024865916,50.88593528516775,50.918057561695264,50.505050505050505,0.5171000493188892,0.48289995068111097,12.208563371987841,11.797931024997062,0.47055850161101564,0.5294414983889842,14.737078085735485,15.631964568902934,0.488450610154399,0.5115493898456012,13.532008167912629,13.848275935184583,0.6240103677131793,3.126960226737219,0.9064316645735675,2.0652289792593335,-2.8042593194022345,-3.5031155910660634,-0.12941731564814424,0.012938675635885877,1.0014932864252677,0.45702581470934867,1.8123787564307907,5.5941065448145375,1.6690004479322953,1.2465355243460257,1.4654793098270118,1.7861285008137258,2.0166383234492247,2.0118971818667304,4.0806551249370715,1.159691489678266,Relax
79.02203783479622,759.3365384615385,19.75953036710649,,,,,,,24.354182671406427,24.47289358585324,0.026022098722050815,0.032072976128278335,760.5,20.0151,0.026318343195266273,28.0,0.8113403202114274,744.0,776.0,1.9230769230769231,44.230769230769226,706.0,814.0,6.117647058823529,93.75,,,0.026354468734973414,0.11859078540401359,0.013112273957930617,0.15805752809691764,0.22223032460059475,0.16673972478434176,0.7503014050130921,-2.132076490175407,17.304949009813587,21.95795785569464,0.7880946453918833,1193.7465895515163,1.2688831295164376,3.7838822538071453,111.44832912689544,0.6538461538461539,0.66,0.9242424242424242,0.1724137931034483,50.33143939393939,50.33888032635302,50.32402416754225,50.0,0.5044686702023177,0.4955313297976821,12.291197232644373,12.18183314708954,0.48241738999283007,0.5175826100071702,15.251179218091849,15.797260700833693,0.4908661102428406,0.5091338897571596,13.850487301068533,14.10585879118379,0.6742382960797899,1.953877156020349,0.8300464253800438,1.375298921368012,-1.6829317471606018,-1.9001329592179594,-0.22093818984068742,0.001699337896236694,0.24167140430763537,0.4326036668112696,2.03688192726104,5.649629982418552,1.6619680509814034,1.6982433048558927,1.309053891204596,1.8473896849189826,1.9804520185334478,2.0117599969518385,3.436222139891034,1.159691489678266,Relax
79.01188003060462,759.5242718446602,19.71952583657867,,,,,,,24.570825997431964,24.69215628540586,0.025962996269606714,0.032350284129507384,760.0,20.7564,0.027311052631578948,28.0,0.8025585236181993,744.0,776.0,1.9417475728155338,45.63106796116505,706.0,814.0,6.0588235294117645,101.5625,,,0.029863740894406028,0.12906573754363565,0.006323695954095818,0.1652531743921375,0.23138395567072506,0.18071508159680413,0.7810182044513658,-2.047433411057551,17.459991151528513,21.83783173696168,0.7995295211463948,1197.8526757908023,1.250735555788063,3.785373517309298,109.25341045893988,0.6601941747572816,0.6666666666666666,0.9090909090909091,0.2222222222222222,50.0473484848485,50.04837933771669,50.04636363513249,51.515151515151516,0.5044657356284507,0.4955342643715491,12.401093851466138,12.290824074717023,0.4657680794532459,0.5342319205467542,14.90370947985025,15.961526828974472,0.4808587771776821,0.5191412228223177,13.709625906140719,14.244906021938428,0.6470139765704637,2.8473222371786844,0.8868943809619049,1.971469483654287,-2.315899344437941,-3.0501725015693175,-0.11908944181637446,0.01297081899871094,0.8983395592181522,0.4768425582930078,1.9459101490553132,5.695829653228774,1.652857841885888,1.2597269781840632,1.180181511617446,1.7874792090330271,1.9592832097271484,1.9951770941739855,3.8423330856345856,1.2334321360823413,Relax
79.0820934946781,758.8461538461538,20.250743354817953,,,,,,,24.787641768954533,24.908784670850427,0.026686230472644033,0.03266491059264155,759.5,21.4977,0.02830506912442396,28.25,0.8169693407535503,743.0,776.4,1.9230769230769231,46.15384615384615,706.0,814.0,6.5,101.5625,,,0.02736523528862005,0.1370310249289456,0.0049167490645579265,0.16931300928212356,0.19970101882263297,0.16162511908947172,0.8093354758145783,-1.9875479194566876,17.61317055187386,22.75222860159495,0.774129464866539,1258.9583301969126,1.2917735926411242,3.8069814657527097,117.5629123250978,0.6634615384615384,0.6699999999999999,0.8955223880597015,0.23076923076923078,50.139405204460964,50.139328595244784,50.139435854928585,53.0,0.5173182062383466,0.48268179376165354,12.668279051143728,12.236837666588185,0.4441148218255998,0.5558851781744001,15.16252662089644,16.963540102521094,0.47154548576270905,0.5284545142372908,13.971175821079632,14.790231385753787,0.6423751179550381,3.008559468057595,0.9239827511386491,2.008800113156264,-2.4181226222420626,-3.0665275365504923,-0.13942299511267395,0.013027645765330179,0.9592154331407591,0.6865966513204493,1.87770189902878,5.714580823785508,1.6071428632771017,1.439520907908788,1.0900951085718946,1.5664591516971982,1.9783299217325585,2.00211710314046,4.32566082054753,1.2241187946603918,Relax
79.12208235986022,758.4807692307693,20.723787171806823,,,,,,,24.865463239922203,24.984007829993786,0.0273227588786784,0.03278324810415442,759.5,21.4977,0.02830506912442396,29.25,0.8334366012749039,742.2,776.4,1.9230769230769231,47.11538461538461,706.0,814.0,6.117647058823529,93.75,,,0.02563652530481462,0.10052764256881615,0.006444908469242413,0.1326090763428732,0.25501966075913046,0.19332406206140054,0.7580751283486246,-2.2973225388664615,17.666361357806405,23.38284567628174,0.7555265771490842,1297.759885008718,1.3235801760586843,3.8201644555368657,123.79628398786413,0.6538461538461539,0.66,0.8787878787878788,0.24,50.931966449207835,50.93654765242448,50.92704310374819,51.0,0.5212769298410905,0.47872307015890964,12.756582307062606,12.224814044858618,0.45568787102613195,0.5443121289738679,15.784509759483274,17.25128179508944,0.479525979961782,0.5204740200382179,14.35062961169449,14.950799343261833,0.7287444618783977,2.157892122278125,0.902598419545566,1.407647629897736,-1.7675016068661336,-1.6282526415140386,-0.26595252138045683,0.0018051015596415893,0.27083512563260154,0.7017053250866176,1.889397938791971,5.714580823785508,1.5977877247787955,1.7359581779988291,1.22426878490612,1.609343692555919,1.9342968363514916,2.0077320621654624,3.413367367085408,1.2241187946603918,Relax
78.91525883494127,760.3009708737864,20.985912619181654,,,,,,,25.898747036086817,26.026038661502398,0.027602112088668394,0.03406380897596688,761.0,22.238999999999997,0.02922339027595269,28.5,0.8103060966594363,743.0,778.6,3.8834951456310676,46.601941747572816,707.0,831.0,6.4375,101.5625,,,0.02639281640217128,0.10400817179396368,0.0072519551020807215,0.13765294329821567,0.25375714183741704,0.19173448652669234,0.7555826217870046,-2.263285807985655,18.403188424971603,23.435682563974353,0.7852635985632112,1354.941523379566,1.2734577304101322,3.8388906622780534,119.37740451412435,0.6601941747572816,0.6666666666666666,0.8787878787878788,0.28,50.41398344066238,50.41152207407145,50.41619989753451,52.52525252525253,0.5410137979420019,0.45898620205799806,13.536529236195527,12.468177314449553,0.4343039426728985,0.5656960573271015,15.444522753587888,17.62662571660489,0.47500773797843027,0.5249922620215699,14.52189565532803,15.26684937532678,0.6565488765971194,2.8608540887732814,0.9221560866584924,1.9399198883683237,-2.2444524599757063,-2.8737214599666476,-0.1442447709221539,0.011592911965429708,0.8558107191524548,0.7060050943765397,2.044755983691946,5.671903503260714,1.6135886650198608,1.5040766374756824,1.2649660383777215,1.6969466978478691,1.9339317089046768,2.0013726551095705,3.5302532806337887,1.2334321360823413,Relax
79.02971972710338,759.3173076923077,21.779238543072545,,,,,,,24.801150928508154,24.914359310017772,0.028682657859154154,0.032662433316426036,760.0,23.7216,0.031212631578947367,30.5,0.8781543487983046,741.0,778.4,1.9230769230769231,45.19230769230769,707.0,825.0,6.933333333333334,101.5625,,,0.024661429875666916,0.08787311775096462,0.006316330590566632,0.11885087821719817,0.2806481721242467,0.2074989284521611,0.7393560659297598,-2.431861348699891,17.61711241703176,25.032603906277394,0.7037666749727917,1385.4492626511906,1.4209254793695096,3.848560735818701,142.27785882157707,0.6346153846153846,0.64,0.859375,0.2222222222222222,48.45605700712588,48.45012713968432,48.46211334158266,53.0,0.4956514876489622,0.5043485123510378,12.40690825907162,12.515284772676027,0.4833814921813122,0.5166185078186881,17.404078622504535,17.992479140748078,0.48744747158791785,0.5125525284120824,15.11345965104183,15.497768526007722,0.7359767322149394,2.900238576574823,1.0248193562895165,2.0419992837973897,-2.239315974094083,-2.8922319100175824,-0.14927715405083627,0.01151888799235693,0.8768989432161121,0.6281967521274976,2.1068405158679506,5.772273131477815,1.540797921582394,1.6302930526718487,1.2336669471236896,1.6285597454838372,1.9705286302796776,1.9690646810531978,3.306980229436567,1.159691489678266,Relax
79.01062889026704,760.0,24.29391229829567,,,,,,,29.337672524012767,29.469741069148498,0.03196567407670483,0.03860220068949048,760.0,25.2042,0.03316342105263158,33.0,0.8280790604098263,740.0,779.0,4.807692307692308,47.11538461538461,706.0,840.0,7.428571428571429,85.9375,,,0.019173613765087368,0.05753582870663362,0.004367743366613936,0.08107718583833493,0.3332465038932643,0.23648593086739447,0.7096426462230454,-2.8553474172885256,20.838253749806597,26.347965871005904,0.7908866229684031,1724.8776190829608,1.2644037349459019,3.9437283970566477,133.25786582210807,0.6153846153846154,0.62,0.8387096774193549,0.2222222222222222,51.79948586118252,51.702148016831984,51.901312257238594,53.0,0.6106686820376304,0.38933131796236975,16.290409785526947,13.00735086290011,0.4699395570058769,0.530060442994123,18.06209381971044,19.18270242660479,0.5241186261084949,0.47588137389150525,17.199079686605533,16.388521117816847,0.8767586580354094,1.6034687878503524,0.9938648870620197,1.456787466854656,-0.9548934034283896,-1.3588864579309647,-0.211299288579704,0.0019925527709221077,0.19215827732544818,0.5528953756812727,2.181224235989778,5.827420607376946,1.5289058860042029,1.2837808589753374,1.3904781624764786,1.7450768788242568,1.962175731992697,1.9895016027060903,3.537402165765451,1.09526418469614,Relax
78.79457640065468,761.6153846153846,21.99925316133391,,,,,,,24.687168948253497,24.803092816978392,0.028884990515840907,0.03241422041483642,762.5,24.462899999999998,0.032082491803278684,32.5,0.8911209384699519,742.2,779.4,1.9230769230769231,45.19230769230769,709.0,825.0,6.5,93.75,,,0.0513152333539252,0.08541643009022166,0.005669905621905543,0.1424015690660524,0.6007653714832515,0.3603558141281634,0.5998278716339256,-2.460216806876918,17.538435125284767,25.613695428216424,0.6847288074630641,1411.2792441740146,1.4604322019180453,3.856583064329226,149.62826245395314,0.6346153846153846,0.6363636363636364,0.8571428571428571,0.2692307692307692,51.19961612284071,51.18559230644987,51.21323189735975,51.515151515151516,0.5556599866186637,0.44434001338133605,13.07613452506692,11.69317716263902,0.47637632306444905,0.523623676935551,17.678577836891616,18.53454286337807,0.501690088512075,0.4983099114879248,15.548591711995696,15.496123246013207,0.9701443671560144,1.293636069921663,0.9752951114955939,1.5295925001587987,-0.8780471046606211,-1.5579423149044063,-0.0715198412048215,0.0019882207010174734,0.15282003232154692,0.6360585153801916,2.0149030205422647,5.711075747087428,1.5382600459078317,1.41265203641021,1.537708817602147,1.9889380352607535,1.9881242889560786,1.937420120771986,3.371420063137054,1.159691489678266,Relax
78.60722966338385,763.2038834951456,22.730026449999265,,,,,,,23.843649214059855,23.95919045422651,0.02978237786986292,0.031241519769090002,764.0,23.7216,0.031049214659685864,33.0,0.9532947849524677,743.0,785.0,2.912621359223301,41.74757281553398,709.0,825.0,6.866666666666666,101.5625,,,0.06418501130756903,0.07977903016282646,0.006212537887565346,0.15017657935796083,0.8045348655726883,0.4273969455288874,0.5312348337130866,-2.528494588973521,16.941706041923563,27.152285402916583,0.6239513834847861,1445.1515885278518,1.6026889697959668,3.8668835145687024,174.06667328002578,0.6213592233009708,0.6262626262626263,0.8387096774193549,0.2692307692307692,50.84226646248088,50.80992570034716,50.87510586897965,54.54545454545454,0.5648312611012434,0.43516873889875674,12.733754939195475,11.177018501114572,0.41317212280109195,0.5868278771989083,17.453072618445397,20.799924489687648,0.4556758305828398,0.5443241694171601,15.276751269105182,16.696745212031075,0.806629061900063,0.8820115965705178,0.9004608108485909,1.0968385216656031,-0.2219916045862247,-0.8090419009745906,-0.2773524615996229,0.00012442425220017092,0.04021377534677654,0.5961799807416099,1.7525387560747736,5.773499556141395,1.4634691662114119,0.9162997572708029,1.3339755033625251,1.6380978530921546,1.9059141117298115,1.919108094385922,3.8424039342540244,1.1035971743894633,Relax
78.60066053747576,763.4660194174758,22.528768333556773,,,,,,,24.004084619734464,24.122108957452955,0.02950854099668537,0.0314409338585227,764.0,25.2042,0.03298979057591623,33.5,0.9385389482852935,743.4,785.6,2.912621359223301,43.689320388349515,709.0,825.0,6.0588235294117645,101.5625,,,0.04381781220812139,0.055553207159660986,0.004262899704380679,0.10363391907216306,0.7887539612643453,0.4228134244118461,0.5360523625568749,-2.8904140299157164,17.056906820335744,26.83198730271548,0.6356930117736577,1437.8149315871162,1.5730863506110966,3.864673099372388,168.8361319426879,0.5825242718446602,0.5858585858585859,0.8103448275862069,0.23076923076923078,50.40080160320641,50.410217194180106,50.39156552370109,55.55555555555556,0.5711223031375484,0.4288776968624515,12.890629031652535,11.17059435383014,0.40572193702527076,0.5942780629747292,17.090984679680126,20.68462678638472,0.45332608282007386,0.5466739171799261,15.137207043453293,16.62281509717662,0.9675963557829945,0.5664188789739053,0.9983286489346317,0.9910587032918976,0.44673208273814513,0.2013521272842298,-0.5128349281999639,5.543167034902878e-05,0.01148275852002772,0.5536644656961012,1.665007763588911,5.757871978719678,1.4469787943062555,1.2718025959607733,1.1639264387013246,1.7371513588588037,1.8690262524632626,1.920361028629511,2.927292012132429,1.2334321360823413,Relax
78.43212610395375,764.9320388349514,22.832408226252475,,,,,,,23.62596610743789,23.742619856923017,0.029848936986647777,0.0308863597129779,765.0,25.2042,0.032946666666666666,37.0,0.9664116219596376,743.4,787.0,2.912621359223301,42.71844660194174,709.0,825.0,6.4375,101.5625,,,0.03240860566050983,0.04754776295225503,0.002888045600839024,0.08284441421360389,0.6816010606651011,0.39119844069327736,0.5739404811247637,-3.0460205373171085,16.788567503964643,27.567246278247662,0.6090041542238445,1453.9748689223932,1.6420249239095366,3.869527010031817,181.06442188974032,0.5728155339805825,0.5757575757575757,0.7894736842105263,0.25,49.92311635058944,49.921499574516304,49.92471035548785,54.54545454545454,0.5618687977518222,0.43813120224817775,12.584368741961725,11.112609909913196,0.4200637165400426,0.5799362834599575,17.866972599564328,20.993436057300805,0.45842838362270427,0.5415716163772956,15.453074880217946,16.796047995017734,0.9809987993350442,0.6149242472625076,0.9809987993350442,1.1440546082941134,-0.05921128161998723,-0.5831162190918917,-0.2348359416872016,0.00017143348405543443,0.01860985694978334,0.5583485531310202,1.6341305250244718,5.7301559304451795,1.4167434275074176,1.1969949464421434,1.1740558921557291,1.61435435934496,1.8581390462329308,1.895066891791169,3.2043884831567357,1.2983496169287803,Relax
78.36351163205524,765.7378640776699,22.72338398449567,,,,,,,23.800642601310035,23.91817735365285,0.029675147397688048,0.031081971674442235,766.0,26.686799999999998,0.034839164490861614,35.0,0.9547382549765664,744.8,786.6,2.912621359223301,45.63106796116505,709.0,825.0,6.0588235294117645,101.5625,,,0.04021828974465501,0.04739783677146732,0.0024702302692779046,0.09008635678540024,0.848525850210652,0.44644151656017406,0.5261377911460707,-3.0491786890552963,16.912705400390443,27.486806986956243,0.6153026580503258,1460.4518714174249,1.6252164474124695,3.871457359513579,178.68804320821306,0.5728155339805825,0.5800000000000001,0.7931034482758621,0.2,49.999999999999986,49.995823230899546,50.00416941290335,54.0,0.5638975424022152,0.4361024575977846,12.700276756943932,11.16882152500548,0.4252225208075308,0.5747774791924691,17.923896262491592,20.838869957596703,0.4633061547227037,0.5366938452772964,15.53323995391062,16.718269578025296,0.8827735272115357,0.8850984302730196,0.9371710217431342,1.1031610127778662,-0.38271031381398135,-0.7627287400455764,-0.31246154624460204,0.00010815191529037481,0.031631466674685964,0.5696103729308502,1.698669046162043,5.710738454717024,1.4264992125833096,1.008358263256919,1.286816479394356,1.7796664025413365,1.880032993946094,1.8990352595764728,3.7951287129028093,1.1685146552359023,Relax
78.49680863121714,764.0384615384615,24.476627677532004,,,,,,,23.880771807793867,23.979264791065756,0.032035858022443096,0.031255981223389906,765.0,25.2042,0.032946666666666666,34.0,1.02495128191559,743.0,786.0,3.8461538461538463,42.30769230769231,675.0,825.0,5.777777777777778,132.8125,,,0.05813768569033989,0.05891386465269686,0.003225469325742354,0.1202770196687791,0.9868251901834548,0.4833648676234283,0.4898181283085901,-2.831678822940365,16.955900741630412,29.043017386933986,0.5838202179797825,1547.0789360464921,1.712856062882409,3.8964825830760477,198.9860336624364,0.5576923076923077,0.5643564356435644,0.7719298245614035,0.19230769230769232,47.54098360655736,47.40297478430922,47.67103747767109,55.44554455445545,0.5133129043241405,0.4866870956758599,12.15746361576408,11.837958223526588,0.3916683241065255,0.6083316758934744,18.176110726150046,22.65228151441887,0.42262581576137304,0.5773741842386269,15.462453277179112,18.072950958690225,0.9123998941386191,0.7657631828892009,1.0137039666129284,0.9556038919842498,0.37289442457281297,0.27171369995922623,-0.575872118073722,1.9773209540889528e-05,0.023362059819435177,0.5782519510324722,1.7047480922384253,5.783285122129034,1.3509300543112361,1.2862250400885353,1.1698441912660704,1.6124540885123693,1.8391290570600776,1.8667163460732912,2.856592959514075,1.2885460996425178,Relax
78.59890196584512,763.5436893203884,23.065455325935535,,,,,,,22.820914040569427,22.93228787578806,0.03020842899830072,0.029888157494801334,764.0,26.686799999999998,0.03493036649214659,34.0,1.0107156656797962,743.0,785.0,3.8834951456310676,39.80582524271845,709.0,825.0,5.722222222222222,93.75,,,0.041292887086550406,0.04532969950703532,0.002415626388112032,0.08903821298169776,0.9109455287728438,0.4637659012208428,0.5091038778636883,-3.093792843060058,16.215576265091784,28.047506811170496,0.5781467983683168,1428.816714412738,1.7296645122350662,3.861946631947725,194.05110875181165,0.5242718446601942,0.5346534653465346,0.7222222222222222,0.16,50.674581759309234,50.701012080937645,50.64902917417625,54.45544554455446,0.5783964910299128,0.4216035089700872,12.333043436072039,10.52954353847843,0.428645000380685,0.571354999619315,18.362979249111113,21.200557337470403,0.4661635921271023,0.5338364078728979,15.641338934044697,16.73820358563133,1.069127843729033,0.6783265636778637,1.115032738102692,1.158085591616941,0.26466312645894874,-0.0018302231930276136,-0.4365307864683674,6.884619397521745e-05,0.017814777448114386,0.5739681194736459,1.75539182505718,5.733695037014114,1.3632416084407952,1.2749333478559954,1.3239909974412543,1.4636466025555015,1.9449397812775047,1.8563769348271737,2.608204029927403,1.0386796935430243,Relax
78.77872417655905,761.6634615384615,23.52920539134335,,,,,,,22.459888733957424,22.566672585770707,0.030891865737943374,0.029487942993341648,763.0,25.9455,0.0340045871559633,35.25,1.0476100603191862,741.0,783.2,2.8846153846153846,39.42307692307692,707.0,825.0,6.117647058823529,93.75,,,0.040679587761259295,0.04496918540505152,0.0029507103581664597,0.08859948352447727,0.904610288019352,0.45914023584596625,0.5075558413681717,-3.101777792549675,15.957047214215029,29.253444918443726,0.5454758322892229,1466.491057938797,1.8332617887088694,3.8732495291367477,214.51689102833012,0.5288461538461539,0.5346534653465346,0.7407407407407407,0.14814814814814814,48.97739504843919,48.98041019551916,48.97505577484949,55.44554455445545,0.5526386696947534,0.44736133030524666,11.864017108921594,10.67432323243906,0.4180573373240234,0.5819426626759766,18.914503318124158,22.316039160771588,0.448925026337269,0.5510749736627308,15.787864607541358,17.492095076000464,1.03219894848681,0.9010952161803214,1.1265291757284115,1.1699244241097881,0.14481588620189356,0.0297968516795466,-0.4518416615667698,8.512939624493696e-05,0.03451104976282503,0.5539485410216365,1.9195928407379397,5.694638189928325,1.3634088703211646,1.4106669600196016,1.4687486422731284,1.6537492551995867,1.9304246871206763,1.8592427303100323,3.138102332573313,0.9664095747318882,Relax
79.04293300492373,759.5576923076923,24.64301508908975,,,,,,,25.58386172145488,25.705543871360597,0.03244390167943558,0.03368257866459867,761.0,26.686799999999998,0.03506806833114323,32.0,0.9632249954049694,739.6,779.0,3.8461538461538463,38.46153846153847,690.0,825.0,6.933333333333334,117.1875,,,0.04057292456960446,0.039276271758184274,0.0019094708629968614,0.08175866719078559,1.033013642929334,0.4962522746967814,0.480392759663416,-3.2371347145070493,18.176564385527374,29.348735529404802,0.6193304092203934,1675.9114439694918,1.6146470205762857,3.931221176516503,189.55139352093937,0.5480769230769231,0.5588235294117647,0.7543859649122807,0.15384615384615385,51.10767645543536,51.03931039975933,51.17747612050084,53.92156862745098,0.6327187504635331,0.367281249536467,14.46022265442985,11.017143503667008,0.4075497727275105,0.5924502272724896,18.736122720613317,22.58995313348536,0.4699858730398954,0.5300141269601045,16.735297036765868,17.771936213500446,0.9751900733265186,2.0646535419963183,1.217496244917632,1.5381976408907636,-0.7058503652975601,-0.500426887114084,-0.3446705999578774,0.0029228975192110112,0.2900734519602149,0.5366569158616992,2.2735975561207935,5.733099728389863,1.3503418605282698,0.935289466969302,1.3823019194191268,1.544282330589447,1.9413412493769981,1.872250872690633,3.10100941325035,1.0308368797140142,Relax
79.1651356683655,758.125,23.358617253596154,,,,,,,21.509988648311403,21.61460893114065,0.030811036773086435,0.02837261486999031,758.0,23.7216,0.03129498680738786,30.25,1.0859427978094203,738.6,777.4,2.8846153846153846,36.53846153846153,707.0,825.0,6.5,101.5625,,,0.04907958372113776,0.03586911917024955,0.0016565703537925341,0.08660527324517985,1.368296318852602,0.5667043342983663,0.41416784251351463,-3.3278785439075733,15.283836547904867,29.23333464658624,0.5228222073423175,1403.6557703100982,1.9126961057819996,3.8542307253164676,223.65794135019004,0.5192307692307693,0.5294117647058824,0.7222222222222222,0.14814814814814814,49.54802259887006,49.52873416760537,49.56719345617047,53.92156862745098,0.5547045492697668,0.44529545073023336,11.38346754435279,10.199240648397389,0.4175200588819926,0.5824799411180074,18.88935073938314,22.310990188780615,0.44697006771699155,0.5530299322830083,15.594725144881004,17.346538458836484,0.993208485767362,2.2713681627970344,1.203653020081237,1.7711038755779804,-1.4295730668171327,-1.503080592330985,-0.2501722244807876,0.003854742077591372,0.3836525065890437,0.6015447132061564,2.251291798606495,5.679160877674125,1.3412622062277113,1.3358551251227775,1.3192050301904021,1.9023440579347302,1.9211247943504315,1.8532784566943288,2.92078205953004,1.0308368797140142,Relax
79.30165898239227,756.7019230769231,24.16483837607026,,,,,,,21.03141432118902,21.131499300973054,0.03193442178369324,0.02779352566684445,756.0,22.238999999999997,0.029416666666666664,30.25,1.148987795448656,737.0,775.8,2.8846153846153846,36.53846153846153,707.0,825.0,6.117647058823529,93.75,,,0.033536284335191686,0.02455901504462056,0.001653624053243248,0.0597489234330555,1.365538653494881,0.5612868384610604,0.411036946500588,-3.7066762805537783,14.942226452356831,30.80533069145808,0.4850532721760431,1446.0758120020482,2.061629221701373,3.867161171849127,254.03667975073657,0.5192307692307693,0.5294117647058824,0.7222222222222222,0.10714285714285714,51.014492753623195,51.02198087003589,51.006375299538895,51.9607843137255,0.561250246932549,0.4387497530674511,11.195674935210558,9.898752149521023,0.4485795092648283,0.551420490735172,20.63220246933845,22.875327763210603,0.4700438504220988,0.5299561495779012,16.59865831913347,17.624782472302474,1.0418719193478436,1.3568233156854599,1.1670079797173556,1.406699804365369,-0.5670437682911729,-0.7077288483799244,-0.3233433772274747,0.000521468641449326,0.09806719733736824,0.5939175517970647,2.2735975561207935,5.706610425484446,1.3146439404165648,1.311709236714839,1.3295633384628325,1.4343314483665612,1.901011440229378,1.8401898389143714,2.7034965972571325,0.9019822697497624,Relax
79.30704739982114,756.5673076923077,24.266227449334863,,,,,,,21.59377832006067,21.69894211918976,0.03207411581575214,0.028541780883879743,755.0,23.7216,0.03141933774834437,31.25,1.1237601446890597,737.0,777.4,2.8846153846153846,37.5,707.0,825.0,6.117647058823529,93.75,,,0.018210651950889386,0.016533395664939433,0.001214152834712505,0.03595820045054132,1.1014465703198968,0.5064394692369885,0.45979485785670166,-4.102372963869651,15.343469117053473,30.732370290403512,0.49926084360127027,1481.3902895004405,2.002961002883375,3.8776396034904104,246.2229568713994,0.5096153846153846,0.5196078431372549,0.7169811320754716,0.1111111111111111,49.60496613995484,49.59042192393597,49.619609208671065,52.94117647058824,0.5444115932372782,0.45558840676272166,11.321288293628555,10.356630915581023,0.4465495801544525,0.5534504198455474,20.536711396938333,22.863115900186028,0.4660763143252521,0.5339236856747479,16.582039736241555,17.747984006457013,1.0075240490581512,2.0535342870864985,1.167692573490251,1.5502308652084769,-1.0089852303288627,-0.6985873236130402,-0.3137171148668955,0.003134003217981681,0.27642175838057526,0.5932568443421804,2.4277482359480516,5.6893001460634816,1.3139148300412946,1.2269037481513632,1.2333399785429893,1.539325165594208,1.8675409387906445,1.8499712237522365,2.967966294855152,0.9019822697497624,Relax
79.47558164604528,755.0285714285715,25.39929478989871,,,,,,,21.08225648410384,21.184350332949233,0.033640177009250545,0.027922461853615167,751.0,23.7216,0.0315866844207723,34.0,1.2047711690183613,732.8,777.2,2.857142857142857,35.23809523809524,698.0,825.0,7.5,109.375,,,0.013064329906655917,0.011573737026741438,0.001031153129889038,0.02566922006328639,1.1287909753323773,0.5089492347039122,0.4508799643388803,-4.459016797123571,14.979597775459897,32.58630179958844,0.45969002151846167,1533.504660504751,2.175378957969917,3.8926552101553655,283.55022101152775,0.5047619047619047,0.5145631067961165,0.7169811320754716,0.1111111111111111,50.000000000000014,49.99690991928619,50.003176043672205,52.42718446601942,0.5505797853928694,0.44942021460713055,11.115020887087363,10.042144203016344,0.461764928651498,0.538235071348502,22.143463358179325,23.906779278665507,0.477258755843273,0.5227412441567268,17.519655516239734,18.335467756141444,1.004474008231031,2.3297572213177618,1.1691061621686998,1.7786984840985485,-1.6819849072814677,-1.627791221790992,-0.23834513040588412,0.004273958025249924,0.3904789512554965,0.7510969468816953,2.3774864011671633,5.777068108200332,1.2589475543175876,1.2738800960016066,1.5260729272734141,1.8392220537133823,1.8868732443077763,1.8415232704457856,2.5988301348066316,0.8952327356888163,Relax
79.69329190683936,752.7619047619048,24.886095828148004,,,,,,,20.21376149671688,20.310096011589902,0.03305971738304074,0.026852795510567715,749.0,25.2042,0.03365046728971963,32.0,1.2311462085960598,730.4,775.0,2.857142857142857,32.38095238095238,698.0,811.0,7.0,101.5625,,,0.016172398395482797,0.009922536529356377,0.0007371506063225433,0.026832085531161717,1.629865342156802,0.6027261047860337,0.3698011665113671,-4.612946691846823,14.361406616345072,31.82991052270639,0.4511921768080412,1436.092020448673,2.2163504852289315,3.8641523790412395,282.1849505271751,0.49523809523809526,0.5048543689320388,0.7115384615384616,0.06896551724137931,49.216867469879524,49.17255505941417,49.260025067491696,53.398058252427184,0.5416529392384807,0.45834706076151926,10.570383612184463,9.723607545007171,0.40351703340799916,0.596482966592001,20.21931106760425,24.58297508103833,0.4268845180064611,0.5731154819935391,16.133095638427264,18.69319672399924,1.049475826256765,1.14871755005559,1.1719786061650388,1.515777156381608,-0.5090108347706561,-1.200762965144718,-0.20071097964862486,0.0006642012682128431,0.09510593663022321,0.6317384424505512,2.3715779644809967,5.79983343701522,1.2646490766696097,1.1952487045436,1.3484068865880903,1.5997892075977092,1.8592150272921844,1.8422055508952855,2.8170725140182826,0.7673423448761283,Relax
79.62116563714059,753.6153846153846,23.555473749002697,,,,,,,18.62454795176965,18.708205529164317,0.03125662536868787,0.024713598384506017,751.0,23.7216,0.0315866844207723,30.0,1.2647541196705676,734.2,775.0,0.9615384615384616,32.69230769230769,698.0,811.0,6.933333333333334,101.5625,,,0.017656065266027598,0.011002723338970124,0.0006376724038914909,0.029296461008889215,1.6046995568353752,0.6026688773319872,0.3755649303727043,-4.509612460555703,13.22869899350375,30.501834181647148,0.4337017542854329,1267.631326115316,2.305731969305958,3.8099630730383667,281.31621678037226,0.5096153846153846,0.5196078431372549,0.7169811320754716,0.1111111111111111,48.28680203045686,48.30088894930088,48.27346766467096,53.92156862745098,0.5127351097178683,0.48726489028213177,9.476234463532608,9.237869629634186,0.40655646060133893,0.593443539398661,19.448512448114233,23.497175404721393,0.42337767412048516,0.5766223258795147,15.297771995494923,17.852947757924483,1.0153368092899833,1.7647940152750845,1.0922230119941752,1.7666280399080394,-1.3529588583006031,-1.9421604350433146,-0.11785623586855692,0.0041989250766968226,0.29369761064949745,0.6748979136304833,2.3978952727983702,5.677327910507362,1.271656463886062,1.0674243624249904,1.46712900615927,1.7709703040219957,1.8856421572904256,1.852909634209411,2.632291765748338,0.7731276597855106,Relax
79.69015083145769,752.8190476190476,24.51835299728825,,,,,,,21.078379371362423,21.15970911351297,0.03256872029850045,0.027999264149900747,751.0,22.238999999999997,0.02961251664447403,29.0,1.1631991513825515,732.6,771.2,1.9047619047619049,38.095238095238095,698.0,837.0,7.0,109.375,,,0.017964015085644006,0.015443052162187757,0.0009388402676601259,0.03434590751549189,1.163242531138295,0.5230321859319411,0.44963296297301486,-4.170596075023235,14.962173802099812,30.315553989114495,0.49354776124072575,1424.9842916602738,2.026146360153895,3.8607801868797487,245.6949974843729,0.5333333333333333,0.5480769230769231,0.7543859649122807,0.1111111111111111,47.26143421795596,47.37988091694962,47.1366210500457,52.88461538461539,0.464107169909321,0.5358928300906789,10.203035908374174,10.963753166463828,0.3864775780078037,0.6135224219921961,18.846367711993913,23.74546773031074,0.40170733503878386,0.598292664961216,15.154001413541895,18.49393307582752,0.9539238996939807,2.317462794972051,1.0682812103072714,2.0732437874016387,-2.505915356130849,-3.3809586852816516,-0.06635222827536807,0.0063955346865996405,0.5262525589826232,0.6530936453731813,2.3581549441488563,5.70649754120779,1.2876970471716092,1.4409333944205525,1.2990928723860802,1.7835738031181978,1.8694936197290695,1.8969261646847428,2.212072724072391,0.8952327356888163,Relax
80.10440054472647,748.9904761904762,22.754329781593743,,,,,,,19.90602923739438,19.999729273746475,0.030379998818312177,0.026577145998759093,747.0,23.7216,0.03175582329317269,31.0,1.1430873284787857,727.0,766.0,0.9523809523809524,37.142857142857146,698.0,811.0,6.5625,93.75,,,0.018161054339635628,0.01918861363004981,0.0015520367936992514,0.03890170476338469,0.9464495293810595,0.4668446910000019,0.4932589393385824,-3.9534382159678088,14.141944191361235,28.94035998646834,0.4886581990677929,1285.7689112748033,2.0464201806245907,3.8161330306678436,236.8965468433969,0.5238095238095238,0.5384615384615384,0.75,0.07142857142857142,49.005847953216374,48.988467434528246,49.023719820731756,52.88461538461539,0.52958019898083,0.47041980101916997,10.292800764263124,9.700865740566913,0.39375461790053945,0.6062453820994606,18.16003825517831,22.533473915862107,0.41994187072406036,0.5800581292759397,14.760229283489387,17.34739523434776,1.0011162801595175,1.3478152261401102,1.0168977123591598,1.6398113224188418,-1.0870489909108194,-2.0166238492893576,-0.03783456516989389,0.0008864451461612835,0.13856635735486122,0.6619141009542409,2.525728644308255,5.697159922242588,1.33694723217312,1.5245963417066444,1.3240031318923253,1.7738747899826788,1.9039217425807857,1.8811009697727457,3.7358551455115787,0.9591779310951603,Relax
80.45433486771562,745.5849056603773,20.835349048936408,,,,,,,20.391875132723115,20.480523223341525,0.02794497164676662,0.0273501716275515,745.0,23.7216,0.03184107382550335,31.75,1.0217475790395383,727.0,763.0,0.9433962264150944,38.67924528301887,697.0,804.0,6.625,85.9375,,,0.04382057471725,0.04292298886989887,0.003767932692237231,0.0905114962793861,1.0209115411340934,0.48414374437018437,0.47422692844902775,-3.148347725482594,14.481916853473361,25.330339494390888,0.5717221775365552,1152.4363092392746,1.7491012930595322,3.7685870428865886,177.22131825310413,0.5471698113207547,0.5619047619047619,0.7796610169491526,0.06896551724137931,48.20828667413213,48.16625803579923,48.24947764270761,51.42857142857142,0.4810819476890661,0.5189180523109341,10.04915802060436,10.436852236923958,0.49131929868387164,0.5086807013161283,17.75509180289858,18.066068027430386,0.4887956839463548,0.5112043160536452,14.42617173494814,14.753147097943664,0.9326654245067402,1.2930635477513976,1.0440107023611953,1.4797365478363738,-0.8930434055715768,-1.6024266670991336,-0.16302828176318646,0.000874055846926015,0.12071012863656184,0.6816705233709821,2.4729304587412844,5.629773020658408,1.4553795383843933,1.4171087269902352,1.4196903893743487,1.8970190565094571,1.9055465331972277,1.9077539113362791,3.5121322017442163,1.1424770583220525,Relax
80.85072942098355,742.688679245283,25.956140004886695,,,,,,,26.934842013379516,27.06044651456745,0.03494888333462039,0.03626666565154943,743.0,23.7216,0.03192678331090175,29.0,0.9636640895087981,724.0,762.0,0.9433962264150944,39.62264150943396,638.0,817.0,6.625,148.4375,,,0.07029021084950988,0.06930980359047671,0.0059710630311842925,0.1455710774711709,1.0141452898182486,0.4828583539434903,0.4761234497574075,-2.669168916839599,19.134625232386515,30.543096916173532,0.6264795375826518,1836.0432342650934,1.5962213288858924,3.970853013505494,195.0141709913005,0.5471698113207547,0.5619047619047619,0.7796610169491526,0.06896551724137931,51.162790697674424,51.03907929333311,51.288946661763354,54.285714285714285,0.6951270741440874,0.3048729258559127,15.955466871167483,10.566638356348067,0.33301559684847176,0.6669844031515284,17.62565874382702,24.94427635905526,0.43509795155860953,0.5649020484413907,16.811317158848215,19.15555753862008,0.9002773447027832,2.272452033009118,1.2212162033298366,2.036503361207342,-2.6320814228112166,-3.658761558488887,-0.1412302015466857,0.0070566619454603755,0.5449929243547573,0.7610244371716948,2.054123733695546,5.751044275113816,1.2915917156777796,1.4277529652591987,1.3226086918917928,1.5656467894234487,1.8189719023243525,1.9159803578295393,2.38119039587745,0.8885932675838187,Relax
81.15910885068794,738.9439252336449,21.83248046638567,,,,,,,22.863623575865393,22.951484046703637,0.02954551721834984,0.03094094530736713,740.0,20.7564,0.028049189189189187,27.0,0.9549002761500943,724.0,756.0,0.9345794392523363,35.51401869158878,670.0,782.0,5.944444444444445,109.375,,,0.059052360482266406,0.06997961672201077,0.011624531810226503,0.14065650901450366,0.8438508704162794,0.4198338270728536,0.4975213533473583,-2.659551269022287,16.229150007719007,25.365855785139377,0.6398029755111545,1293.287756615576,1.5629811649454664,3.8186652761462874,158.58541929958338,0.5607476635514018,0.5754716981132075,0.7868852459016393,0.06666666666666667,47.29374671571203,47.24378433335832,47.34040409840414,52.83018867924528,0.4232733572756313,0.576726642724369,10.568146208570086,12.3359714038332,0.408738274487295,0.591261725512705,16.217061832380153,19.50470572034471,0.41296543535443053,0.5870345646455696,13.687198558524594,16.318850077646985,0.9046340479729194,2.334434936733029,0.9129504380330027,2.055803266222405,-2.4822819710543946,-3.4501854708203368,-0.010437061146458735,0.006319342001575212,0.5401823173599855,0.6827946067296202,2.3136349291806306,5.685993182947431,1.4531388172912103,1.9112643223030552,1.5631330284222449,1.6931945062829794,1.8790454380648185,1.9077397499702873,2.6403611631524426,0.9450654653833384,Relax
81.4531292907214,736.7476635514018,20.539466592045045,,,,,,,21.73424391347824,21.831042793918506,0.027878563595352394,0.029500254956644153,738.0,19.273799999999998,0.026116260162601622,26.5,0.9450278865835186,723.0,753.0,0.9345794392523363,37.38317757009346,670.0,782.0,5.944444444444445,109.375,,,0.0517034888635662,0.06312522243981328,0.014372837451779386,0.12920154875515885,0.819062283905025,0.40017700532016065,0.48857945626826527,-2.7626348675937993,15.436878399953487,24.462263509919744,0.6310486514746947,1186.3313191982163,1.5846638728457854,3.7811761059080906,155.05786092881422,0.5607476635514018,0.5754716981132075,0.7704918032786885,0.07142857142857142,48.52476290832455,48.52603448462628,48.52375279501924,51.886792452830186,0.4740573574053363,0.5259426425946636,10.63171356524118,11.19842676025351,0.44619808098864616,0.553801919011354,16.340317438628652,18.204295153441105,0.45413592977715544,0.5458640702228443,13.784761646986954,15.11292698219576,0.8905556107842508,2.347629066692326,0.9940217604253749,1.940741126871572,-2.3602467372031697,-2.964187415334287,-0.09673383675553562,0.006778919935839248,0.5193605743994969,0.6910297311053282,2.409194828052304,5.66024657077768,1.5272390007871737,1.785202106300585,1.7174215469701124,1.9155771831639552,1.8555369100267929,1.9123047367045851,2.7945534863180117,1.1970829228188953,Relax
81.40151622933418,737.1588785046729,20.844504969167,,,,,,,22.10715755347891,22.21208116915723,0.028276814641980695,0.029989678206580498,738.0,19.273799999999998,0.026116260162601622,27.0,0.9428848968368071,723.0,753.8,0.9345794392523363,39.25233644859813,670.0,783.0,6.6875,109.375,,,0.06328796051562714,0.07684811271200946,0.008765117088647585,0.14890119031628418,0.8235460609527343,0.4250332746245738,0.5161013995171883,-2.565924367373134,15.706313218977092,25.038307577813363,0.6272913283042572,1235.4611602077543,1.5941556257493277,3.79879920678804,159.65983553765278,0.5794392523364486,0.5943396226415094,0.8095238095238095,0.10344827586206896,50.17976373908578,50.17749371580149,50.1819038548142,50.0,0.49367821638837955,0.5063217836116204,11.035656495456639,11.176079898817918,0.469380807928589,0.530619192071411,17.15408802149087,18.2388078149897,0.47624194462972486,0.5237580553702752,14.423044930505673,15.125456561983365,1.0180561404781112,1.3487391325166396,1.084974839190783,1.642920125084073,-1.3597347978504697,-2.1842895215111975,-0.08632082925316426,0.0011557575584979622,0.13948092299866036,0.6307215275147686,2.209494669928034,5.67435661754709,1.5223871073315314,1.1678880959298545,1.5978882986432132,1.8408254117392182,1.8982987569245091,1.8909708278009092,3.2538659549086306,1.0710741941011168,Relax
78.92232244770314,760.4326923076923,35.71020479725211,,,,,,,33.3022346840487,33.46388673197356,0.04696037553157008,0.04379379663831403,757.0,30.3933,0.04014966974900925,43.75,1.072306562488937,735.6,788.0,11.538461538461538,52.88461538461539,669.0,850.0,6.933333333333334,70.3125,,,0.020665739651008135,0.021227710145829137,0.0023838517318426036,0.04427730152867988,0.9735265607566523,0.4667343974795358,0.47942646486889545,-3.8524478684422356,23.662541233037036,44.82644366218671,0.5278701431538622,3332.3111141903305,1.8944053058680432,4.229715651576654,339.67781086736574,0.6057692307692307,0.6213592233009708,0.9375,0.0625,50.53683820807109,50.549125877614685,50.52379180291477,49.51456310679612,0.48618150939762406,0.5138184906023757,16.499702908792976,16.962184006622195,0.48139917675453714,0.5186008232454629,31.101902586592143,32.28129035359852,0.48244141649924893,0.5175585835007511,24.895466862305458,25.785629652655786,0.8149911964566435,0.7747812617059905,0.9389997194779252,1.2023818273096387,-0.30838792469145293,-1.3017620732780284,-0.1600561721746178,0.00036160458668608146,0.04725523742159797,0.725259858375582,1.8887517352153649,5.964580823785507,1.3044183032277232,1.2194660236602688,1.3653934432052586,1.6190165106698504,1.8314916046039107,1.9286161386012668,3.1538421469103533,0.9664095747318882,Stress
78.30796620151715,766.3203883495146,32.58299014680098,,,,,,,33.352690457957266,33.516491071600406,0.042518756700415564,0.043523167287499186,763.0,32.6172,0.04274862385321101,45.0,0.9769223921492471,739.0,793.2,11.650485436893204,54.36893203883495,669.0,850.0,7.357142857142857,70.3125,,,0.013073709285168152,0.017242958410854006,0.0021679661822677004,0.032484633878289856,0.7582056961257057,0.4024582617785198,0.5308035323857483,-4.060351426910796,23.699738118307017,39.70805235051902,0.5968496744463782,2956.459986768857,1.6754637604981075,4.177742115521477,266.11761085302527,0.5922330097087378,0.6078431372549019,0.9193548387096774,0.06060606060606061,50.4662439388288,50.482397411645685,50.44986812227088,49.01960784313725,0.4629709602079938,0.5370290397920062,16.126203999873763,17.368173920897227,0.5066600210263846,0.4933399789736156,28.264213448028215,27.890207235441252,0.4951841217663764,0.5048158782336235,23.01000018775797,23.23270458838568,0.6982591964032148,0.644596327880715,0.7435825468173984,0.9694693070680154,0.22802439615461,-0.6697994972942762,-0.1495686517587203,0.0001921399541096688,0.029809436199155617,0.6151406015706238,1.8827312474337816,5.909421886238483,1.4042472175740182,1.456326187255907,1.3908360571181775,1.7876846096197703,1.9023455914650276,1.955417902827827,3.272790346629831,0.9088447318501461,Stress
78.03987301890761,768.8529411764706,31.184978949101627,,,,,,,29.186834140220018,29.331350443030768,0.04056039494546709,0.03796153019270421,764.5,34.099799999999995,0.04460405493786788,45.5,1.068460484589801,739.2,795.6,8.823529411764707,53.92156862745098,711.0,850.0,7.846153846153846,23.4375,,,0.008725668593445712,0.01777526980322649,0.0017171583611120026,0.0282180967577842,0.49088810971869845,0.3092224351041203,0.629924475623007,-4.029947124604852,20.7403967996261,39.094704764124494,0.5305167777775025,2547.328011998973,1.8849545233787077,4.113054981360066,294.76696234116633,0.5588235294117647,0.5742574257425742,0.896551724137931,0.029411764705882353,50.50586806960744,50.501151250946094,50.50989280818817,47.524752475247524,0.4761096711956206,0.5238903288043794,14.311533810182612,15.012494796002429,0.5058901793598197,0.4941098206401805,27.806482994437626,27.480819567001824,0.4993490351912411,0.5006509648087589,22.113576107449795,22.142385193042216,0.8108332754325684,0.6598418038985705,1.234314611938185,1.1407541773818537,-0.2952157874442509,-1.332102733192717,-0.6417922205042849,0.0005754036036768314,0.05306045543514485,0.6548724770427383,2.02595285672885,5.926943969252792,1.442371680321796,1.3746698390651169,1.3701099206786027,1.7994870793705027,1.975725491714975,1.9362615596565647,3.8158472138848896,0.9158230861529503,Stress
77.7569745431756,771.9117647058823,31.772739714009358,,,,,,,29.389160795729225,29.523341998701255,0.041161103077779315,0.03807321269021885,768.5,33.3585,0.04340728692257645,46.0,1.0811040143285244,741.2,800.4000000000001,8.823529411764707,53.92156862745098,711.0,850.0,9.272727272727273,23.4375,,,0.012733803482628665,0.019667255151719916,0.0015138170195216757,0.03391487565387026,0.6474621590250271,0.37546366416282356,0.5799005531507986,-3.928800201223401,20.876155330571255,39.54729465907225,0.5278782154516406,2593.6846514718936,1.8943763366791389,4.120887281998612,299.66983672729503,0.5588235294117647,0.5742574257425742,0.896551724137931,0.029411764705882353,51.73387096774194,51.71637779183871,51.750771060812326,46.53465346534654,0.4861639690036224,0.5138360309963776,14.562108363832484,14.970804921579868,0.5283558791296726,0.47164412087032753,28.74617412305622,27.159638954493076,0.5191550206909288,0.480844979309071,22.785933453701947,21.929101533560576,0.808660205828325,0.573433007976687,0.8957100393387013,0.9842530989552725,0.32834439008562466,-0.39975200141684075,-0.34559127503143156,4.4602981114319694e-05,0.017605647254776365,0.6082636090262876,2.344549292093078,5.952973597018023,1.4389582796749834,1.1711134198695496,1.1152513981223493,1.8014444599565458,2.0549617052890747,1.929377143793196,3.0591327715102765,0.7849912167025288,Stress
77.59725987025341,773.4607843137255,30.265384458295987,,,,,,,29.613851455354503,29.760951890451064,0.03912982412566629,0.03828746338009911,769.5,29.651999999999997,0.038534113060428844,40.25,1.0220009546520394,747.0,800.4000000000001,8.823529411764707,53.92156862745098,711.0,850.0,7.846153846153846,101.5625,,,0.01875894273659041,0.02155245318504815,0.0016405021396303386,0.041951898061268894,0.8703854997631678,0.4471536117196367,0.5137420279190168,-3.837265632018122,21.044170896304543,37.34941117141587,0.5634404997637552,2469.2522151630446,1.7748102957087566,4.099535562007639,265.15247794275416,0.5490196078431373,0.5643564356435644,0.8947368421052632,0.0,50.381679389312986,50.396349980179565,50.36680504785805,46.53465346534654,0.4675811459215355,0.5324188540784646,14.390274493559879,15.35561786448204,0.5223737091377879,0.4776262908622121,26.994445742976332,25.81236939688009,0.5091701234122094,0.4908298765877907,21.63076629445306,21.237624795171797,0.7615765483846733,0.5226361129969787,0.8995370887196144,1.02037405112982,0.19929133683129585,-0.7956675556620192,-0.2687933164103715,0.00016037158616496612,0.021786061328708455,0.6606134233199654,2.302585092994046,5.859740508740308,1.4792798942701186,1.1585723863706532,1.1716556254731403,1.6590142740267861,2.008951812731941,1.9370043083620583,3.1039957551869644,0.9812390208781611,Stress
77.29304362265577,776.5,29.716398779725036,,,,,,,29.450411417725004,29.59462086525887,0.038269670031841646,0.03792712352572441,773.5,30.3933,0.03929321266968326,40.0,1.0090317027571285,750.6,802.6,8.823529411764707,51.9607843137255,711.0,850.0,7.846153846153846,109.375,,,0.018231039397627033,0.025282575980146462,0.002282806630846949,0.04579642200862045,0.7210910554345111,0.3980887282896321,0.5520644380337708,-3.677639816945892,20.926557100469438,36.57519042268194,0.5721516924076471,2404.5524316478886,1.7477882408980436,4.088004361335058,255.70275091748096,0.5490196078431373,0.5643564356435644,0.8947368421052632,0.0,50.813669650122065,50.81488199004342,50.81156296304602,46.53465346534654,0.47350456621004566,0.5264954337899543,14.401215226500852,15.185684047812927,0.5054423587167255,0.4945576412832748,26.002937583365753,25.72142670014691,0.49756467547516503,0.502435324524835,21.018417673131523,21.121041540262997,0.8484273919512768,0.5895869174968595,1.1721702256858095,1.1432208506997066,-0.16858444285598484,-1.1876352274333413,-0.5491011149111142,0.00032446066580823563,0.0352750076927786,0.605006158273246,2.97892515523761,5.890323013434071,1.4888596249005677,1.2747971728594254,1.44311356385291,1.854685885740022,1.9745935902590073,1.9338644242227798,3.4705221647981266,0.9158230861529503,Stress
77.26751428786464,776.8316831683169,29.666165679753995,,,,,,,29.681307248839293,29.825898853584324,0.03818866599101648,0.03820815743223003,773.0,31.1346,0.04027761966364812,40.0,0.9994898617854545,751.0,803.0,8.91089108910891,54.45544554455446,711.0,850.0,7.214285714285714,109.375,,,0.018462680004519547,0.03207088267153654,0.002297104703587087,0.05283066737964317,0.5756835629879777,0.3494689906498063,0.607050492871384,-3.4398067423774865,21.090095334353546,35.88186565423101,0.5877647371400464,2377.4064214432,1.7013609983916584,4.083073541375375,244.1920270945513,0.5544554455445545,0.5700000000000001,0.9122807017543859,0.0,51.10294117647061,51.1645164448436,51.04352358826853,46.0,0.47786555880950754,0.5221344411904923,14.581536685864496,15.241987462866573,0.5309164016753993,0.46908359832460056,26.144966334773972,24.575374222620056,0.5172915111870681,0.48270848881293194,21.16814206263361,20.4483153340318,0.8447765257453964,0.6602641125146782,0.9538152564393689,0.9925831916720016,0.36734749692913127,-0.18110948233457114,-0.44128420052245254,4.270421396442191e-05,0.021921360008797356,0.5950700782140217,2.9444389791664403,5.9128232400275955,1.4620977833559357,1.2225872820554384,1.4144312075505745,1.6388344172011422,1.9729952515592162,1.9283585888855828,2.65180458621022,0.8569975175819141,Stress
77.07530731099077,778.4313725490196,28.608836758451297,,,,,,,29.287073484172616,29.43314290031051,0.036751906163249776,0.037623192637098325,774.5,28.9107,0.03732821174951582,39.0,0.9768417719821731,754.0,803.0,7.8431372549019605,54.90196078431373,728.0,850.0,7.846153846153846,93.75,,,0.039278838722788666,0.048680504767686164,0.0039035501576493554,0.09186289364812418,0.8068699967314581,0.4275811174993477,0.5299256624133155,-3.0224766418186615,20.81237493644225,34.41841695578944,0.6046871639441119,2250.413918935229,1.6537476890983331,4.059232515262763,227.67751001223868,0.5490196078431373,0.5643564356435644,0.9122807017543859,0.0,49.97944923962188,49.980890069745,49.97800708624685,45.54455445544555,0.4671307037896366,0.5328692962103636,14.224626532883034,15.19259688137614,0.5314090613455058,0.46859093865449425,25.090271986529043,23.560680749599957,0.5141987792185179,0.48580122078148213,20.394383397862317,19.823227252197988,0.7766209153519578,0.7307627363080458,0.8660356182390192,1.1067890673852947,-0.07477558861165168,-1.00434915637028,-0.17054498377598118,0.0002055581078267682,0.03613951875864842,0.6194826621235054,3.0122615755052013,5.895129140842629,1.511826024317143,1.5195091346533645,1.3511503962592628,1.703868114711534,1.985491897214874,1.9351417766564183,2.9859193405070465,0.8504071514277396,Stress
76.74313460320431,781.980198019802,27.97176440556434,,,,,,,29.029984498790213,29.168690838851944,0.035770425486984024,0.037123682380068516,778.0,28.1694,0.03620745501285347,38.0,0.9635473421189745,757.0,809.0,6.9306930693069315,57.42574257425742,730.0,850.0,7.214285714285714,93.75,,,0.07241275689643091,0.07278557795550233,0.0042079007796858026,0.14940623563161903,0.9948778168760389,0.4846702454573195,0.4871655968561103,-2.6202374484117215,20.625379090486135,33.55098938763041,0.6147472687672902,2173.9880067099007,1.6266847382750151,4.044227253836226,218.30752956354155,0.5445544554455446,0.5599999999999999,0.9107142857142857,0.0,51.37157107231921,51.41110299164223,51.33246910821704,44.0,0.4899494506016091,0.510050549398391,14.440753219114075,14.734005195156852,0.5771146152204722,0.42288538477952753,25.488035775178275,21.81808701999607,0.55319925442553,0.4468007455744701,20.714431216088474,18.61611976625406,0.9033114480255013,0.5366433834508517,1.2338730654400605,1.1671782922154657,-0.16070668412099032,-1.1607066841209903,-0.6242813668841275,0.00028952541141024133,0.03164171250620356,0.678039633410239,3.091042453358316,5.869610091744423,1.535631436463408,1.4050303024044346,1.4296083138559244,1.7794936511472585,1.9501980248890411,1.9237082009789748,2.8657991137245156,0.9888432895175933,Stress
76.44390002490152,785.05,27.87793559303294,,,,,,,29.547257132268708,29.692375927308625,0.03551103189992095,0.03763742071494645,782.5,28.1694,0.03599923322683706,39.5,0.9435033332615943,762.4,810.0,9.0,56.99999999999999,733.0,850.0,7.6923076923076925,101.5625,,,0.060426189513055166,0.08418412598914793,0.003664375905781334,0.14827469140798444,0.717786029171873,0.4075286816601075,0.567757890370593,-2.4747489029521876,20.995680367740132,33.20208545655216,0.6323602893925088,2190.00541310759,1.581376972549419,4.0474152982630285,210.02005352643818,0.55,0.5656565656565656,0.9285714285714286,0.0,51.14155251141553,51.18322151645486,51.10036288705583,44.44444444444444,0.4813087896703728,0.5186912103296271,14.568627181693671,15.123808774139361,0.5721902361378987,0.4278097638621014,25.115138901073234,21.71654384666195,0.5462231370316466,0.4537768629683536,20.53064903966002,18.71280134668144,0.8564898400263207,0.7645940824792046,0.9864929774428245,1.0415902456724577,0.26976782923818377,-0.23965266388888473,-0.42793919088285415,7.429711262491941e-05,0.030765069708814062,0.6199694123288739,3.349904087274605,5.9461118146665495,1.5716236167293125,1.5021440945684252,1.2472431829317672,1.5025452314694654,1.9537390991565367,1.911683518744708,2.94230211788046,0.9965784284662087,Stress
76.46634545923942,784.7227722772277,28.02217650785934,,,,,,,29.5308313462388,29.67955967709532,0.03570965122694265,0.03763218347868477,783.0,29.651999999999997,0.03786973180076628,39.0,0.9489125510660027,762.0,810.0,8.91089108910891,55.44554455445545,733.0,850.0,7.214285714285714,101.5625,,,0.03842011733996614,0.075967904586548,0.005064173309561389,0.11945219523607553,0.5057414384280566,0.3216359252673069,0.63596909572412,-2.57744433596471,20.98661791030492,33.53501035025811,0.6258121793048258,2211.0103373686125,1.5979235193390375,4.051560883047809,214.34552703982197,0.5544554455445545,0.5656565656565656,0.9285714285714286,0.0,50.10377750103778,50.11104906242786,50.09647226750725,45.45454545454545,0.4699049388237182,0.5300950611762817,14.386265897189809,15.279880479727172,0.5582229998995375,0.4417770001004624,25.055455811241806,22.289483019640187,0.5333681431989233,0.46663185680107666,20.429641606911968,19.108843512331873,0.8479415641710292,0.7763293788265465,0.8286684035938978,1.1776286644556104,-0.05970959370813311,-0.9536929666535836,-0.05049973583483299,0.00017318433345943923,0.03976649623758666,0.5842081805273263,2.8903717578961645,5.873219279631555,1.5666410658696341,1.471526007862539,1.4604958666158452,1.6238837032317641,1.9597277936029076,1.8775990223206482,3.2353915600194907,0.9229204035497537,Stress
76.44083640543109,785.12,27.568932888417365,,,,,,,28.820061755588927,28.96429394348513,0.03511429194061719,0.036707843075694066,782.5,27.428099999999997,0.035051884984025554,38.0,0.9565882655706337,763.8,810.0,9.0,52.0,736.0,850.0,8.333333333333334,101.5625,,,0.048260481112930305,0.07978562574899484,0.007548003247520306,0.13559411010944544,0.6048768892877713,0.3559187126489242,0.5884151286851286,-2.5284119192101646,20.480848659718784,33.01144051858912,0.6204166900316206,2124.038073106388,1.6118199527305324,4.034132407113133,212.83399398495635,0.55,0.5656565656565656,0.9107142857142857,0.0,50.80891998250983,50.84784242544379,50.77078758162852,46.464646464646464,0.48214133699789613,0.5178586630021039,14.222359516060674,14.739749118680164,0.5224011002422217,0.47759889975777814,23.859784536859895,22.813721462465725,0.5112101440702876,0.48878985592971247,19.641344510362067,19.20580759885668,1.0138293142975379,0.8058822327406208,1.20137297606911,1.4167704306678481,-0.5434554715936546,-1.536996628153019,-0.23271844712816067,0.00029255821527533104,0.047458784137495,0.583120347080452,3.2771447329921766,5.854917659878912,1.5437959099835499,1.5272081274070555,1.3456207931624227,1.661384499662247,1.9085266682712994,1.8859904455198107,2.8785668238025974,1.063016990363956,Stress
76.3322579279459,786.0891089108911,26.461329902293645,,,,,,,28.04032810079083,28.17674375950651,0.033661997860465497,0.03567067369708261,783.0,26.686799999999998,0.03408275862068965,36.0,0.9436883123185477,764.0,810.0,7.920792079207921,50.495049504950494,738.0,850.0,7.769230769230769,93.75,,,0.04242531461834101,0.0887352449714235,0.005691602828037922,0.13685216241780246,0.4781112018342177,0.31000836134995624,0.6484022130430023,-2.4220981182914296,19.923966584102786,31.59045374281236,0.630695802798844,1977.340862058621,1.5855504278961297,4.003051651177851,200.35302979739612,0.5445544554455446,0.5599999999999999,0.8928571428571429,0.02857142857142857,48.83928571428572,48.861683781653205,48.81710211385019,47.0,0.45476051178999327,0.5452394882100069,13.43822378835308,14.714453829998295,0.5205783939143535,0.4794216060856465,22.79286579860311,21.87331790935331,0.5018434369178585,0.4981565630821416,18.70963107464963,18.640777718201402,0.9041866521398463,1.1585627027133936,1.0640362373622383,1.2881580206537186,-0.4557497866349447,-0.9799735541600572,-0.3065518743469132,0.0002106807890937226,0.0737176840234939,0.5921932574895035,2.908720896564361,5.893021259829575,1.5340422424882485,1.7453517681704454,1.388933293848386,1.723643482876043,1.9139177856830198,1.901154297313345,3.2851868720288255,1.0547661754854327,Stress
76.8600134520275,780.8910891089109,27.52776815875163,,,,,,,28.885809664954866,29.02780798413198,0.035251738101102,0.036990830178273634,779.0,23.7216,0.03045134788189987,32.0,0.9529858597714554,758.0,803.0,8.91089108910891,52.475247524752476,716.0,850.0,7.769230769230769,117.1875,,,0.05313544207261322,0.07876181180847193,0.00748546463901131,0.13938271852009645,0.6746345830873556,0.38121972821868916,0.5650758762975047,-2.5413270213052614,20.52575986856073,33.14204126166491,0.6193269662090092,2137.117350160099,1.6146559968495253,4.036798480103264,214.0519826839266,0.5643564356435643,0.5800000000000001,0.9137931034482759,0.027777777777777776,49.03392013739803,49.02480339628419,49.04359414414544,45.0,0.44806385503181967,0.5519361449681804,13.741112830414494,15.25093141715971,0.599110784657815,0.4008892153421851,25.65268465088946,20.984152810917077,0.5572287066258111,0.4427712933741889,20.577638489585745,18.342922044794665,0.8711719772480092,1.2336733754131375,1.0392249854028957,1.2951255549333553,-0.6001309118177751,-1.1458228547403637,-0.29257024214795696,0.00024386038027728214,0.0846108922782593,0.5592348888294603,2.8903717578961645,5.893021259829575,1.5247575498512917,1.5445164509657985,1.370116914365293,1.7684241715695566,1.9477058295651477,1.8998408574738346,3.6947027895710596,1.0547661754854327,Stress
76.92318738629591,780.2475247524752,27.950458293414105,,,,,,,29.157503322472586,29.303704044148937,0.03582255298058276,0.037369555682630944,778.0,23.7216,0.030490488431876604,32.0,0.9586025931058311,758.0,803.0,8.91089108910891,53.46534653465347,717.0,848.0,7.769230769230769,109.375,,,0.03840031876774634,0.07105875633189732,0.006001407254609868,0.11546048235425352,0.5404023480004104,0.33258408404987655,0.6154378960056331,-2.6442481902044253,20.720847843501367,33.54037518688137,0.6177881949157773,2183.359804476938,1.6186777413840507,4.046095420669899,217.16423501069914,0.5643564356435643,0.5800000000000001,0.896551724137931,0.027777777777777776,50.42408821034775,50.4115480038209,50.436583907785604,45.0,0.47236990684106517,0.5276300931589348,14.241602168409013,15.051594767681763,0.6016220780470846,0.3983779219529155,26.015357546703605,21.169741127230143,0.5659170026888709,0.43408299731112926,20.97167209125277,18.367205073778162,0.7669526410131376,1.0246931083175208,0.938282284016994,1.0732833691731758,-0.06515630748778545,-0.5786812782292148,-0.36825217808106003,0.00018698602620465703,0.06044591776169193,0.5321701913518995,3.2188758248682006,5.8261411855507275,1.5063826033757157,1.4606755448912938,1.3876770003082637,1.769228220995876,1.9808004978282143,1.8807227729223501,3.559006048398515,1.1206890614532723,Stress
77.19320493340172,777.4950495049505,27.509497909767905,,,,,,,28.02284782101919,28.152542630562813,0.03538221616624292,0.036042477490836757,776.0,26.686799999999998,0.034390206185567006,35.0,0.9816810227664928,755.0,800.0,5.9405940594059405,51.48514851485149,717.0,848.0,7.769230769230769,109.375,,,0.05830191042194393,0.05549836568954056,0.0066971524264196145,0.12049742853790411,1.050515807043517,0.4838436067007377,0.460577178807453,-2.891401705698626,19.90685380171433,33.161042617426055,0.6003084411843348,2073.8659273572216,1.6658103258170462,4.0237507863682165,220.96002882786985,0.5643564356435643,0.5800000000000001,0.8793103448275862,0.027777777777777776,48.237885462555056,48.22314944505365,48.25275459838302,46.0,0.4425045843520782,0.5574954156479216,13.24764129949177,14.869635523645513,0.5823989310878293,0.41760106891217086,25.306871586487127,21.42934898637375,0.5453178650996809,0.4546821349003191,20.1982393972216,18.443468472413997,0.8030151919180648,1.1391201301434877,0.7868370893777006,1.311347314689672,-0.7811579150380705,-1.6587020304377968,-0.0395479270075738,0.00031997107929848564,0.08260835658149199,0.5626328695653684,2.908720896564361,5.865745145946767,1.498598060490133,1.7489059983601518,1.288269495697077,1.651754822976774,1.9149428975945542,1.8582851742530035,3.1708491053174823,1.0547661754854327,Stress
77.28587851734343,776.343137254902,27.117819612852948,,,,,,,28.354020791582716,28.492517690727784,0.03493019814503644,0.03652253678939014,775.0,26.686799999999998,0.034434580645161285,35.25,0.9564012036311706,754.2,795.8,6.862745098039216,52.94117647058824,717.0,848.0,7.285714285714286,101.5625,,,0.048937871562493865,0.04584815000203338,0.008094766227156444,0.10288078779168369,1.0673903213177294,0.47567551350388987,0.4456434576965738,-3.0824204300133675,20.147252472191283,32.69074868376297,0.6162982887632101,2069.1432965938047,1.622590908059803,4.022760678329301,212.1748463677671,0.5686274509803921,0.5841584158415841,0.8983050847457628,0.027777777777777776,49.12579957356078,49.112389148118616,49.13956124102149,45.54455445544555,0.44815822854961274,0.5518417714503875,13.48888431264795,14.968132816086314,0.5920229837114319,0.4079770162885682,25.15325250649943,20.88058758390746,0.5524154964523953,0.4475845035476048,20.18212218345385,18.16650678927061,0.8363999304543644,1.328490716732298,1.0249193056503088,1.2325600021424825,-0.6260800894721132,-0.9552786319873512,-0.34370180846810156,0.0001857724825409475,0.0892004499753883,0.5876477968725786,3.0122615755052013,5.875521297705375,1.535601362967723,1.6018840917919313,1.2854516136260945,1.6077826003866136,1.8866470825721695,1.855320391818499,4.237218504297714,1.1120708903285825,Stress
77.40464881750195,775.1980198019802,27.181250818157796,,,,,,,29.558247579990258,29.70707326580998,0.035063622614904366,0.038129931739945284,775.0,26.686799999999998,0.034434580645161285,36.0,0.9195826222309068,753.0,795.0,8.91089108910891,54.45544554455446,717.0,848.0,7.214285714285714,78.125,,,0.042110747935483916,0.04093067727172816,0.009770655366502196,0.09281208057371428,1.028830958645555,0.45372054666998046,0.4410059231375567,-3.1958754415409873,21.00607295545983,32.00269164816098,0.656384568723204,2111.938411941752,1.5234971199051723,4.031651359172123,195.02403422074624,0.5841584158415841,0.6,0.9166666666666666,0.027777777777777776,50.14432989690722,50.13797883382597,50.150724854477204,47.0,0.5002002998775309,0.49979970012246905,14.856553157350183,14.85060281740792,0.563290906364346,0.43670909363565386,24.018886897143624,21.14864877360951,0.544293607994703,0.4557063920052968,19.970279160479322,18.273009453698357,1.0401204420898038,0.6837410185617427,1.0630026584918326,1.3580136813914971,-0.1483585351144434,-1.1004039951560873,-0.06853396989371258,0.00013761333768793095,0.03082084203493899,0.5793726339010847,2.96183072187831,5.888167547001129,1.5344476955272612,1.4698657248034208,1.283712708983535,1.7697247866627053,1.8656920633548517,1.8601091695549594,3.482320653564115,1.1206890614532723,Stress
77.33673297768316,775.9411764705883,29.174389803119983,,,,,,,30.531107330909,30.680929026686822,0.037598713263061155,0.03934719313361026,774.5,28.9107,0.03732821174951582,38.75,0.9555627801807403,751.0,798.0,9.803921568627452,56.86274509803921,717.0,861.0,7.846153846153846,109.375,,,0.061840042607105766,0.04622031568559904,0.005989872677432815,0.11405023097013761,1.3379407234635872,0.5422176007981753,0.4052627977377894,-3.074335844094341,21.69469296787343,35.174702599599854,0.6167697624860722,2397.363092561835,1.6213505603277394,4.086703925035922,228.12209507689127,0.5882352941176471,0.6039603960396039,0.9016393442622951,0.05714285714285714,49.22465208747516,49.23573611048981,49.2140232136719,47.524752475247524,0.47122053809468184,0.5287794619053183,14.893622796351464,15.777040280103234,0.579835450336665,0.4201645496633349,26.784455138292255,22.800277759604295,0.549900439048097,0.45009956095190295,21.670568025033287,19.605709192925236,0.982088595171688,0.9935169982038246,1.1002948369526693,1.152955777062264,0.021873033411370812,-0.06327002833414008,-0.44699543117551055,6.661810074852827e-05,0.042016252449604406,0.5011209827205914,2.772588722239781,5.922137841844233,1.496906586289706,1.3100308429120275,1.1188318157628718,1.7152671703848632,1.9198790971952593,1.867888765470717,3.531400698867799,1.0466549556033717,Stress
77.53856689046603,774.0490196078431,28.519014831338524,,,,,,,30.098353627550942,30.247998051749043,0.03684393896111015,0.038884299140123826,773.0,27.428099999999997,0.03548266494178525,35.0,0.9475274024700557,749.2,793.8,9.803921568627452,55.88235294117647,717.0,861.0,7.285714285714286,85.9375,,,0.06170265191123907,0.03985376022099099,0.008653653105807528,0.11021006523803759,1.5482266056978045,0.5598640358117054,0.3616163381712252,-3.2225385188250573,21.388564539709225,34.246228382346594,0.6245524120470651,2301.146454416162,1.6011466463196398,4.06891436979546,219.33293489396283,0.5980392156862745,0.61,0.9180327868852459,0.08823529411764706,50.344268934791415,50.35825193758912,50.33007992411742,47.0,0.49102156354853166,0.5089784364514685,14.987828395067778,15.259423318068084,0.5852824433540302,0.41471755664596993,26.199650444488583,22.054080688218466,0.5588313451698765,0.44116865483012335,21.34310993521552,18.963550234627096,0.9468005824276114,1.1945135156395774,1.0596220884267444,1.2050488493586589,-0.4643342683443965,-0.46839051502133033,-0.3782544031290858,0.000123002711359953,0.05875397826908518,0.5700626636900186,2.2857779746776647,5.750473381017498,1.4874957493918781,0.9971838242560054,1.1634018574270273,1.7090819236063328,1.864095419131718,1.8415154758944254,2.916024451474081,0.9812390208781611,Stress
