PPG_Rate_Mean,HRV_MeanNN,HRV_SDNN,HRV_SDANN1,HRV_SDNNI1,HRV_SDANN2,HRV_SDNNI2,HRV_SDANN5,HRV_SDNNI5,HRV_RMSSD,HRV_SDSD,HRV_CVNN,HRV_CVSD,HRV_MedianNN,HRV_MadNN,HRV_MCVNN,HRV_IQRNN,HRV_SDRMSSD,HRV_Prc20NN,HRV_Prc80NN,HRV_pNN50,HRV_pNN20,HRV_MinNN,HRV_MaxNN,HRV_HTI,HRV_TINN,HRV_ULF,HRV_VLF,HRV_LF,HRV_HF,HRV_VHF,HRV_TP,HRV_LFHF,HRV_LFn,HRV_HFn,HRV_LnHF,HRV_SD1,HRV_SD2,HRV_SD1SD2,HRV_S,HRV_CSI,HRV_CVI,HRV_CSI_Modified,HRV_PIP,HRV_IALS,HRV_PSS,HRV_PAS,HRV_GI,HRV_SI,HRV_AI,HRV_PI,HRV_C1d,HRV_C1a,HRV_SD1d,HRV_SD1a,HRV_C2d,HRV_C2a,HRV_SD2d,HRV_SD2a,HRV_Cd,HRV_Ca,HRV_SDNNd,HRV_SDNNa,HRV_DFA_alpha1,HRV_MFDFA_alpha1_Width,HRV_MFDFA_alpha1_Peak,HRV_MFDFA_alpha1_Mean,HRV_MFDFA_alpha1_Max,HRV_MFDFA_alpha1_Delta,HRV_MFDFA_alpha1_Asymmetry,HRV_MFDFA_alpha1_Fluctuation,HRV_MFDFA_alpha1_Increment,HRV_ApEn,HRV_SampEn,HRV_ShanEn,HRV_FuzzyEn,HRV_MSEn,HRV_CMSEn,HRV_RCMSEn,HRV_CD,HRV_HFD,HRV_KFD,HRV_LZC,Labels
59.81117653021675,1003.1772151898734,100.76028413423651,,,,,,,107.6215472658586,108.31527424467261,0.10044116095197139,0.10728069341715346,1020.0,87.4734,0.08575823529411765,124.5,0.9362463808973808,927.8000000000001,1080.6,53.16455696202531,87.34177215189874,741.0,1246.0,13.166666666666666,289.0625,,,0.005407843307601659,0.023657885275941554,0.006594837945328384,0.0356605665288716,0.22858523678365558,0.151647711575848,0.6634186604070801,-3.7440588041415666,76.59046492448859,115.17982039246728,0.6649642677294675,27714.112494402903,1.5038402039473762,5.149671085441057,692.8481783585206,0.7215189873417721,0.7402597402597403,0.9473684210526315,0.375,49.50671195212681,49.4518786904506,49.53155741085395,49.35064935064935,0.4263266428831549,0.573673357116845,50.010063922239624,58.01209009682893,0.4865212097120907,0.5134787902879092,80.3391598805246,82.53490422440998,0.46806463503836365,0.5319353649616365,66.9155703249064,71.33517019232212,0.5206404747003941,1.6118172860611486,0.7853834385201524,0.8303277246430295,-0.501626409752161,-0.2600792031516779,-0.47211576863485005,0.00018585554864492592,0.12366609438812728,0.48252036098962137,1.4552872326068418,6.126565558303684,1.1859076486130364,0.9356950526610855,1.0322855565813285,1.331488400201519,1.9600196258313334,1.9062891480894915,2.5285973630033496,0.9575363161788004,Relax
59.40948958151868,1013.2051282051282,93.27091652526991,,,,,,,117.35853600836188,118.0535563785177,0.09205531429800143,0.1158289992237407,1021.9999999999999,83.0256,0.08123835616438357,115.75,0.7947518748753333,943.8,1084.8,57.692307692307686,88.46153846153845,800.0,1246.0,11.142857142857142,226.5625,,,0.005598469829856469,0.03362265912472293,0.009971405371052448,0.04919253432563185,0.16650883587431317,0.1138073064664078,0.6834910944444631,-3.392555060592129,83.47647025843825,99.76158095609689,0.8367596970538649,26162.381399640228,1.1950862398378954,5.124647382551781,476.8947706604226,0.7307692307692307,0.75,0.9473684210526315,0.29411764705882354,52.405936141508015,52.5201021468121,52.293177719745835,48.68421052631579,0.4927285876873958,0.5072714123126042,58.63300220326792,59.491983095469074,0.482561115096077,0.517438884903923,69.30099732005385,71.76172242432429,0.4867514181433162,0.5132485818566835,64.18900675708626,65.91297618048112,0.5773605486463627,1.4862377542974197,0.8550491078328568,1.0123340620431416,-0.4735710895926779,-0.7888115064328303,-0.39417241369659783,0.00041565995808730554,0.13030996838041037,0.4068377865874555,1.547562508716013,6.10591503937507,1.262399256009522,0.7807747173686079,1.1568833096908526,1.305270778636728,1.9392812352505753,1.9471476910553795,2.7476558574419503,1.1281491162060446,Relax
59.371383490160234,1012.5324675324675,88.52617579230515,,,,,,,105.02975768800003,105.72321609302581,0.08743045643567622,0.10372976774162769,1020.0,83.0256,0.08139764705882353,109.0,0.8428675619273521,942.4,1078.4,51.94805194805194,85.71428571428571,800.0,1246.0,11.0,203.125,,,0.008875365570686921,0.033377899022904355,0.011899375284373737,0.05415263987796501,0.2659054593159542,0.16389534454253546,0.6163669785650837,-3.3998613039245242,74.75760302822927,99.30902107395211,0.7527775646137905,23323.511762628452,1.328413660299568,5.074764051602256,527.6938407424626,0.7142857142857143,0.7333333333333334,0.9272727272727272,0.29411764705882354,50.62532122665752,50.79241120998413,50.461623762006965,49.333333333333336,0.448709706277024,0.5512902937229759,50.07907081140118,55.50903830308478,0.4655162835036989,0.534483716496301,67.75730741649444,72.6032296687505,0.4594369335819545,0.5405630664180457,59.57753788831268,64.62384347772371,0.6110262925903724,1.7737027908067837,0.9414579586596182,0.9804457163158808,-0.3548620408807466,-0.09933880454435284,-0.47801900191038843,0.0004986756813250094,0.17709987233987162,0.43430442443376993,1.514127732629776,6.084968358876721,1.2575571866475763,0.9583286428542627,1.1912692551963757,1.3269599296189054,1.8756725644145047,1.9183228907543342,2.6610241166860646,1.0580288964809574,Relax
59.29188039113972,1013.3506493506494,89.05937792071886,,,,,,,105.23882613520445,105.90692703021111,0.08788604218864192,0.1038523300918996,1018.0,85.9908,0.08447033398821217,117.0,0.8462597046293616,942.4,1082.2,51.94805194805194,83.11688311688312,800.0,1246.0,11.0,203.125,,,0.012159513960733621,0.024262230773071533,0.009475143533288427,0.04589688826709358,0.5011704848768224,0.2649311188586952,0.5286247431825717,-3.718834426970149,74.88750627769112,100.89534616221393,0.7422295390839053,23737.24850239156,1.3472921075523983,5.082400486354483,543.7420142924719,0.7272727272727273,0.7432432432432432,0.9272727272727272,0.375,51.67820069204152,51.71308798043255,51.63586865069391,48.64864864864865,0.45681322441298483,0.543186775587015,50.62983310262834,55.2092383573619,0.4564052596849973,0.5435947403150028,68.16264821194231,74.38900635126119,0.45655022989114563,0.5434497701088545,60.03968109202864,65.50490159494927,0.6033475509206483,1.31050014419763,0.8793317665403648,0.7697240654196915,0.42283306966980927,0.6755931489368558,-0.5836380687220618,0.00043075693465362985,0.1065916148929114,0.48115573055238725,1.6945957207744073,6.058994332902696,1.312336010756849,0.958482035893163,1.1646873437479968,1.3868145174599023,1.8968580788640523,1.911535813873921,3.1948170019855406,0.8952552200992716,Relax
59.04364880149162,1017.7402597402597,85.83972252453722,,,,,,,103.81473883798967,104.48196688189198,0.08434344785224927,0.102005141139336,1022.9999999999999,72.64739999999983,0.07101407624633416,97.0,0.8268548713347558,954.2,1078.6,58.44155844155844,83.11688311688312,800.0,1246.0,11.0,203.125,,,0.010674578421487535,0.01810698563808757,0.006007234637774469,0.03478879869734958,0.5895281873441065,0.3068395236740609,0.5204832105762558,-4.01145746831302,73.87990729389409,96.33031804908873,0.7669434586133704,22358.32211302654,1.3038770834658326,5.056409318639692,502.41157658872754,0.7662337662337663,0.7837837837837838,0.9310344827586207,0.5384615384615384,51.41135972461274,51.540634848984304,51.27570789952601,45.94594594594595,0.4309331086937944,0.5690668913062055,48.50931182085903,55.744476557473085,0.4769536258381791,0.5230463741618212,66.52747976024817,69.6679597245991,0.4599049544270292,0.5400950455729708,58.219665477326316,63.091486267384084,0.6553399400625163,1.6076441482282646,0.9557570514077338,0.9063278537457268,0.0020998244597967286,0.34542915316120903,-0.5307463549794159,0.00038690406442786125,0.14483850689769773,0.4978466690453276,1.6739764335716716,6.084968358876722,1.2603538799445253,0.8446811314525242,1.087686725139441,1.2891439638771156,1.8200817930136708,1.9072373042080233,2.942994004857324,0.9766420582901144,Relax
58.9406254237781,1019.2727272727273,85.24216839526825,,,,,,,103.74253302235654,104.41609323430843,0.08363038283517221,0.10178093678611505,1022.9999999999999,72.64739999999983,0.07101407624633416,97.0,0.8216703979735924,958.8,1082.2,55.84415584415584,81.81818181818183,800.0,1246.0,11.0,203.125,,,0.007307343705381601,0.015932818338735347,0.003003288221333291,0.02624345026545024,0.45863472174387543,0.2784444740104083,0.6071159918980265,-4.139374250511892,73.83332759098627,95.60843526978589,0.7722470029202437,22176.781897561992,1.2949224745690313,5.05286863529476,495.22204635689684,0.7402597402597403,0.7567567567567568,0.9464285714285714,0.42857142857142855,51.19192622237689,51.268710240375604,51.108461069067786,47.2972972972973,0.4338303883728977,0.5661696116271026,48.63825654770122,55.56371717826901,0.46274504132908717,0.5372549586709129,65.03798797597496,70.07876293695384,0.4519411482119934,0.5480588517880066,57.42656127595951,63.239068942547064,0.6277144755782057,1.3526298227478886,0.8825136460672957,0.8922050985970605,-0.016832679752920576,0.00683200412021967,-0.4928351036131404,0.0002872003801130818,0.10128877023208728,0.445784184689058,1.6529230243738393,6.049190599108365,1.3000514370914906,0.7491644427687334,1.000021717899468,1.3445750374476888,1.9949692120900953,1.9213068278427292,3.317268468433763,0.9766420582901144,Relax
59.49275464522522,1010.7307692307693,90.90021260342932,,,,,,,108.83819755376899,109.55176649436974,0.08993513937703726,0.10768267956916144,1020.5,78.5778,0.07699931406173444,105.0,0.8351866775313159,950.4,1078.6,60.256410256410255,82.05128205128204,737.0,1187.0,11.142857142857142,289.0625,,,0.008131240968225864,0.01509396309495363,0.0026866629236916677,0.025911866986871163,0.5387081521979065,0.3138037476167094,0.5825115999013629,-4.193460410136784,77.46479697913405,103.60597003386219,0.7476866145243922,25213.84280809083,1.33745874350861,5.108609150924401,554.27484200592,0.7564102564102564,0.7733333333333333,0.9482758620689655,0.4666666666666667,49.898389870251684,49.904361682083945,49.887657774222525,49.333333333333336,0.48509247108120285,0.5149075289187971,53.95319609088096,55.58652572436294,0.42684717469448846,0.5731528253055114,67.68945023740963,78.4368239618025,0.4477326710052474,0.5522673289947526,61.2078795657218,67.97866281165017,0.662324154701299,1.050563705077371,0.8682394642980854,0.9961324328260082,0.09482670232488388,-0.49338520579451517,-0.37826252905005525,0.00035046646972698915,0.07615034214547485,0.43338892609964885,1.6529230243738393,6.0962369944755395,1.2787171453025648,1.1212071538454922,1.114881228479222,1.3943601568157464,1.9508151325996361,1.932471010783351,3.7570642619384924,1.1281491162060446,Relax
59.68348153228668,1007.0384615384615,96.40208575472909,,,,,,,118.36905746956747,119.1451695561823,0.09572830575651974,0.11754174442228751,1021.9999999999999,81.54300000000016,0.07978767123287688,115.75,0.8144196449271714,943.2,1081.4,57.692307692307686,80.76923076923077,779.0,1187.0,13.0,250.0,,,0.012726548923922948,0.018489763623699286,0.004104284495956586,0.03532059704357882,0.6883024133207778,0.360315226501433,0.5234838924406197,-3.99053801767243,84.24835733879749,108.30636623889764,0.7778707777247923,28665.881397390207,1.2855605694880547,5.164335409644369,556.9375754450363,0.7564102564102564,0.7763157894736843,0.9491525423728814,0.4,49.91792269810475,49.961572872588114,49.87620208083786,48.68421052631579,0.4644964847316392,0.5355035152683607,57.41864954689786,61.65139687664916,0.4667903349465029,0.5332096650534971,73.99713629949865,79.08661572824853,0.46592560025482554,0.5340743997451746,66.22868523651988,70.90693733404989,0.5437051771725173,1.1233057537095976,0.7969359513701337,0.8332420228399766,0.1766837142019151,-0.20878113991785763,-0.46767926154571365,0.00042906563624607363,0.08544375175817348,0.49110202192775665,1.7346010553881062,6.121878020116563,1.242870357179316,1.3501916055086165,1.281180836907915,1.683455927811424,2.0356444188924185,1.9094382373246401,4.59448305582793,1.1281491162060446,Relax
59.83552028493745,1004.6153846153846,97.53803530760875,,,,,,,121.28366449249162,122.07670179434027,0.09708992794784944,0.12072646542131632,1019.5,85.9908,0.08434605198626777,114.25,0.8042141183295719,936.4,1081.4,57.692307692307686,80.76923076923077,779.0,1187.0,15.6,250.0,,,0.012783732631933028,0.021484343587746414,0.006919972679311812,0.041188048898991254,0.5950255161262746,0.3103748046741325,0.5216159580764359,-3.8404308143398276,86.32126366366597,108.63916520295305,0.7945685471938767,29461.44757272772,1.258544657388757,5.176224191823556,546.9089637974046,0.7307692307692307,0.75,0.9298245614035088,0.46153846153846156,49.5853339153208,49.616927374841694,49.55845210223354,51.31578947368421,0.4795236653190882,0.5204763346809118,59.77655763010498,62.27681202333236,0.457324422484233,0.5426755775157673,73.46806762647438,80.03068945864653,0.46591587418665553,0.5340841258133442,66.97310580700837,71.70534349340986,0.7193811135616459,1.7661660543113176,1.035395280282487,1.4446624002730624,-0.5591659982299895,-1.2442887379861112,-0.26827370280867446,0.002446538847217764,0.2847154480373352,0.4706887591419995,1.9459101490553135,6.182838116298146,1.26578397538164,1.342988609783734,1.2090704767378697,1.5271018427577594,2.106340401967562,1.8825594631708502,4.302042649018639,0.9669849567480383,Relax
60.202207529458626,998.506329113924,96.52724783610778,,,,,,,119.98119510776337,120.75577023047822,0.0966716434554463,0.1201606756105741,1008.0,80.0604,0.079425,107.0,0.8045198062030472,930.4,1076.8,53.16455696202531,78.48101265822784,779.0,1187.0,19.75,210.9375,,,0.011021064233061538,0.020629009324155928,0.0041761480172537386,0.035826221574471205,0.5342507756858791,0.30762563699753503,0.5758075626611878,-3.88105697417874,85.38722399737576,107.54425708873175,0.7939728843626225,28848.94867627434,1.2594888562255748,5.167100101026777,541.8031734172637,0.7088607594936709,0.7272727272727273,0.9285714285714286,0.35714285714285715,49.6014171833481,49.63830400638545,49.56891429418361,50.649350649350644,0.4793364729687365,0.5206635270312635,59.11808565868867,61.61390043872184,0.4620459801127706,0.5379540198872295,73.10209474987774,78.87871053679268,0.46873150171962746,0.5312684982803726,66.47880981473777,70.77472607937051,0.8156340585286694,1.7264929517972492,1.1391203858670242,1.5329046363904393,-0.5505440874982508,-1.2641489363493759,-0.27191667645472134,0.002185517821551549,0.26929529298865457,0.4680207579773432,2.0281482472922856,6.126565558303684,1.247472054973002,1.57403247358535,1.2251652409718528,1.537381605037381,2.055479631163142,1.8591451898757152,4.074541597350243,0.8777416231639004,Relax
60.54822757718312,992.506329113924,96.42292968835352,,,,,,,122.19399246637207,122.97929470608834,0.0971509469107735,0.12311658765487442,1000.0,83.0256,0.08302559999999999,112.0,0.7890971376100117,922.2,1068.6,53.16455696202531,79.74683544303798,779.0,1187.0,19.75,164.0625,,,0.026004639527695224,0.035345988112070674,0.011372384721358372,0.07272301236112427,0.735716863968916,0.3575847408322787,0.48603580853542405,-3.3425703835448473,86.95949323221393,103.73768798637217,0.8382632669010094,28340.234368868394,1.1929426464038178,5.159373547428822,495.01244815310537,0.7088607594936709,0.7272727272727273,0.9285714285714286,0.25,50.65989847715737,50.598521935379814,50.730000143397,50.649350649350644,0.5011346785764271,0.49886532142357287,61.56218480043246,61.422636378946315,0.46534011530187513,0.5346598846981249,70.76553773612864,75.85345461924896,0.4801130508518588,0.5198869491481409,66.32369082193046,69.01625474268624,0.7374485324050374,1.3551867623213485,1.0294140233983744,1.3047848257919556,-0.29322936454064674,-1.0842692050374616,-0.29680232271315227,0.0012283760990547481,0.15910641236790835,0.4542147024006087,2.2246235515243336,6.177198469696089,1.2315410491441967,0.7922712900912962,1.061293046319311,1.1583917833419222,2.0784892313092866,1.8624735788618754,3.5654046595989652,1.0373310091937005,Relax
61.05306589116905,984.506329113924,90.6651875941369,,,,,,,123.41144442629547,124.20893475857312,0.09209203121704401,0.12535363235030528,991.0,81.54299999999999,0.08228355196770938,107.0,0.7346578594522852,918.0,1055.0,53.16455696202531,79.74683544303798,779.0,1168.0,19.75,210.9375,,,0.04006901703368346,0.03832494027798056,0.013349185904053158,0.09174314321571717,1.0455076183564194,0.43675217165242003,0.41774173997795666,-3.26165441252996,87.82898005174452,94.4309507640607,0.9300867918950488,26055.659754580065,1.0751684775164942,5.122872184361363,406.1167262537207,0.7088607594936709,0.7272727272727273,0.9107142857142857,0.26666666666666666,50.321074138937526,50.35585586538783,50.285238176509935,49.35064935064935,0.47776122292650497,0.5222387770734952,60.70826555332894,63.47123287440856,0.4905553256930572,0.5094446743069427,66.13911202328235,67.40046233503274,0.4846210391785035,0.5153789608214964,63.48179127010279,65.46533329012222,0.7449787404052334,1.884744672167784,1.0961391543325205,1.5584529868614747,-0.7393196324384466,-1.4946692167238926,-0.25470744692584113,0.0027710558927520374,0.3294413419815598,0.46539076145884906,2.169053700369523,6.126565558303684,1.2303546746004859,1.224642361813176,1.3474216087219055,1.5258751400767188,2.2907539079400827,1.8671507507699,5.20130167303415,1.0373310091937005,Relax
61.670573884313434,974.5802469135803,91.09690776825671,,,,,,,123.55069809596382,124.29770051948016,0.0934729675229449,0.12677324262136366,986.0,91.9212,0.093226369168357,124.0,0.7373241039682372,895.0,1052.0,53.086419753086425,79.01234567901234,779.0,1168.0,20.25,195.3125,,,0.043242479772979035,0.054016570232353255,0.015541818320088422,0.11280086832542072,0.8005410115261062,0.3833523661203408,0.47886661720120927,-2.9184644233338934,87.89174692321907,93.47912513199422,0.9402285996912608,25811.462242681515,1.0635711361347295,5.118782718377784,397.68679728606253,0.691358024691358,0.7088607594936709,0.8928571428571429,0.25,48.396253193301156,48.40817639629647,48.38568427514618,50.63291139240506,0.45639388723384394,0.5436061127661561,59.39249409168114,64.81922280905272,0.5090039479703459,0.4909960520296542,66.6922262184633,65.50186102293853,0.48431125378616563,0.5156887462138345,63.1479270934726,65.16143584605075,0.7678533046549539,1.4641779188198303,1.0585644534950496,1.3836786652394366,-0.1951898512295216,-0.971567453974501,-0.27795443602479775,0.0018563734692426447,0.20659268261184954,0.4458461051278335,2.4849066497880004,6.216393212761165,1.2826091767237762,1.629573425984789,1.3130890326900604,1.3760002620774163,2.206266172723062,1.8513525119724143,3.754119469431555,1.0957765437084537,Relax
62.27981039925398,964.7560975609756,89.31378461835865,,,,,,,119.85732258722359,120.57747624568105,0.09257654327778296,0.12423587981484432,974.0,97.85159999999999,0.1004636550308008,132.0,0.7451675266095025,882.2,1047.6,47.5609756097561,78.04878048780488,779.0,1142.0,20.5,195.3125,,,0.04556885358016537,0.08423688332423089,0.027302778741257232,0.15710851564565348,0.5409608212209034,0.29004699963522357,0.536170066772325,-2.474122409416451,85.26115111168092,92.69618667826286,0.9197913546067645,24829.2117929651,1.087203086864767,5.101933042992021,403.11832118880034,0.6707317073170732,0.6875,0.8909090909090909,0.17647058823529413,48.481690979458165,48.58455546822168,48.38077651056569,52.5,0.4644534163839303,0.5355465836160698,58.119005067189505,62.40878343630806,0.47517852451542997,0.5248214754845703,63.89844226152284,67.1533476547684,0.4702621074197318,0.5297378925802683,61.07712204029086,64.82448746901972,0.74125950968756,0.9904531627088846,0.9949266537171382,1.070149324227134,0.3232947024033459,-0.3429143580467704,-0.42405226885816366,0.0006465877203787929,0.08429505807475313,0.408158383617939,2.1400661634962708,6.21121054120345,1.2267825925545857,1.288097438574877,0.9110358900681361,1.0843226852081225,2.228252872734198,1.8153368027583905,3.2471031063386584,1.0854357081055264,Relax
63.09442354258866,953.3536585365854,91.89545481730582,,,,,,,127.57854032170647,128.37335715467012,0.09639177863791593,0.13382079061566907,964.5,100.07549999999999,0.10375894245723172,138.75,0.7203049555636791,858.0,1035.6,50.0,76.82926829268293,768.0,1142.0,20.5,218.75,,,0.043015054631645386,0.0705318597863658,0.02547648180786149,0.13902339622587268,0.6098670127504625,0.30940874557371917,0.5073380574861802,-2.651690759381982,90.77367136774983,92.5715497385004,0.9805784998109108,26398.98978542581,1.019806165638788,5.1285574179297475,377.62014874424176,0.6829268292682927,0.6962025316455697,0.8909090909090909,0.17647058823529413,49.92402265506286,49.94930810627258,49.89494512767139,53.16455696202531,0.4955251866117408,0.5044748133882594,63.898845842471985,64.47329873676388,0.4518181911761722,0.5481818088238278,62.224209869291585,68.53932832418195,0.4732431528411342,0.5267568471588661,63.06708647883475,66.53737963404484,0.8180094731048557,1.6332795931613053,1.1354813551138982,1.4756311621348723,-0.3241395505628244,-1.009342012230873,-0.29173816384823936,0.002052760295575142,0.244492908875695,0.43803947162596923,2.251291798606495,6.186820297301011,1.2548091894109283,1.251464528439046,1.2741532241598095,1.2920916681918704,2.178955821348731,1.86127238207284,3.648952513521324,1.2404979521206017,Relax
63.40375222014457,947.8571428571429,86.49244592088338,,,,,,,121.49371544061967,122.225013251124,0.09125050813054765,0.12817724311745857,956.5,85.99079999999991,0.08990151594354408,125.24999999999989,0.7119088062061676,858.0,1016.8,50.0,79.76190476190477,779.0,1142.0,14.0,210.9375,,,0.04494715194660953,0.0518651902850237,0.019408472333931955,0.11622081456556518,0.8666150013063428,0.3867392610748989,0.44626421247257997,-2.959107421252792,86.42613570048539,86.76313678171262,0.9961158494986749,23557.55494495201,1.0038992959536583,5.079100322688922,348.40580771956905,0.6666666666666666,0.6790123456790124,0.8909090909090909,0.15789473684210525,49.230554001119195,49.30484596936772,49.15543594586744,55.55555555555556,0.4816584227108739,0.5183415772891261,59.984703334653084,62.22701358342849,0.4190330639493917,0.5809669360506082,56.16417593132174,66.13189280640404,0.45022574704979057,0.5497742529502095,58.10584863931858,64.20914446428137,0.6566658593062584,1.999744455559005,1.0443164123509625,1.353699596773991,-0.49964553618323926,-0.8401175323606513,-0.34528863997447906,0.0024866068755750384,0.3327952138996921,0.45256000652965733,2.2772672850097555,6.192854476324431,1.3056698665729665,1.1324324176270684,1.0247447159862741,1.4711794953086172,2.2803790673362907,1.8764501390979418,3.7707477010996846,1.2175842710054783,Relax
63.348877123526776,949.3975903614457,84.51929203341771,,,,,,,121.46569323947541,122.20058505200412,0.08902412739560496,0.12793975303142716,962.0,77.09519999999999,0.08014054054054053,111.5,0.6958285074517616,876.0,1014.8,49.39759036144578,78.3132530120482,779.0,1142.0,13.833333333333334,210.9375,,,0.026103657080727108,0.04603606541257905,0.011111953186085094,0.08325167567939126,0.5670262401181326,0.31355113116586797,0.5529746402927378,-3.078330158976323,86.40886235523556,82.67478223488142,1.0451658900019296,22443.016030793733,0.9567859127110949,5.058051329636577,316.40826791516815,0.6746987951807228,0.6875,0.9090909090909091,0.15789473684210525,51.020116992438304,51.08848115490554,50.94680527020653,55.00000000000001,0.5034711746613755,0.4965288253386243,61.318335525395156,60.894109670743944,0.4448690783025545,0.5551309216974455,55.14284508767004,61.59858970156937,0.47546669138589315,0.5245333086141067,58.31239849280646,61.24736257919552,0.6891057786037238,1.884083695315659,1.0343603463707618,1.416443189686106,-0.645492652371745,-1.2118869805287953,-0.29720495205955805,0.002153861627527447,0.29783291771836073,0.42918843330465606,1.8382794848629478,6.1399819011743135,1.2878461090456519,1.1975851883348412,1.0181223906466206,1.3015902207755683,2.3142286821135074,1.8661466525993673,3.5005100274686622,1.2289232638741059,Relax
63.19047786682238,951.0240963855422,82.13685425506277,,,,,,,115.87887915468609,116.57878287528018,0.08636674356331425,0.12184641755671052,962.0,75.6126,0.0785993762993763,108.5,0.7088164370783975,878.4,1014.1999999999999,49.39759036144578,80.72289156626506,779.0,1142.0,11.857142857142858,210.9375,,,0.030486110795788255,0.06545808797533657,0.01576991300559547,0.11171411177672029,0.46573481961885094,0.2728939997904647,0.5859428762783857,-2.726345219389521,82.43364791358478,82.07264694582335,1.0043985539786444,21254.594894239493,0.9956207085710939,5.0344229418303055,326.85290762602347,0.6746987951807228,0.6875,0.9272727272727272,0.16666666666666666,48.9281966721631,48.94663418877283,48.91151643384919,57.49999999999999,0.48814945930801235,0.5118505406919877,57.601011650923944,58.9827867754862,0.42948811265185094,0.5705118873481491,53.78659033691612,61.991306460039446,0.45895083655962005,0.5410491634403798,55.7264472368422,60.505748538568625,0.7111342974148426,1.537634030926589,1.0275789859517963,1.1895826535037606,-0.35572918932825637,-0.7416487767331406,-0.3946409455738049,0.0006831647322890407,0.15860567389903746,0.4722405604258433,1.9042374526547454,6.188174672258653,1.315374556626855,1.4876063728975448,1.118690032116153,1.4064587951372423,2.128154237313734,1.863630840084762,4.089163987019589,1.0753078558898426,Relax
63.11777467898907,952.0975609756098,83.76047710490859,,,,,,,117.63513374565451,118.35836720071696,0.08797467879140414,0.12355365517911249,962.0,76.3539,0.07936995841995842,111.24999999999989,0.7120362296353723,877.2,1014.5999999999999,51.21951219512195,82.92682926829268,779.0,1142.0,13.666666666666666,210.9375,,,0.039710077490967784,0.07001399758834562,0.020736390740449175,0.13046046581976256,0.5671734061586827,0.3043839928168674,0.5366683090421687,-2.6590600913754288,83.6920040577944,83.29906888161001,1.004717161685719,21901.50640443793,0.9953049854569972,5.047444096977041,331.63191416716904,0.6585365853658537,0.675,0.9259259259259259,0.15,50.89679506027637,50.8544878376908,50.937976914079066,55.00000000000001,0.5011829990721576,0.49881700092784237,59.254008303236326,59.113978888246045,0.4465592880229355,0.5534407119770643,55.66467916236513,61.9691727417283,0.4740019129602881,0.525998087039712,57.48736385610775,60.55840515689858,0.6641539781664418,1.2280613992453986,0.9129837669602237,1.1632631210145141,-0.23605811004640564,-1.021904803833626,-0.2961996409885706,0.0007214057856050407,0.11833054099103532,0.4678460574994916,2.1282317058492675,6.226394839957552,1.2844719876810577,1.4565724469305974,1.3033169976766728,1.658446072556431,2.243210272255769,1.8820303336796458,5.248135247465351,1.0079045860979887,Relax
63.385671246884414,947.3614457831326,81.6759776477361,,,,,,,116.63085396909763,117.31809870711224,0.08621416673782727,0.12311125229788636,958.0,74.13,0.07737995824634655,107.0,0.7002947750805021,876.0,1010.4000000000001,51.80722891566265,84.33734939759037,779.0,1142.0,13.833333333333334,210.9375,,,0.03900331471326403,0.05928028559856635,0.010436261503557653,0.10871986181538804,0.657947483205231,0.35875059130863945,0.5452571830824008,-2.82547848021633,82.9564231517118,79.53738002245923,1.04298661998028,20728.65732392585,0.958785070530346,5.0235412820173035,305.03701005853003,0.6506024096385542,0.6666666666666666,0.9259259259259259,0.14285714285714285,48.40316437152065,48.40769805971084,48.39811175640206,56.79012345679012,0.48066657940553653,0.5193334205944634,57.5287367804609,59.79791069474576,0.4184500709443894,0.5815499290556105,51.450915167636346,60.65474548005115,0.450874917062908,0.5491250829370921,54.574500580137546,60.22785183246442,0.7211566748154291,1.8194056386885609,0.9840173826244918,1.51842297985987,-0.9928696230272127,-1.7798435160749353,-0.20627462844372565,0.0023574268952106293,0.28816943175701715,0.5672505806775341,2.341805806147327,6.17317331686303,1.3218011775096363,0.9832230115752637,1.4828766490126253,1.676618870156992,2.1771271086855912,1.9033052480867916,3.7569972944268932,1.0753078558898426,Relax
63.57941133891079,945.8795180722891,83.65848076939338,,,,,,,124.61898027147565,125.38111788251625,0.08844517633692937,0.1317493167897855,952.0,84.5082,0.08876911764705883,117.0,0.6713141175376972,874.8,1012.5999999999999,55.42168674698795,85.54216867469879,779.0,1142.0,16.6,210.9375,,,0.031537769434249234,0.05142857574777776,0.007535203354611207,0.09050154853663821,0.6132343541637353,0.3484776773900353,0.5682618317515049,-2.9675613126027307,88.65783868747712,78.95564039163838,1.1228816364190521,21991.263021175975,0.8905658152795781,5.049220282813955,281.26077702520246,0.6506024096385542,0.6666666666666666,0.9259259259259259,0.14285714285714285,50.5929380413058,50.59456160090179,50.586224678152306,54.32098765432099,0.49881856467190333,0.5011814353280966,62.61882531595923,62.766960719989385,0.42831140151417796,0.571688598485822,51.67291691938793,59.69843219629598,0.46763393514502183,0.5323660648549782,57.40734982085736,61.25191492810833,0.6492204002115926,1.404945660810366,0.8911837891771228,1.234288601571615,-0.6695517552510548,-1.445190643888293,-0.25578784150513617,0.0007142909779996364,0.14217448858773146,0.5106214291902571,1.8827312474337814,6.1972697024052,1.3195196283140498,1.0745132398169364,1.268420765336447,1.5735427938872495,2.146848994831866,1.9613560302698363,5.367942921339421,1.1521155598819743,Relax
63.82266704180017,940.0833333333334,84.24965887218963,,,,,,,118.7278958501836,119.3810231174786,0.08961935169455505,0.12629507580907748,951.0,83.76689999999999,0.08808296529968454,118.5,0.7096028971868564,857.2,1007.4,55.952380952380956,85.71428571428571,744.0,1127.0,14.0,242.1875,,,0.025747919745922467,0.05516178504020696,0.010958833200263855,0.09186853798639327,0.4667709670228225,0.2802691793107235,0.60044261342634,-2.8974848654456395,84.4151309913571,80.83269163905078,1.044319189175381,21436.66455007492,0.9575616443375168,5.038127321943969,309.60914048846763,0.6428571428571429,0.6585365853658536,0.9259259259259259,0.17391304347826086,47.72169167803547,47.67290426490597,47.75692080542201,54.87804878048781,0.4565937944980915,0.5434062055019087,57.073551176551454,62.263307912406326,0.4338493390895583,0.5661506609104414,53.242263526076314,60.8209290642104,0.44572093991204087,0.5542790600879594,55.19116264984184,61.54634401988811,0.6550680060702279,1.7120560334838968,0.7233886867480037,1.4553574786333394,-0.8511450012343822,-1.7396679128767087,-0.07246212882656768,0.002946682978835102,0.2882789992229113,0.5010207732432872,1.9252908618525775,6.169044952514907,1.3609840768010357,1.1487386333879577,1.3019523642741884,1.711170498797148,2.189376086189946,1.9665914046808695,3.3218101340157022,1.2175842710054783,Relax
63.63002498426761,945.1666666666666,76.38012630769286,,,,,,,106.3051982770499,106.94862287180572,0.08081127805433913,0.1124724369004231,955.0,77.83649999999992,0.0815041884816753,108.25,0.7184985075577671,876.0,1007.4,55.952380952380956,86.90476190476191,781.0,1127.0,16.8,171.875,,,0.026527152863503566,0.06312064839378384,0.01290002715042042,0.10254782840770783,0.4202610958305044,0.2586807860819576,0.6155239888925769,-2.7627073300989293,75.62409647121652,76.99107782877543,0.9822449380355602,18291.548424557684,1.0180760025090574,4.9692205810903145,313.5310749791336,0.6428571428571429,0.6585365853658536,0.9259259259259259,0.17391304347826086,50.47197640117993,50.44129494650924,50.50346445123165,53.65853658536586,0.501653578061465,0.498346421938535,53.56407150411142,53.38721871338887,0.4435192822395907,0.5564807177604094,51.273935462751496,57.433523376144606,0.4720665247101628,0.527933475289837,52.431508722980524,55.44729357393996,0.6360732134108239,1.3146460052655025,0.8377202943578166,1.1798085244377963,-0.6243427136865449,-1.4048929912371189,-0.23978681051033768,0.0006080861848958764,0.12176792510223129,0.5139037098682926,1.791759469228055,6.12142590489586,1.4340865193343624,1.1783123547430954,0.8092363370440343,0.8958797346140275,2.0152394513160505,1.9635739519943183,4.75232544564101,1.2175842710054783,Relax
63.75022646350906,942.2857142857143,72.21847232714619,,,,,,,100.1035006549396,100.711144596319,0.07664179901304173,0.10623476418808021,951.5,74.87129999999999,0.07868765107724644,100.25,0.7214380301852369,879.6,1004.1999999999999,52.38095238095239,84.52380952380952,781.0,1124.0,14.0,171.875,,,0.023191648834486312,0.04714890683172818,0.0061986650657297505,0.07653922073194423,0.49188094471110466,0.30300346165932546,0.6160097578841721,-3.0544444550764673,71.21353328511609,73.28760384180497,0.9716995719881104,16396.189506226372,1.0291246685989441,4.9217130391862005,301.68832406443295,0.6190476190476191,0.6341463414634146,0.9038461538461539,0.12,49.725317846491926,49.77205762930482,49.67582953316831,52.4390243902439,0.46783589168938067,0.5321641083106194,48.7094421657399,51.95043369381635,0.503798829676327,0.4962011703236728,52.018652707226614,51.62492273503458,0.4863332823798417,0.513666717620158,50.39121940166072,51.78793396329834,0.621506433026924,0.7320830993022065,0.8207839727579218,0.8359652323467183,0.6403757046875773,-0.055741039250574165,-0.4792629284800228,0.000374907496401466,0.04808631407094588,0.39982361614458917,1.6650077635889111,6.145235428705385,1.4279793108933108,1.1825866099282776,1.4108972736135232,1.6198158078678555,2.126593559675275,1.9274107121440422,3.8074183507383665,1.2936832879433207,Relax
63.95240638664543,939.702380952381,73.09142315512183,,,,,,,103.19276616096599,103.82003830007977,0.07778145999911616,0.10981430743676623,947.0,78.5778,0.08297550158394931,97.5,0.7082998728913773,876.0,1003.4,59.523809523809526,88.09523809523809,781.0,1124.0,14.0,171.875,,,0.026777957871825093,0.045317770748170776,0.02082293482151494,0.09291866344151081,0.5908930962343502,0.28818707544885125,0.48771440601593236,-3.0940560331722544,73.41185310503349,73.65446466142214,0.9967060848584821,16986.939378729072,1.0033048008751604,4.93708524688456,295.5915120027787,0.6309523809523809,0.646341463414634,0.9245283018867925,0.11538461538461539,49.94107248084856,49.969580081480444,49.910230466625585,50.0,0.4615623083659371,0.5384376916340631,49.87484335815,53.86840333673145,0.5461204528468683,0.45387954715313167,54.43062211802431,49.62144234507421,0.503980855200395,0.4960191447996049,52.20245503879658,51.78847564108401,0.6662605747888058,0.7366752400727513,0.8312843308090723,0.9139854031320771,0.4025869724189892,-0.3555138202849264,-0.38773740744315277,0.00024400961899950142,0.04129843422684979,0.31908243835589056,1.3862943611198906,6.169044952514907,1.521485957334705,1.3117680429499947,1.3579778549873243,1.5958305809273485,2.3693668366992293,1.9592992960547657,5.449540959156356,1.2936832879433207,Relax
64.0104727344939,938.2142857142857,80.37878270490418,,,,,,,118.18374503442276,118.88902289493892,0.08567209424199913,0.12596668675157355,948.5,85.99079999999991,0.09065977859778589,118.5,0.6801170726269732,863.6,1006.4,65.47619047619048,89.28571428571429,781.0,1124.0,14.0,210.9375,,,0.027423922373257636,0.05117738109813792,0.007249611196857865,0.08585091466825343,0.5358602137274165,0.31943657769086825,0.5961192294327723,-2.9724576199751818,84.06723429765401,76.40881066565937,1.1002295882539705,20179.949374636086,0.9089012063263707,5.011890182351099,277.7922407519243,0.6547619047619048,0.6707317073170731,0.9454545454545454,0.12,49.06792645556691,49.06708144163988,49.06655108563126,51.21951219512195,0.45098913649169237,0.5490108635083076,56.46221486372167,62.2967426623693,0.5527650447216306,0.4472349552783696,56.80855278200893,51.098871593747404,0.4970254736360287,0.5029745263639717,56.63564856388318,56.97358521497374,0.5814866076937545,0.987770828904567,0.7484164209032758,0.9019234176752831,-0.10089461196365246,-0.6970737249427881,-0.34459249830019195,0.00018964785678713788,0.05725234722382159,0.4033201848141035,1.5841201044498103,6.169044952514907,1.506174118193145,1.095657932590243,1.194745560049312,1.4693986322163393,2.302820848774554,2.000986564056271,6.361573215222596,1.2175842710054783,Relax
64.07195516983687,937.8333333333334,75.4817193752193,,,,,,,107.24501841998823,107.88842856361083,0.08048521703417733,0.11435402710501677,947.0,83.76689999999999,0.08845501583949313,104.75,0.7038249467180014,875.2,1004.8,63.095238095238095,88.09523809523809,781.0,1123.0,14.0,171.875,,,0.03297958504376049,0.07138950700942391,0.027282417871599324,0.13165150992478372,0.4619668411410511,0.2505066980439698,0.5422612095388103,-2.639604381088699,76.28863944888963,74.47966232409921,1.0242882025554658,17850.378992116883,0.976287725959481,4.9586175512748625,290.85432064249943,0.6428571428571429,0.6585365853658536,0.9259259259259259,0.12,49.224591525893096,49.28481225695713,49.16328165591176,50.0,0.471030479015822,0.528969520984178,52.362304911164436,55.48934197817389,0.5295224421643262,0.47047755783567363,54.197578677726526,51.08661826137531,0.49957243822629976,0.5004275617737001,53.28784340793926,53.33343059730087,0.5474292579963401,0.764302256031392,0.6949293952131024,0.8432788636952291,0.2221596576064,-0.6061450332804652,-0.30590209264535584,0.0002487107092409917,0.043783650884331754,0.3829481069542737,1.3862943611198906,6.192854476324433,1.5872755131048841,1.14075649493124,1.2877756108079403,1.6451607268050943,2.234570940414272,1.9983961742674576,3.864564646095729,1.2175842710054783,Relax
64.23405520449545,936.0833333333334,77.94981523248862,,,,,,,106.37232858763892,106.9584054647376,0.08327230328406154,0.11363553307679755,947.0,85.9908,0.09080337909186906,109.75,0.732801624891258,863.6,1006.4,65.47619047619048,88.09523809523809,781.0,1188.0,14.0,171.875,,,0.03628172963486151,0.08497019449506141,0.029941701061159023,0.15119362519108193,0.4269936046453354,0.23996864675351118,0.5619958803664781,-2.4654547369842366,75.63101380901624,75.97473171356373,0.9954758918288339,18051.735848528126,1.0045446687441668,4.963489079815108,305.2800468085153,0.6309523809523809,0.646341463414634,0.9433962264150944,0.07692307692307693,52.038994919675964,51.8415335684134,52.263970027579845,48.78048780487805,0.5014848517437557,0.49851514825624405,53.588882174224594,53.42997468764093,0.5736858358686212,0.4263141641313787,57.54482038765851,49.605982557551535,0.5377285986205276,0.4622714013794725,55.60204423459089,51.55344654153618,0.6217445217051438,0.83659713010073,0.7661353699356421,0.9372962075244631,0.02522595390624094,-0.7657771475979316,-0.29540828980824685,0.0001945975760484471,0.04621758236933133,0.4297927700832145,1.6094379124341003,6.169044952514907,1.566749424365068,1.4749278407392268,1.2703462688082765,1.7735565592958595,2.1228476193764307,2.011287606507381,3.624155378260236,1.141485254067636,Relax
63.59981775630824,945.2380952380952,78.46211871620982,,,,,,,106.76299616158019,107.41016789350786,0.0830077830247056,0.11294825790393875,953.0,82.28429999999992,0.08634239244491072,116.24999999999989,0.7349186659904291,876.0,1016.8,63.095238095238095,86.90476190476191,781.0,1133.0,14.0,171.875,,,0.03805297588769124,0.08843121146506291,0.034767620386535185,0.16125180773928935,0.43031159765039606,0.2359848017903464,0.5484044656915587,-2.42553030078164,75.95045808588499,81.5442627902496,0.9314016153563967,19456.901535314697,1.0736507039633536,4.9960437910506,350.20022059569675,0.6309523809523809,0.6419753086419753,0.9423076923076923,0.07692307692307693,50.3601108033241,50.35808375446514,50.35936647138208,48.148148148148145,0.47022288179844446,0.5297771182015554,52.08225202129566,55.28209254449003,0.5861976804128947,0.41380231958710517,62.43318036611996,52.455359910850106,0.5323232225887987,0.46767677741120145,57.49114273624339,53.88726444845006,0.5898231357550108,0.6735306878035872,0.6220045045573235,0.8787329630239572,0.4120482361943987,-0.492240730539907,-0.11883183184446074,0.0003793445274620172,0.0424490024988725,0.3713345741323755,1.4759065198095778,6.145235428705385,1.5778692360629512,1.3030615149880647,1.3069153941440734,1.7761339701962016,2.043890185526072,1.992127848529728,6.076620222335546,1.0653862371297935,Relax
63.51053586191493,946.566265060241,81.47589689536713,,,,,,,112.87447161100428,113.55397580029596,0.08607521723815276,0.11924624379448043,958.0,85.9908,0.08976075156576199,113.5,0.7218274932542315,875.6,1018.5999999999999,68.67469879518072,89.1566265060241,776.0,1133.0,13.833333333333334,242.1875,,,0.037397161964595554,0.08577719351964394,0.02051864515344705,0.14369300063768653,0.43598024638135524,0.2602573667376486,0.5969476114979748,-2.456002117616265,80.29478631908238,82.2614977059002,0.9760919574568266,20750.75160175561,1.0244936374698395,5.024003941640433,337.10552403373816,0.6626506024096386,0.6790123456790124,0.9636363636363636,0.08,50.99276791584485,50.926245564690255,51.0615415671572,45.67901234567901,0.48256731624252314,0.5174326837574768,55.785855988727654,57.765971015879295,0.6404735471066232,0.3595264528933766,65.83354034664278,49.3244256960462,0.5634201019285453,0.4365798980714549,61.0168696467137,53.71129479751996,0.6972704137867911,0.5007845487141882,1.0086612518366218,0.9476626881438852,0.29286309348362316,-0.7180110502877701,-0.6218060019011293,0.0004094204495316155,0.0317830060962582,0.44927579575705634,1.5260563034950492,6.124980545778691,1.5667265145904017,1.2989654340948118,1.0425962131807132,1.7565345461518092,1.853235515025714,2.003948482415039,5.590310834112658,0.998500151897711,Relax
63.3139193141758,948.5421686746988,82.45002939028588,,,,,,,120.04038954431637,120.76001731780102,0.08692289295423196,0.12655250710892121,958.0,85.9908,0.08976075156576199,115.5,0.6868523977910541,875.6,1018.5999999999999,67.46987951807229,87.95180722891565,776.0,1133.0,13.833333333333334,242.1875,,,0.0508834855814827,0.08235805551412542,0.01921028931689964,0.15245183041250776,0.6178325272960767,0.3337676264286297,0.5402234613469649,-2.4966790066917715,85.390227141622,78.62378305748457,1.0860610342190002,21091.719061894793,0.9207585655801676,5.03108208793122,289.57408683398313,0.6506024096385542,0.6666666666666666,0.9629629629629629,0.07692307692307693,48.9030964021562,48.87161129118583,48.934253882257714,45.67901234567901,0.4440176202505936,0.5559823797494065,56.90847102210771,63.68062674175106,0.6812260729035908,0.31877392709640917,64.89325629298848,44.39104132550746,0.5528337532377876,0.44716624676221245,61.03158520955179,54.88982953236935,0.7257474209979763,0.5042452914640502,1.0160138902048188,0.9778700667300013,0.2728459331296742,-0.7470336643480633,-0.5756453736316879,0.00046050198006853597,0.03361536901714934,0.45299665349517504,1.6094379124341003,6.124980545778691,1.5867862489563644,1.2453034759072215,1.080972794855678,1.703790020213227,2.0732611545300044,1.995884419760429,6.245303531133403,1.2289232638741059,Relax
63.32006731479184,949.9036144578313,83.8927326800866,,,,,,,124.40977728027177,125.1728422607181,0.08831710018070556,0.13097094840646556,958.0,90.43859999999982,0.09440354906054262,123.0,0.6743258810848289,874.8,1021.2,69.87951807228916,87.95180722891565,776.0,1133.0,13.833333333333334,210.9375,,,0.06772100190424851,0.0794991217149685,0.024891593131077444,0.17211171675029444,0.8518459128020488,0.3934711894280879,0.46190418186525056,-2.5320093049933354,88.51056558294782,79.62119222751821,1.111645820751191,22139.798549571777,0.8995670935228753,5.052143774869112,286.4984178997388,0.6385542168674698,0.6543209876543209,0.9433962264150944,0.12,50.39085989176188,50.378301717241335,50.40373637504516,46.913580246913575,0.4790372358824091,0.520962764117591,61.26163280815315,63.88623182880603,0.6481212016866622,0.3518787983133382,64.09981713987888,47.23079180328753,0.55466272414054,0.4453372758594599,62.69678704561701,56.179170124030136,0.7555262178737205,0.8222849917124817,0.9967445951366618,1.1666687137299614,-0.5278743908954908,-1.5337772320795564,-0.29335130726462916,0.00043590337511497024,0.055089452104153225,0.4593916381103078,1.6582280766035322,6.182268347009579,1.6546044958463693,1.6136640888806906,0.8695681803939461,1.5921611198679873,1.8430135210026912,1.9943688669201476,7.264028131667348,1.2289232638741059,Relax
63.745743235080305,942.4166666666666,87.60703722811056,,,,,,,126.72111490929764,127.47480895230161,0.0929599829107195,0.13446400025745617,951.5,99.33419999999991,0.10439747766684174,132.25,0.6913373299376073,860.6,1020.8,72.61904761904762,89.28571428571429,774.0,1133.0,12.0,242.1875,,,0.06360470799162302,0.08382700819457362,0.029706458250993606,0.17713817443719024,0.7587615180538001,0.35906832727451427,0.47322949138948617,-2.4790000299281587,90.1383018406321,84.03668492838453,1.0726065874379425,23797.325815344284,0.9323082775285089,5.083498266644715,313.39238789915277,0.6547619047619048,0.6707317073170731,0.9454545454545454,0.16,49.02455818223548,48.955007613221916,49.09074471226392,47.5609756097561,0.46432038798530056,0.5356796120146994,61.42921764508973,65.98096547397625,0.6134257404431958,0.3865742595568045,65.81879241248471,52.249889752178554,0.5336463857181171,0.46635361428188277,63.66184970264985,59.51276663033261,0.6843667625894023,1.0646642818806045,1.0667365779671636,1.2166989035297044,-1.1120865625537641,-2.136194261946236,-0.35914590344136454,0.0008443998575081881,0.09967828794396262,0.4799251410178935,1.8382794848629478,6.249460279921616,1.6255940481375446,1.4348553270091275,1.0191576006465004,1.5494109403672394,1.8622455629166361,1.9715663225169475,7.516295226021852,1.2175842710054783,Relax
63.61226822619336,946.1904761904761,89.96056380845089,,,,,,,129.99388308129815,130.77548937703995,0.09507658983278655,0.1373865900708234,954.5,98.5929,0.10329271870089052,133.0,0.6920368995531087,863.6,1022.4,75.0,89.28571428571429,725.0,1133.0,12.0,296.875,,,0.039933392794441885,0.07645390603403486,0.02084412876387731,0.13723142759235404,0.5223198508218115,0.2909930581868173,0.55711659767281,-2.571067255249925,92.47223535149425,87.23478508298668,1.0600385530098477,25342.58572281111,0.9433619156214877,5.110821034157918,329.1758958588604,0.6309523809523809,0.646341463414634,0.9245283018867925,0.11538461538461539,50.68766637089619,50.64313604096434,50.735706061664565,46.34146341463415,0.4809634898272312,0.5190365101727688,64.13514694121103,66.62527170127181,0.6295753586852219,0.37042464131477804,69.21712495991156,53.09328903692879,0.5509370079077304,0.4490629920922699,66.72453619504127,60.240452231150925,0.7146409870097884,0.7286574733965056,0.9441518053654843,1.0789697237080411,-0.4912664523724155,-1.5000916983844292,-0.3149776496299043,0.0002926587905488609,0.04135022333039102,0.4429394318764306,2.251291798606495,6.297079327540666,1.6232704902169919,1.5134533620943242,0.7217888900477218,1.1427436640990978,1.9332336346464298,1.9757659599590192,5.856630028618483,1.2175842710054783,Relax
63.69051630125629,945.5783132530121,94.53314304362017,,,,,,,144.71940891626514,145.5992776552094,0.09997389081228386,0.15304857026426114,951.0,109.71239999999999,0.11536529968454258,150.0,0.6532167575277839,859.0,1035.6000000000001,78.3132530120482,89.1566265060241,725.0,1133.0,13.833333333333334,296.875,,,0.040810025209096976,0.07678862903669047,0.015787820364237093,0.13338647461002454,0.5314592241202468,0.30595324847149036,0.5756852728973728,-2.566698709208481,102.95423656586152,85.3354716872998,1.2064647271550015,27600.928280565084,0.8288679954681544,5.147893798561343,282.9273654391265,0.6746987951807228,0.691358024691358,0.9464285714285714,0.17391304347826086,50.71727435744173,50.65765668049431,50.77603923655166,44.44444444444444,0.4929701219995062,0.5070298780004938,72.29137714746166,73.31502296659663,0.652537735608494,0.3474622643915059,68.9338300558462,50.3017872637311,0.5579466941138483,0.4420533058861518,70.63255671446711,62.870352291514365,0.6566081838792134,0.8706343537027027,0.8463181173598406,1.0919253607305648,-0.9207622736208005,-1.9236353744209405,-0.21789851580495742,0.00028885548369650133,0.052193235405348315,0.4980291810961135,2.9704144655697013,6.302750274720421,1.5378394459420899,1.6528495968406998,0.8416426678749228,1.1402692460795987,2.0608581952141525,2.0023131286637694,8.466933543202304,1.1521155598819743,Relax
63.4852046353581,948.9518072289156,99.31360818681566,,,,,,,149.78993420869074,150.70248832701944,0.10465611365115218,0.1578477780089805,951.0,109.71239999999999,0.11536529968454258,150.0,0.6630192389860435,859.0,1035.6000000000001,77.10843373493977,89.1566265060241,725.0,1227.0,13.833333333333334,296.875,,,0.05239710810628343,0.07282909498582046,0.01806527913821597,0.14329148223031984,0.7194529619856589,0.3656679887089369,0.5082583685522806,-2.6196397472222106,106.56275143772196,89.68234449870667,1.1882244162256344,30023.5644570894,0.8415918629045475,5.184432361231768,301.9037255052558,0.6626506024096386,0.6790123456790124,0.9454545454545454,0.16666666666666666,50.66929133858268,50.590540609758115,50.75346320816026,44.44444444444444,0.4826517146093456,0.5173482853906543,74.03702777314524,76.65201148174475,0.6661324756389485,0.3338675243610515,73.19598453876252,51.81959824415798,0.5587200930597928,0.44127990694020713,73.61770722482547,65.42477216767159,0.6212241977311398,1.0204042852783912,0.7955071762869284,1.1314263403703353,-0.9707063374532554,-1.9759429729219562,-0.17079796808991243,0.0006471035979324333,0.08337545989452494,0.4961753698027671,2.3749057545736716,6.254557503636087,1.5393570209434897,1.284619241384313,0.8314464841987159,1.3858553778478027,1.916190476300815,2.0003615187746235,5.161127478748568,1.2289232638741059,Relax
63.28016161768702,951.3855421686746,100.21048960785676,,,,,,,151.3905464716196,152.3183622181997,0.10533110412780487,0.15912638963014533,951.0,112.6776,0.11848328075709778,149.5,0.6619336011620958,863.4,1038.6,77.10843373493977,89.1566265060241,725.0,1226.0,16.6,179.6875,,,0.045949334597789104,0.07228159674475103,0.00974840424223108,0.1279793355847712,0.6356989422916404,0.3590371397681862,0.5647911548726006,-2.627185722401519,107.70534682371782,91.95067770485662,1.171338259946605,31113.013018889393,0.8537243546075108,5.199912180669188,314.0021319172078,0.6626506024096386,0.6790123456790124,0.9454545454545454,0.16666666666666666,50.4268529297633,50.41545988244006,50.432903011896926,44.44444444444444,0.46659458562089556,0.5334054143791043,73.5729251059245,78.66415564102908,0.6637503793514278,0.33624962064857217,74.91302350179177,53.319471492151976,0.5497089590567856,0.4502910409432143,74.24599786797259,67.19752756954104,0.6392422490215389,0.9329290254490924,0.6787862509057612,1.0806786848866259,-0.7484388391072878,-1.6983826853883692,-0.06921435284168365,0.00020588104656430706,0.053901364563650835,0.45765050631219184,1.992430164690206,6.254557503636087,1.5914639991393362,1.1924835807243763,0.956923830603269,1.4459267062817873,1.903496258313999,2.0067907484017864,5.552368339034633,1.1521155598819743,Relax
63.05638962772568,954.2682926829268,97.83483799467417,,,,,,,151.9317585604118,152.87531230094382,0.10252340850560106,0.15921283325180532,959.5,114.9015,0.11975143303804064,154.5,0.6439393509407227,862.4,1038.8,76.82926829268293,87.8048780487805,725.0,1226.0,16.4,328.125,,,0.0358414421224033,0.08273145046705241,0.02572136185306943,0.14429425444252514,0.43322632348476786,0.24839133242605688,0.5733523540953306,-2.4921554533935186,108.0991700040086,87.31855791042105,1.2379862035159366,29653.69297582357,0.8077634445036261,5.179048896672168,282.13095642724426,0.6585365853658537,0.675,0.9259259259259259,0.23809523809523808,50.38340542666142,50.38545080845841,50.37392646342844,42.5,0.4724352638649997,0.5275647361350001,74.30229639789069,78.51795176900629,0.6715468463638934,0.3284531536361067,71.55577858977202,50.042992576054814,0.551052482697082,0.44894751730291815,72.9419656288082,65.83832415837706,0.5864515356997241,1.1356645371433007,0.7150989197196485,1.0776607093721164,-0.9360112729597789,-1.7819100983418599,-0.18074921969081506,0.0002183027668096004,0.07453702631348147,0.5545655616804988,3.091042453358316,6.138039809496133,1.6001646207129705,1.4555468364238033,1.272639911141801,1.5209528543943718,1.7631047689067032,2.0146519254983084,5.632586709765954,1.2404979521206017,Relax
62.771805267941986,958.9146341463414,101.4080135654801,,,,,,,155.34247310577132,156.29739281254822,0.1057529105870378,0.16199822963809754,971.5,113.4189,0.11674616572310859,156.5,0.6528028782986626,862.4,1045.4,75.60975609756098,89.02439024390245,725.0,1226.0,16.4,296.875,,,0.035203445804270574,0.06154875356384757,0.015442894956165944,0.1121950943242841,0.5719603365769592,0.313769920300793,0.5485868516314054,-2.7879256773471783,110.51894633953039,90.17463595233308,1.2256101194348203,31309.130456124953,0.8159201561269268,5.202641116149428,294.3012121796655,0.6585365853658537,0.675,0.9259259259259259,0.19047619047619047,50.78034682080924,50.70245305650914,50.8596223300511,42.5,0.4832193648529598,0.5167806351470403,76.83248824553321,79.45584465601004,0.6693359510696419,0.3306640489303578,73.77453380880146,51.85347751530086,0.5575955146250511,0.4424044853749489,75.3190317539531,67.08954605760056,0.5845495566708815,2.0781344607987835,0.658318263055166,1.6161107001044317,-2.027044615247947,-3.012032441316264,-0.03910949694702905,0.004816043919094132,0.424722495261031,0.5228769956256891,2.70805020110221,6.186820297301011,1.5205274300444565,1.2188700645150503,1.102162222983322,1.6701804085021115,1.8520950947732546,2.0055258124115225,6.080076899426787,1.0854357081055264,Relax
62.983073566660124,956.1686746987951,99.14756423918654,,,,,,,155.1535431474883,156.10591230529892,0.10369254595212422,0.16226587133945125,972.0,109.71239999999999,0.11287283950617283,153.0,0.6390286823481516,856.4,1041.4,72.28915662650603,86.74698795180723,725.0,1226.0,20.75,164.0625,,,0.056098405010900444,0.08848555465470648,0.03570068996678272,0.18028464963238963,0.6339837641275,0.31116573222006527,0.49081025386872046,-2.424915964531384,110.38354917438937,86.7749223997503,1.2720673913815799,30091.820359880567,0.7861218727680064,5.185418570494775,272.8626580247605,0.6626506024096386,0.6790123456790124,0.9272727272727272,0.18181818181818182,49.6578313253012,49.719455834670875,49.58917458325257,43.20987654320987,0.4621777092182952,0.5378222907817046,75.04393774711313,80.95254668517114,0.6633295571471923,0.33667044285280745,70.6738757501053,50.34968166673314,0.5390058349914716,0.46099416500852836,72.89166381052743,67.41070114883904,0.5626773161512464,1.203181788342072,0.5339421734130387,1.0935726005265234,-0.7050840024503353,-1.5722835347952118,-0.03487458625464308,0.0004889916759529827,0.10033214235985292,0.5074206316375762,2.6625878270254524,6.230461118093917,1.536528029433734,1.3442769048283156,1.248443139052107,1.7921151079928226,1.8937172900837917,1.9961472552764004,4.3804206157857575,1.2289232638741059,Relax
63.52769218505477,948.6867469879518,104.34463625361208,,,,,,,155.53820799514654,156.49412407569753,0.10998850419793758,0.16395107077122673,971.0,114.16019999999999,0.11756972193614829,166.5,0.6708617618692642,849.4,1038.6,72.28915662650603,86.74698795180723,686.0,1226.0,20.75,203.125,,,0.05403663330456138,0.07097558802871134,0.023510428530199967,0.1485226498634727,0.7613411146759679,0.3638275599999985,0.4778771998341979,-2.645419291645639,110.65805634977465,98.54242349946468,1.1229483954225643,34257.53809654188,0.890512871362803,5.241726259323787,351.0131860062305,0.6746987951807228,0.691358024691358,0.9464285714285714,0.18181818181818182,50.24851379007895,50.2216157964417,50.26045617145242,43.20987654320987,0.48556600991553894,0.514433990084461,77.1099903857078,79.36907847067364,0.6017368200607789,0.3982631799392213,76.44103033319394,62.188247368353856,0.5369455327581891,0.46305446724181093,76.77623895348165,71.2980670426328,0.57937040228955,1.2543524409521578,0.7761043079491324,1.0388532502376753,-0.4237516498678513,-1.0262103186290163,-0.2905302100826666,0.0005074286955395301,0.10439719392349281,0.4834842045716834,2.614959778036198,6.18226834700958,1.564149913065697,1.0527939044139272,1.4140307763004984,1.8822438990129204,1.8771421104518995,1.962189225529765,5.221621505985023,1.0753078558898426,Relax
64.14949979122886,938.5952380952381,106.13450423448188,,,,,,,149.3370893819089,150.24492003941143,0.11307803398818496,0.15910701793562249,946.5,126.02099999999999,0.1331442155309033,167.0,0.7107042508579875,837.8,1034.8,67.85714285714286,85.71428571428571,687.0,1226.0,16.8,218.75,,,0.030475585655803432,0.09347298302357021,0.026078824301958195,0.15002739298133183,0.3260363012927349,0.20313347482879718,0.623039440772001,-2.3700828360616284,106.23920179869842,106.88015333082733,0.9940030818430343,35672.351600896705,1.006033098152821,5.259301849903721,430.09988714584307,0.6428571428571429,0.6585365853658536,0.9074074074074074,0.18181818181818182,49.989787581699346,50.01867256690521,49.95401248343123,41.46341463414634,0.46494924447469804,0.5350507555253021,72.44152393650967,77.71096384963336,0.6734027481955945,0.3265972518044054,87.707051312765,61.08060515451006,0.5698029083999258,0.43019709160007413,80.4372464727128,69.89218206809751,0.6149444241242142,1.8761467411809645,0.8491388561788435,1.502683734120007,-1.119103888506304,-2.021851620990285,-0.1516557774527906,0.003926482283515211,0.3581595043021844,0.4981892840337503,2.970414465569701,6.201841232302568,1.5034136242608682,1.386530022246679,1.2971482346444696,1.9230528294297453,2.0246987030177284,1.9456949883184356,4.085005453786346,1.2936832879433207,Relax
64.49364983247818,932.0,111.27967768944457,,,,,,,155.77276643208452,156.67620620728883,0.11939879580412507,0.167138161407816,943.0,137.8818,0.14621611876988336,186.0,0.7143718394316472,823.6,1039.8,65.88235294117646,87.05882352941177,725.0,1226.0,21.25,164.0625,,,0.03499333360921941,0.11553232099357433,0.035022248997371094,0.18554790360016482,0.3028878266123094,0.1885946051140851,0.6226549519122225,-2.1582049527247213,110.78680785975578,110.64238281994713,1.0013053319725018,38508.751812821414,0.9986963696978121,5.29252955199171,441.9925842279871,0.6588235294117647,0.6746987951807228,0.9107142857142857,0.23809523809523808,48.69881174506531,48.62235855213796,48.76308489369482,42.168674698795186,0.45684704649475316,0.5431529535052467,74.89667581537094,81.66542085763975,0.6760669852870728,0.32393301471292724,90.97381021198412,62.97223778451599,0.5662915486612768,0.43370845133872316,83.32390471130981,72.92031162661418,0.5583305219398021,1.0206801731869555,0.7731044687574038,0.9534703572114329,0.11957364736771581,-0.6499504609090581,-0.32328853524130124,0.000614571610271764,0.08763069389127677,0.4559158835175605,2.4849066497880004,6.197626230255347,1.4228929674090474,1.1974359143532898,1.2283033686666305,1.7512129584172385,1.9814843757387535,1.9617391179756705,5.558997313101679,1.2064735879788615,Relax
64.68084236825311,932.3058823529411,111.82948579671383,,,,,,,158.38910045472554,159.3387201515361,0.11994935129496348,0.16988962898634216,932.0,134.91659999999982,0.14476030042918436,181.0,0.7060428115044415,821.4,1034.2,69.41176470588235,88.23529411764706,725.0,1226.0,21.25,164.0625,,,0.021091949493380883,0.061376383033453705,0.025098360602116537,0.10756669312895112,0.34364927437780984,0.19608253149602564,0.5705891038211578,-2.790730158971384,112.66948952473678,107.92479578940485,1.0439629623630728,38201.237776299145,0.9578883888145228,5.289047544881552,413.5196350073976,0.6588235294117647,0.6785714285714286,0.9122807017543859,0.23809523809523808,50.287980360683605,50.266443940520986,50.312505303471276,41.66666666666667,0.47286858123386283,0.5271314187661372,77.47848515975646,81.80320935171775,0.68002759218707,0.3199724078129301,88.9988721199384,61.04885181200042,0.5719933418085948,0.42800665819140515,83.43774595850414,72.17592177383172,0.5235833638093513,2.052277730149076,0.7721536726453018,1.447061081119917,-1.3668845963329908,-2.1287276232845422,-0.17114226375901356,0.0039014802970527506,0.39281781869441357,0.4426383283941271,2.1972245773362196,6.150567406725935,1.494944259288208,1.31484520881667,1.0485948565930532,1.3238454528796553,2.052622121420054,1.965745456454269,4.075016012118694,1.0556643894815037,Relax
64.92246897856198,927.7411764705882,105.85323992850357,,,,,,,151.81806938067746,152.68847302091783,0.114097813714814,0.16364269823426392,944.0,127.50359999999999,0.13506737288135592,175.0,0.6972374260871478,821.4,1024.3999999999999,65.88235294117646,84.70588235294117,725.0,1226.0,21.25,164.0625,,,0.028838265734436118,0.08904732330091496,0.054824372903386584,0.17270996193873767,0.32385325763227973,0.1669751148730228,0.5155888073931783,-2.4185873280821144,107.9670546821102,102.39678590756479,1.0543988634523527,34731.81281265953,0.9484076990805568,5.247697561685687,388.4556004633516,0.6823529411764706,0.7023809523809524,0.9152542372881356,0.2631578947368421,51.4854456336901,51.52739885073178,51.43681959635167,42.857142857142854,0.4870628631992368,0.512937136800763,75.37053049746883,77.34658347919198,0.6475611298221972,0.3524388701778029,82.3999050043496,60.789451547729996,0.56304339897802,0.4369566010219799,78.96347640585398,69.56238709021359,0.5494584151980051,1.4599822455083442,0.8444056912083115,1.0589710929582097,-0.19331005548671953,-0.6936426583591622,-0.353035608884963,0.001136787984594528,0.16843488413143962,0.48310076231333055,1.8607523407150064,6.1270379949612295,1.4095614144051263,0.7303647462043776,1.0323746864945538,1.071427790026555,2.1112901612237676,1.9324615175303375,3.3369625966055145,1.0556643894815037,Relax
64.55056566735198,932.5238095238095,104.64736841140899,,,,,,,143.50777654089288,144.31199569366115,0.11221951369246738,0.153891809598057,947.0,119.3493,0.1260288278775079,162.0,0.7292104367709263,828.0,1022.4,63.095238095238095,83.33333333333334,725.0,1226.0,21.0,164.0625,,,0.01633351168400777,0.03135715711067058,0.01539326243659208,0.06308393123127043,0.5208862406231849,0.2589171499811559,0.49707043455666844,-3.4623127409679126,102.04399076155164,103.59536740090833,0.9850246523731805,33210.67039650168,1.0152030181079632,5.228247752394346,420.6813185896217,0.6428571428571429,0.6626506024096386,0.9090909090909091,0.19047619047619047,51.971133132270566,51.85342438959509,52.0994334507015,42.168674698795186,0.4803023619615033,0.5196976380384967,70.75382433859377,73.59832480861331,0.6820023780250183,0.31799762197498166,85.5526131755807,58.41875149092654,0.5826263186994778,0.41737368130052227,78.50271740426292,66.44344941524626,0.5912141929074209,1.1388711813555241,0.8616573795495255,0.9540071112464873,0.3562273730906149,-0.17986864713369277,-0.41891116992964567,0.0009566363171243825,0.11527851178150765,0.4729794463397803,1.815289966638249,6.097616381086338,1.385142747614474,0.6824606485196093,1.0525166061614188,1.1793752577737528,2.1129845343873033,1.928450519276384,3.560085552109628,1.141485254067636,Relax
64.3530807206053,934.6309523809524,100.3124972408548,,,,,,,136.1168881106076,136.93472107979943,0.10732845620542616,0.14563704290324725,952.5,114.9015,0.12063149606299213,155.4999999999999,0.7369584967248266,831.8,1022.4,59.523809523809526,83.33333333333334,725.0,1226.0,21.0,164.0625,,,0.017376665473690173,0.04562446716660838,0.01213537211522971,0.07513650475552826,0.3808628692634421,0.2312679506483387,0.6072210480785175,-3.0873111456877664,96.82746985541465,103.52190255189268,0.935333175574876,31490.58302553282,1.0691377426930015,5.205150811323255,442.7166928544617,0.6309523809523809,0.6506024096385542,0.9074074074074074,0.19047619047619047,50.778707577870755,50.766084986312684,50.78288211110535,40.963855421686745,0.4542407114542258,0.5457592885457744,65.26377062427179,71.53683172102974,0.6813724181492902,0.3186275818507098,85.45245016207258,58.435118458526816,0.5753794798347783,0.42462052016522156,76.03118108644327,65.3153173533781,0.6196697534722244,1.5375771054267329,0.9329637567988125,1.226500022198949,-0.1875053060503511,-0.8425221998894079,-0.3090916778325275,0.0019551939361094795,0.22098611896512813,0.517262358909377,1.791759469228055,6.097616381086338,1.3213259437524052,0.9732092102019293,1.1222336486395597,1.2909780382987115,2.0661245978478195,1.9144989335660598,4.512433057994688,1.2175842710054783,Relax
64.43187123062854,934.6705882352941,100.62807383477772,,,,,,,141.35770230164326,142.20625126966857,0.10766153883665974,0.1512379913104293,956.0,112.6776,0.11786359832635983,162.0,0.7118683467282698,829.0,1019.5999999999999,57.647058823529406,84.70588235294117,725.0,1226.0,21.25,234.375,,,0.014025209744854987,0.038660784763932116,0.013419911344026057,0.06610590585281316,0.36277612651928254,0.21216273438688746,0.5848310262930447,-3.2529295062891945,100.55500459990073,101.06409184167237,0.9949627287744377,31926.43603333254,1.0050627737902977,5.211120550660782,406.3030259079545,0.6470588235294118,0.6666666666666666,0.9107142857142857,0.18181818181818182,50.16512549537649,50.2041019083004,50.11856630442358,40.476190476190474,0.4507503181434721,0.549249681856528,67.51077557899264,74.52294059347628,0.6817536908266147,0.31824630917338537,83.44698053391329,57.013613282747485,0.5668349145307142,0.4331650854692859,75.89829833238822,66.34840154161016,0.606277553776667,0.947218294526851,0.8500784041967311,0.8739260716497127,0.5855421744811995,0.059720419471229746,-0.4748234724869901,0.0007386120423754217,0.08163588667350231,0.5307182314413028,1.791759469228055,6.118156965524012,1.3006606644513272,1.1387362241994883,1.0463763351547695,1.4813311861508591,1.9467676124132758,1.9347298760744183,4.710806394904327,0.980259790232825,Relax
64.51250736979927,930.5764705882353,102.08089421427222,,,,,,,134.5411514317141,135.29044583125074,0.10969640587381811,0.14457828634616995,955.0,118.60799999999999,0.12419685863874344,148.0,0.7587336151651938,829.0,1015.0,57.647058823529406,83.52941176470588,713.0,1226.0,14.166666666666666,273.4375,,,0.011544002976531796,0.024435419666031827,0.010504968959289276,0.0464843916018529,0.4724290859051358,0.24834148794305494,0.5256693445689373,-3.7117215736159417,95.66479167702866,105.83379671566104,0.9039153337194074,31807.268811458885,1.1062983032771732,5.209496489190625,468.3349989436682,0.6352941176470588,0.6547619047619048,0.9272727272727272,0.16666666666666666,48.06956521739131,48.02906174449275,48.09153005688112,42.857142857142854,0.41362015796005425,0.5863798420399456,61.55191755109557,73.28755873311813,0.647412651791107,0.3525873482088929,85.15594396300321,62.84312002933749,0.5422349542129,0.45776504578709987,74.2972857729238,68.26537921993095,0.541233162969214,1.3704954678691919,0.8264352355043401,0.9493028989039483,-0.055630953197796984,-0.4009598446894236,-0.4103479972898857,0.0007438739071868281,0.13336529447313272,0.4544164198316034,1.6529230243738393,6.103508583196525,1.3117558467626766,1.2306316091288523,1.0973759672302958,1.1606104851534056,2.138870551304309,1.9098172593988343,3.7659751373545243,1.1310689887301828,Relax
65.47126835087059,920.8953488372093,105.20803246786451,,,,,,,139.7492291886561,140.57842892090932,0.1142453728327632,0.15175364862588767,943.5,112.67759999999991,0.11942511923688386,142.0,0.7528344383627168,822.0,1010.0,53.48837209302325,81.3953488372093,583.0,1226.0,17.2,273.4375,,,0.015211256037298625,0.029657046247018808,0.009830181542694539,0.054698483827011965,0.5129052944315955,0.27809282768066035,0.5421913766533535,-3.518055534317826,99.40396037852602,111.37459189549452,0.8925191885039558,34780.80952082605,1.120424090462642,5.248309795918775,499.1471033006295,0.6162790697674418,0.6352941176470588,0.9074074074074074,0.12,49.88803771361228,49.97864192715905,49.79140438227395,44.70588235294118,0.45198450395985146,0.5480154960401485,66.8291620833443,73.58692624567026,0.6051944433504055,0.3948055566495946,86.64302201637003,69.98061485696431,0.5372625711851061,0.462737428814894,77.37296093885475,71.80641395461998,0.6210418739988804,1.8983642749032617,1.0002062446923272,1.292050064109473,-0.7187720750737245,-1.116223551986155,-0.34626563864724125,0.0015245722591069799,0.26753631112278775,0.49188085638673273,1.504077396776274,6.193706615167213,1.2112700705084687,1.0888934584166263,1.0678817194371286,1.1839966234908472,1.8373238823307627,1.9061171282674672,3.1126668126578636,1.0461361228584811,Relax
65.31622971176105,920.9651162790698,98.91498996308943,,,,,,,119.86040900588827,120.5670484223036,0.10740362280249095,0.13014652443097346,937.5,120.09059999999991,0.1280966399999999,176.4999999999999,0.8252515637438724,816.0,1014.0,52.32558139534884,76.74418604651163,744.0,1118.0,17.2,109.375,,,0.013446357427539734,0.03486406911330382,0.007617435299381988,0.055927861840225544,0.38567951961776953,0.24042323423615272,0.6233756837138408,-3.356298518413096,85.25377752705771,110.95101816284766,0.7683911237473009,29716.30423503206,1.3014205514545583,5.1799649059609445,577.5757409677516,0.6046511627906976,0.6235294117647059,0.8867924528301887,0.12,50.595553202752775,50.5806426519199,50.607203900233245,43.529411764705884,0.4691996259276061,0.5308003740723939,58.399537261702264,62.114956790960235,0.6185747898206647,0.38142521017933523,87.26244958228975,68.52294013154196,0.5631184488195218,0.4368815511804784,74.24702370964984,65.3974815318363,0.6135187438174791,3.707443214536698,1.2773533925441167,2.2362702642031804,-1.443402096094676,-1.9153362231780808,-0.2413535916344723,0.0349592746055493,1.910683701540309,0.49119742060040394,1.7346010553881064,6.138417225607173,1.2750515395251636,0.9797793357292542,1.1066459723044226,1.2931845682828969,1.8251112747998972,1.8652843664623546,4.978031687815194,0.8219640965316637,Relax
65.61087619417431,916.1046511627907,99.24266505060949,,,,,,,124.21674605301813,124.90179896123793,0.10833114418166423,0.135592310218437,924.5,123.0557999999999,0.1331052460789615,165.5,0.7989475509868113,815.0,1008.9999999999999,53.48837209302325,77.90697674418605,744.0,1145.0,17.2,125.0,,,0.010871582371128431,0.02325927604238528,0.004286670084060614,0.03841752849757432,0.46740845894417316,0.28298494974279415,0.6054339503868363,-3.7610512569510077,88.31890902789021,106.91893313770636,0.8260361980430517,29665.94485128822,1.2106007005129835,5.179228295002226,517.7445414184327,0.6046511627906976,0.6235294117647059,0.8867924528301887,0.16666666666666666,48.05757228378552,48.2617454743538,47.83550396703078,45.88235294117647,0.42750201481777406,0.5724979851822257,57.77022424678485,66.85316176588239,0.6106394053687979,0.3893605946312022,83.55011073771276,66.7160944526975,0.5363241524452822,0.4636758475547175,71.82624803582557,66.78466327352596,0.6448981352376144,1.61738857899454,0.9503119596754742,1.3021641205423176,-0.8078422334823578,-1.5063330483081652,-0.2824566307463513,0.001132925409960658,0.19500852478497527,0.48830593495288355,1.9252908618525775,6.106383650000622,1.2981951909928533,1.2121102819520082,1.1080406805828422,1.2801062379268227,1.8284831277830822,1.8738244780265327,3.025882953151661,1.1208601316340867,Relax
65.9392898931379,911.2068965517242,92.61675697634178,,,,,,,110.75974417735243,111.39555235038486,0.1016418525000534,0.12155279398839056,914.0,111.195,0.12165754923413566,149.0,0.8361951146080704,816.6,1001.5999999999999,48.275862068965516,75.86206896551724,744.0,1118.0,14.5,109.375,,,0.011128533030282302,0.033219789165814924,0.00718047049863598,0.051528792694733205,0.3349970999133915,0.2159672767070236,0.6446840189448169,-3.404609521421134,78.76855046097818,104.552435479552,0.7533880019120497,25872.409709367774,1.3273373048974302,5.119806989963385,555.1053917195641,0.5862068965517241,0.6046511627906977,0.8653846153846154,0.12,48.92365097588976,49.029565885932755,48.81565339672,44.18604651162791,0.4522939762507772,0.547706023749223,52.98062909048484,58.301599211241495,0.6084073344217797,0.3915926655782203,81.55139123132544,65.42615954601933,0.5518729426463874,0.4481270573536125,68.76618526059241,61.96635709612681,0.6999256907236842,3.7289010392321833,1.331898485963067,2.3662014730705994,-1.7262846458771914,-2.314804893333674,-0.2226252517228225,0.03212863765500797,1.8715914604509933,0.4724773552080692,1.8827312474337814,6.204381570536505,1.27485686975081,0.9494439372730273,1.063756819627341,1.2730129688570233,1.9066463793368784,1.832419797752658,3.377072657264771,1.0367955050791056,Relax
66.2765208230813,906.0459770114943,89.73033347344295,,,,,,,104.05912898723203,104.65736421814242,0.09903507741341101,0.11484972245057705,904.0,105.26459999999999,0.11644314159292034,142.0,0.8623014083123144,820.2,990.4,44.827586206896555,74.71264367816092,744.0,1118.0,14.5,109.375,,,0.017697430195508786,0.03895278664535982,0.0086269673749264,0.065277184215795,0.45433027312352664,0.2711120341374433,0.5967289660747114,-3.2454049650561254,74.00393193975883,103.46915584206879,0.7152269808088073,24055.565658364656,1.398157545551707,5.08818568360603,578.664723889816,0.5632183908045977,0.5813953488372093,0.84,0.11538461538461539,48.94736842105261,48.982216618634,48.9145694026528,45.348837209302324,0.45054841210694613,0.5494515878930537,49.67932461414552,54.861751382050144,0.6004505793705657,0.39954942062943455,80.17695160618635,65.40277243213441,0.549711843928179,0.45028815607182116,66.6947481552273,60.362796516212875,0.6818888111400797,3.6052192266340177,1.293211610453461,2.257135258008442,-1.599432449222192,-2.1028807752770335,-0.2326310587622877,0.02892763061919099,1.7079669842811476,0.446662164712774,2.1747517214841605,6.204381570536505,1.3002465003435693,1.003476743216628,1.011638474596438,1.078704471245108,1.9459077156200677,1.8222942961397204,3.9805005199242585,1.0367955050791056,Relax
66.60267953360606,902.3563218390805,89.95502455187133,,,,,,,109.51213164186049,110.15395022266792,0.0996890279092135,0.1213624030678538,895.0,102.29939999999999,0.11430100558659217,136.0,0.8214160678202564,815.2,985.6,49.42528735632184,77.01149425287356,744.0,1118.0,14.5,109.375,,,0.01820810997505247,0.04377248275922972,0.008850858451468862,0.07083145118575106,0.4159716065274631,0.2570625007710606,0.6179808831593626,-3.128749906536066,77.89060517693389,100.84629986762242,0.7723694897996088,24677.145346369256,1.2947171181754602,5.099265029017299,522.2697229730655,0.5747126436781609,0.5930232558139534,0.8431372549019608,0.16,49.79867702041991,49.83532948178591,49.75985290891328,46.51162790697674,0.47619135341626356,0.5238086465837365,53.749911080637794,56.373283200675196,0.5668115725549525,0.43318842744504754,75.9240423124492,66.37406116795812,0.5329510271649599,0.46704897283504027,65.77808579701544,61.57703733840795,0.5611282534736083,1.6137582180188055,0.8475425944117287,1.2487241637672852,-0.9673693926479725,-1.7407738528159382,-0.2513992090784932,0.001069076994318125,0.19152823397416663,0.3855605709920624,2.2246235515243336,6.135416053295126,1.3625805171392888,1.170756302384156,1.0241064321064812,1.0760162733010423,2.0249940001528945,1.8761951949389089,3.9889796818993317,1.1108523268704704,Relax
66.79542817158324,899.8522727272727,87.48484791931111,,,,,,,106.38614333762114,107.00254939041959,0.09722134462600399,0.11822623175155846,892.0,102.29939999999999,0.1146854260089686,134.25,0.8223331081912996,817.2,984.0,48.86363636363637,76.13636363636364,744.0,1118.0,17.6,218.75,,,0.01508050763038176,0.04886267958096396,0.009805146430529398,0.07374833364187511,0.3086303853924716,0.2044860796938588,0.6625597782079132,-3.018741372639038,75.66222827821416,98.39623620673966,0.7689544965850195,23388.7755572027,1.30046706852105,5.075977596299822,511.8442594131341,0.5795454545454546,0.5977011494252873,0.8653846153846154,0.14814814814814814,49.83248361252731,49.84432746733944,49.820419499741156,48.275862068965516,0.4960773540699545,0.5039226459300454,53.29115943961628,53.710897079794506,0.5399176888273524,0.46008231117264753,72.30066043897823,66.74154478089389,0.5236274587786454,0.4763725412213547,63.51115325016164,60.577612468866505,0.6447587303176181,3.589370767126344,1.2463393071751674,2.327165893340087,-1.7574843313519857,-2.547229404814073,-0.1988813203518033,0.03159498811990783,1.8062118632522728,0.4012640577582989,2.251291798606495,6.169547811769944,1.3760525015466396,0.8536106521030439,1.1840496120986237,1.285415889125665,2.108525449260238,1.865656370848018,4.2803020145652715,1.0276368484195701,Relax
66.62709177480988,901.5113636363636,85.20253009008186,,,,,,,104.4804881965676,105.07916594013876,0.09451076661574886,0.11589480999455397,896.5,93.40379999999999,0.10418717233686557,125.5,0.8154874805885616,828.2,984.0,48.86363636363637,73.86363636363636,744.0,1118.0,17.6,125.0,,,0.01585307969814112,0.054833364206302714,0.01053918471491035,0.08122562861935419,0.28911375268707146,0.19517337037098287,0.6750746671751481,-2.9034564344121025,74.30219079769861,95.38413732955384,0.77897848508063,22265.253699479035,1.283732502440671,5.054597757987581,489.790869228851,0.5681818181818182,0.5862068965517242,0.8431372549019608,0.2,49.22002674194027,49.19340365708282,49.2483228385026,52.87356321839081,0.5071680002358622,0.492831999764138,52.91837725367993,52.16510015727569,0.4997887646239823,0.5002112353760175,67.43252167439763,67.4610159628142,0.502575748941594,0.49742425105840593,60.611466037916024,60.300026323185286,0.6531693002950456,3.449496002720269,1.2471548831509571,2.1739192738648496,-1.3457587505563886,-1.9024432436017014,-0.23133339189752725,0.030178130816712386,1.6522485960256594,0.46709333315802226,2.151762203259462,6.200853351567256,1.3722290640459522,0.8086562895994716,1.0543582455258498,1.274137274433335,2.1444408217439785,1.8685900117597818,4.778248625826399,1.0276368484195701,Relax
67.0581514561317,896.5227272727273,92.10937741928583,,,,,,,102.71940353248242,103.28271216124207,0.10274070541355684,0.11457534807283765,895.5,97.1103,0.10844254606365158,128.0,0.8967086475551678,818.6,984.0,46.590909090909086,72.72727272727273,698.0,1118.0,14.666666666666666,171.875,,,0.02100851688239417,0.06416125950317993,0.010890504609097823,0.09606028099467193,0.32743304986637545,0.21870138901175426,0.6679270437147554,-2.746355684956022,73.03190614855257,107.17958221676047,0.6813975632117366,24590.908197478806,1.4675720225451718,5.097744678467484,629.1750249975908,0.5568181818181818,0.5747126436781609,0.84,0.15384615384615385,48.29275761751644,48.162425339245864,48.41504275568928,52.87356321839081,0.49586202463939083,0.5041379753606091,51.44324034063353,51.87075844245338,0.4929359550793038,0.507064044920696,75.25013932560981,76.32089737179211,0.4938641510365956,0.5061358489634044,64.45537388483552,65.25126419093722,0.7189699830177271,3.311297986302877,1.3174244589354813,2.151770377758319,-1.123679977973742,-1.6484110130872653,-0.2480305540986967,0.027380952164258423,1.5106240290638318,0.4708472993026285,1.7730673362159022,6.200853351567256,1.284817076521299,0.8626857082460677,1.0521071336704466,1.225393928810433,1.9948437910679178,1.8689765216971534,3.562049462732808,1.1744421124795086,Relax
67.62073954361676,888.370786516854,93.77807240579797,,,,,,,93.58442955185147,94.11040615970376,0.1055618597877192,0.10534388452684222,879.0,114.16019999999999,0.12987508532423206,134.0,1.0020691781194138,798.6,978.2,41.57303370786517,70.78651685393258,698.0,1118.0,14.833333333333334,171.875,,,0.011219819115079847,0.05378121378262648,0.007790548091207418,0.07279158098891375,0.20861967080974111,0.15413621963766166,0.7388383800980697,-2.922831058990628,66.54610637574675,115.10704549537802,0.578123659497618,24064.366287733017,1.7297337404751556,5.088344539392395,796.4181614390565,0.5730337078651685,0.5909090909090909,0.8461538461538461,0.19230769230769232,48.9625850340136,48.967877638711485,48.96322021568798,52.27272727272727,0.5115698812001432,0.4884301187998568,47.60173618006302,46.512697561878284,0.5027838153756549,0.4972161846243452,81.61924093254986,81.16607316033839,0.5049851074216445,0.4950148925783556,66.81177208307659,66.14893221644685,0.767595144830242,3.515608066902563,1.3739766990362052,2.0963307414808625,-1.2005851823653266,-1.1724628869959788,-0.2945294160503251,0.0234373434087173,1.4429038284071625,0.5252602935596351,1.845826690498331,6.2425324477960205,1.1996583029819154,0.9477841214966654,1.1264135960390638,1.282631945888769,1.9695037942241405,1.8256220392742843,3.0867244003971153,0.945893647219811,Relax
68.27764666589512,879.5222222222222,93.935218865561,,,,,,,97.14358653299959,97.66570345969883,0.10680255312733541,0.11045040600287989,866.0,97.85159999999999,0.11299260969976904,125.25,0.9669729337577143,796.8,961.2,44.44444444444444,72.22222222222221,698.0,1118.0,15.0,171.875,,,0.01869542454482131,0.04989509435568053,0.009296870869161554,0.07788738976966339,0.3746946425544307,0.24003146850997759,0.6406055524936121,-2.9978325905627603,69.0600812057075,112.04847819484837,0.6163410901986054,24309.88586588933,1.6224782282125099,5.092753029811675,727.1848655019426,0.5666666666666667,0.5842696629213483,0.8076923076923077,0.2,48.31769653833711,48.470849052521366,48.15652235900893,48.31460674157304,0.47509888293831765,0.5249011170616827,47.615111715046545,50.04855596863364,0.5303532863961653,0.4696467136038347,81.59970611850109,76.78769059657714,0.5151355108844267,0.48486448911557345,66.80460651131068,64.81206439275451,0.747030908594584,1.873908991740842,1.0879842425819741,1.3507531648967597,-0.5928801568385058,-0.8475612291854255,-0.3597749818838982,0.0013742376087251082,0.2507708651030865,0.5588902739839643,2.063693184711697,6.283465457416749,1.2294996352032348,1.39609647178302,1.2398285987326438,1.4101038066546405,1.9111430701116654,1.836868684177372,2.5824588789036933,1.0819755160549458,Relax
68.51541280901017,876.5777777777778,91.0672029639672,,,,,,,93.09684458621629,93.59278441845386,0.10388947252898961,0.10620488785630312,866.0,97.85159999999999,0.11299260969976904,125.25,0.9781985991977478,796.8,956.4,43.333333333333336,70.0,698.0,1118.0,15.0,218.75,,,0.027146046506595495,0.08165931158263567,0.015592371389689315,0.12439772947892049,0.33243050890926107,0.2182197908298275,0.6564373154131647,-2.5051994234148087,66.18009253241937,109.70709913032711,0.6032434824823906,22809.30089527981,1.657705435763562,5.065082084323265,727.4482182807808,0.5444444444444444,0.5568181818181818,0.7959183673469388,0.2,48.17642069550466,48.2436467699266,48.112796289676766,48.86363636363637,0.5006449605569347,0.4993550394430653,46.842337104958204,46.78195310548327,0.5222767096751397,0.47772329032486033,79.2839102663592,75.82683675630494,0.5165022948474307,0.48349770515256935,65.11583130306578,63.00103296308305,0.7851332421502154,3.645976657036831,1.4072789239039716,2.185138253268655,-1.3763317227410212,-1.3868999650180283,-0.28665268526516896,0.024656770993659566,1.549806249614372,0.5780846971869313,1.8925641683500207,6.239021012972304,1.2250411374534835,1.2322637176850015,1.2288671819486687,1.4287869242780946,1.895800890262106,1.813852894373815,2.696347801309778,1.0819755160549458,Relax
68.5089768160775,876.3444444444444,90.763324909152,,,,,,,91.1597560527424,91.65728540227221,0.10357037747491069,0.10402274657030867,868.0,99.3342,0.11444032258064515,120.75,0.9956512483056555,796.8,952.4,45.55555555555556,70.0,698.0,1123.0,15.0,171.875,,,0.01709660436306386,0.025800655289297543,0.0051207248722799775,0.048017984524641386,0.6626422535150013,0.35604585515850623,0.5373123329667746,-3.6573553885671273,64.81148805309743,108.1060611369476,0.5995176160474012,22011.61507688508,1.6680077002456828,5.049622019541286,721.2869696786366,0.5444444444444444,0.5568181818181818,0.7755102040816326,0.20833333333333334,51.4206991561908,51.20220518964067,51.661685080656824,46.590909090909086,0.5387324753008047,0.461267524699195,47.58043429050145,44.02691583772156,0.5660978327559267,0.43390216724407343,81.33843089775637,71.21081458343502,0.5588604243094126,0.44113957569058715,66.63271744489269,59.20029320796554,0.776877143556288,1.8477673216734574,1.091490435015844,1.3052772203745266,-0.5437733019795417,-0.6068880146240381,-0.38429994250300764,0.0010831606371952019,0.2234840244115934,0.5826404849184836,1.9195928407379397,6.22518642966301,1.2610899460817586,1.098500813796282,1.2864475825330774,1.444964035675308,1.9069759192150786,1.820368115987591,3.2467564559386353,1.009843814984616,Relax
68.7211101296394,873.9666666666667,88.29998027663387,,,,,,,92.32611959543496,92.84894291376874,0.10103357901899447,0.10564032144105606,864.5,98.5929,0.11404615384615385,127.5,0.9563921960931178,796.8,951.0,44.44444444444444,70.0,698.0,1120.0,15.0,171.875,,,0.037358044515801964,0.06605741195703374,0.013059738807679336,0.11647519528051505,0.5655390274765996,0.32073820031664313,0.5671371642515235,-2.7172310369435575,65.65411716032851,106.74144740194747,0.615076137323679,22016.329990907372,1.6258149834119766,5.049715035971974,694.1673781486704,0.5555555555555556,0.5681818181818182,0.76,0.2727272727272727,50.16943409013893,50.16738792942503,50.17343225632824,47.72727272727273,0.5187755553973792,0.48122444460262104,47.28822407707479,45.54462097767418,0.5187121692047346,0.48128783079526544,76.87697850294592,74.0517843790432,0.5187295674182152,0.4812704325817848,63.82102302574773,61.47348725149853,0.7360813857363981,1.6226723483527716,1.0118431127323892,1.3917887562514208,-0.6061739698639563,-1.2874825891396315,-0.26585190232351774,0.0015878633975748993,0.21852855410110256,0.5641837814731359,1.9021075263969205,6.225186429663009,1.2659208335735768,1.2183593575083078,1.2122192578414395,1.5554202095175234,1.898487390194907,1.829798493622171,2.9167234294064404,1.009843814984616,Relax
68.25637980650211,880.3111111111111,89.9348883627426,,,,,,,87.28379388040658,87.77828794482735,0.10216261867833132,0.09915107599884626,872.5,98.5929,0.11300045845272207,119.0,1.030373272797565,798.0,958.8,43.333333333333336,70.0,698.0,1120.0,15.0,171.875,,,0.01133542027741313,0.015752085673374373,0.002592391029504253,0.029679896980291755,0.7196139300190134,0.3819224940349406,0.5307324915525878,-4.150782498771431,62.0686226467328,110.53655529362119,0.5615212314320658,21554.001421206453,1.7808765617814089,5.0404980171189635,787.4078421698588,0.5555555555555556,0.5681818181818182,0.76,0.2727272727272727,50.06224435354791,50.03560485262961,50.08970402497426,46.590909090909086,0.516712066933808,0.48328793306619183,44.61661176573749,43.14944959092757,0.5382941052588317,0.46170589474116835,81.09904466359873,75.10842170377029,0.5331204407969035,0.4668795592030966,65.4511156925645,61.25010208494101,0.9062453245821922,3.242167710001859,1.4152082840545372,2.40475130379352,-1.5179519063932112,-2.2749115758074527,-0.1947896875641836,0.02521932464155791,1.4465354526479757,0.5202285228508492,1.8971199848858813,6.24740865188523,1.2598662140864285,0.7802238541269992,1.277924346535331,1.6552033497788934,1.903134141313812,1.8220852368058986,2.9388605186190726,0.9377121139142864,Relax
67.9322630641254,884.4044943820224,90.07619490554593,,,,,,,86.23402355324617,86.69141923070623,0.10184954449885136,0.09750518467627439,887.0,88.95599999999999,0.10028861330326944,120.0,1.044555167368798,798.6,962.0,41.57303370786517,70.78651685393258,698.0,1120.0,14.833333333333334,195.3125,,,0.010795267715142326,0.010959492642754854,0.002449609251042897,0.02420436960894008,0.985015280089531,0.4460049110783289,0.45278984000917244,-4.51354929025321,61.30009040871825,111.21042467044805,0.5512081317050085,21416.893984732193,1.814196747981165,5.037726596854375,807.0303631149247,0.5617977528089888,0.5747126436781609,0.74,0.2857142857142857,52.033118675252986,52.02793323898918,52.03357378144663,47.12643678160919,0.5422657569205143,0.45773424307948574,45.15974201488062,41.49082435608054,0.5267526143622335,0.47324738563776647,80.71399601585857,76.50496325424493,0.530369980819627,0.46963001918037295,65.39935569903807,61.54062848346811,0.912525234090128,1.388760305629753,1.1009273961375587,1.4190629695084511,-0.8682170154802868,-1.435030616092006,-0.2709211790679535,0.00034309064964906273,0.11069972926140209,0.5514502800615495,2.131627294850406,6.161126689393362,1.271741185009252,0.8388506816181304,1.1649105573706702,1.7236032811221322,1.9273078424611374,1.8391508183500362,2.662138848606039,1.0186546970059502,Relax
67.50425627962017,889.0,97.17053893214566,,,,,,,109.80147374404241,110.35146425640156,0.10930319339948893,0.12351121905966525,880.0,83.0256,0.09434727272727272,115.0,0.8849657078251914,820.4,959.6,41.57303370786517,73.03370786516854,698.0,1175.0,14.833333333333334,171.875,,,0.004625433148385324,0.00921165416750559,0.002136827095791868,0.015973914411682784,0.502128397818243,0.2895616584124451,0.5766685566293317,-4.68728583924972,78.03026868956644,109.89823829124529,0.7100229257795344,26940.379280034296,1.4084052270595342,5.137373815605123,619.1250130160965,0.5730337078651685,0.5862068965517242,0.7647058823529411,0.22727272727272727,47.05787781350481,47.24646787357347,46.854059732940726,48.275862068965516,0.4360833584678028,0.5639166415321972,51.565548063861755,58.63843037839075,0.5018409870849432,0.498159012915057,77.8527208086755,77.56659488598011,0.4797802896306244,0.5202197103693755,66.03049251838128,68.75697113546791,0.6859865241025102,2.213874078554447,1.0344651060488945,0.9741100615359333,-0.7532607707619157,0.31518759799286533,-0.5272621849172064,0.00029766879075958656,0.2271738850337663,0.5902421972248373,1.9061698204057995,6.2285424197304415,1.1411620112825915,0.9628951385522818,1.4371525063866055,1.693969670297823,1.868201681126153,1.8680468834341417,2.401612484846376,1.0914157467920895,Relax
68.04784385577425,882.9775280898876,92.00086184478849,,,,,,,99.67030879126168,100.23632928466579,0.10419388819986225,0.11287977963252897,874.0,87.4734,0.10008398169336384,110.0,0.9230518392138705,812.6,953.8000000000001,44.9438202247191,75.28089887640449,698.0,1175.0,14.833333333333334,132.8125,,,0.005643889909749889,0.013003370932245772,0.0022900728743708043,0.020937333716366465,0.43403283188316694,0.2695610618909956,0.6210614545481115,-4.342546652653234,70.8777881584349,109.65334823431917,0.6463805191518234,24416.41659388378,1.5470763279069641,5.094652036249743,678.5683973162164,0.5617977528089888,0.5747126436781609,0.76,0.2727272727272727,49.271327984280326,49.29226554172172,49.26366185900436,48.275862068965516,0.4827403578328702,0.5172596421671297,49.248081822730825,50.97847190433574,0.5136141028658103,0.4863858971341896,78.58512844381859,76.47374952534626,0.5045153887860364,0.49548461121396353,65.5781822550376,64.98861040277191,0.6585103586292523,2.0006611434917723,0.9754745279956013,1.1577270584040091,-0.6683714970562615,-0.4321158723108074,-0.4089038486096046,0.0009643658962182979,0.23758023649012674,0.49906818305771505,2.043073897508961,6.251014329842799,1.2095550017136683,1.1673581880205588,1.2270382569112743,1.7021735265278917,2.03749036637445,1.8795575684641717,3.3416060835200274,0.945893647219811,Relax
68.13044882764585,882.0449438202247,91.94784961057094,,,,,,,100.3314393760636,100.9029602781527,0.10424395066801882,0.11374867015451404,873.0,85.9908,0.09850034364261168,108.0,0.9164410496088949,813.0,948.6,44.9438202247191,74.15730337078652,698.0,1175.0,14.833333333333334,132.8125,,,0.009080715676045823,0.020418226166411868,0.0038818367304211503,0.03338077857287884,0.44473577685135385,0.2720342683505803,0.6116761513466086,-3.891327337481504,71.3491674544786,108.80433550536895,0.6557566582533642,24388.494013860014,1.5249559229235166,5.09415509347915,663.6872634746795,0.5617977528089888,0.5747126436781609,0.78,0.2608695652173913,50.594559374490956,50.571687168160885,50.61991103459951,49.42528735632184,0.4966636300111871,0.5033363699888131,50.284592370676094,50.621255360301696,0.5216047204833802,0.47839527951661986,78.58089257096518,75.25574228931183,0.5141043886333498,0.4858956113666502,65.9677834519799,64.13243423482454,0.7014288882301442,2.18934059513208,1.062593055661564,1.2646361603718557,-0.9024132714451483,-0.5941592243745399,-0.4077150877485543,0.0010419320296141557,0.2815135660944255,0.5006722809196291,1.760987810561301,6.273486239955162,1.208005997479966,1.3675356702066348,1.1518292852919347,1.604289689608318,2.035342104443188,1.8652732351001788,3.496901426879352,1.0186546970059502,Relax
68.10663275752064,882.3666666666667,94.66219657642726,,,,,,,108.29910724107324,108.90949494827179,0.10728215395311162,0.12273707896309914,873.5,91.17989999999999,0.10438454493417286,113.0,0.874081042660026,808.2,962.6,50.0,75.55555555555556,698.0,1175.0,11.25,132.8125,,,0.010460838188557427,0.021342656807751215,0.004911116406845587,0.036714611403154226,0.4901375814073094,0.28492302624939986,0.5813123438347934,-3.847047541900468,77.01064241352502,110.27442495790086,0.698354513686425,26679.360825402026,1.4319374764562915,5.133145530658849,631.624327167541,0.5888888888888889,0.6022727272727273,0.8113207547169812,0.3181818181818182,50.534373194685145,50.546431226280774,50.5226588516389,50.0,0.5118311564644098,0.4881688435355903,55.09686717706617,53.80821371906303,0.507389156949657,0.49261084305034303,78.54985591748601,77.39747369997225,0.5088453955010545,0.49115460449894566,67.84447154111042,66.65468025118064,0.6131209291189936,2.1202897502804823,0.9689655069817176,1.1773662910394889,-1.0931554936980543,-0.8985568224437261,-0.40171117696050596,0.0006444320998610321,0.245860390399157,0.46625096278319234,2.0794415416798357,6.336297540774121,1.2451387220946462,1.129030052915175,0.8497425516218663,0.8502993454155388,2.0130878707739073,1.9073768706767347,3.037439236259551,0.9377121139142864,Relax
92.46449947975195,649.5983606557377,111.04832243057844,,,,,,,61.05383073922458,61.288258979230555,0.17094920362557658,0.0939870455916695,620.0,114.16019999999999,0.18412935483870965,195.5,1.8188592113882618,548.2,769.0,31.147540983606557,69.67213114754098,479.0,958.0,17.428571428571427,125.0,,,0.012389304856570877,0.0013844157193084545,0.0004157119391644077,0.014189432515043739,8.94912177301743,0.8731360358094411,0.09756667279263544,-6.582477091667393,43.33734353133123,148.54572808846888,0.2917441254555698,20224.245390118565,3.4276611343534715,5.012842436091765,2036.6576753723343,0.6721311475409836,0.6806722689075629,0.9012345679012346,0.2857142857142857,51.68539325842697,51.286822109672414,52.17732299627905,46.21848739495798,0.5118970547805498,0.48810294521945025,31.016393514828035,30.286960890785984,0.5945723119428182,0.4054276880571818,114.54140535171071,94.58382416348172,0.5880836080213142,0.4119163919786859,83.90992255571318,70.22606280216921,1.3937582056208069,1.1056132172731266,1.604158576336363,1.8778424068611934,-1.2290435812660228,-2.2290435812660228,-0.25245969725303985,0.0018654746635547725,0.12699821340535053,0.6562243985641909,0.9973585549629369,6.672460493265125,0.7652844241102776,1.1960400025762292,1.0696257095053028,1.240812507518286,1.78931177126878,1.6843254486437162,2.5781153315205803,0.6249025468294407,Stress
92.84279459176832,646.9098360655738,109.57445893643542,,,,,,,68.61685454225315,68.89978549147558,0.1693813462519813,0.10606865241000575,619.0,107.48849999999999,0.17364862681744747,184.0,1.5969029718341465,548.0,767.8000000000001,32.78688524590164,69.67213114754098,479.0,954.0,17.428571428571427,125.0,,,0.011437394466520524,0.0008255175130884776,0.0003153044847232047,0.012578216464332206,13.854817475319487,0.9093017677787079,0.06563072876264937,-7.099500079700749,48.71950554332089,147.6466581908684,0.32997364207416974,22598.33104281736,3.030545087523158,5.061046476292406,1789.7994186781884,0.680327868852459,0.6890756302521008,0.9024390243902439,0.2727272727272727,49.419680403700575,49.469115804309325,49.385104051877995,47.05882352941176,0.4666447838427526,0.5333552161572473,33.282127335854,35.581654917480535,0.5462602702481578,0.45373972975184207,109.12479209177096,99.45509250842257,0.5384422366323605,0.4615577633676395,80.6719289749298,74.69059376027734,1.1946830412147003,0.513645024148266,1.1946830412147003,1.3712412380541599,0.04315503255135056,-0.7073549686290121,-0.15626417362412667,0.00019750793889131805,0.016934407979905523,0.6582491966917225,0.9793747073007323,6.678648095741874,0.7630465142603794,0.8490794191127855,1.075673477343128,1.254364959989119,1.784834380815846,1.7591038457853283,3.039628648879778,0.6817118692684806,Stress
92.69133046149611,648.1639344262295,109.09767862751717,,,,,,,68.77271225139535,69.05742410263692,0.16831803319031177,0.10610388606745703,620.5,108.97109999999999,0.17561821112006445,181.5,1.5863512584572184,548.6,767.8000000000001,33.60655737704918,69.67213114754098,479.0,954.0,17.428571428571427,179.6875,,,0.007465756679391019,0.0011839445408781916,0.0009585840116902131,0.009608285231959423,6.305833104186864,0.777012390781047,0.12322121089204478,-6.738903584091873,48.8309728742499,146.99564844292848,0.3321933226697434,22550.16521103245,3.010295306249036,5.060119837992928,1770.001242187124,0.680327868852459,0.6916666666666667,0.9036144578313253,0.3181818181818182,50.41514447027566,50.439449913599034,50.38055621673174,46.666666666666664,0.4908473296848461,0.5091526703151538,34.211840055746784,34.84393777976307,0.546244043784946,0.4537559562150539,108.64202092618646,99.0183414839447,0.5407382608403889,0.459261739159611,80.54048271188204,74.2251034025251,1.2979466492194929,0.4764868916785776,1.4545727041896046,1.4931519472968402,-0.024027158153190342,-1.0240271581531903,-0.4190339885923664,0.00036669973050359035,0.025006672872850126,0.6771965453762578,1.1180303745252114,6.662254653118924,0.791460886974938,0.886835295466686,1.060730719667181,1.3136935458874994,1.8256372882831493,1.710564475043888,2.515169623567183,0.6817118692684806,Stress
90.55580015187377,663.5882352941177,124.88926700465944,,,,,,,70.20381949143822,70.39724002926184,0.18820295533013123,0.10579424974332503,631.0,127.50359999999999,0.2020659270998415,205.5,1.7789525970149023,549.8,785.4000000000001,33.61344537815126,67.22689075630252,479.0,997.0,19.833333333333332,46.875,,,0.010341845582675143,0.00192532360012146,0.002245992637089328,0.01451316181988593,5.371484347889738,0.71258390907657,0.13266052043072946,-6.252661221411077,49.77836580150811,167.42185101937608,0.2973229927779687,26181.989642621684,3.3633456688187175,5.1249727566829595,2252.3902299665247,0.6470588235294118,0.6551724137931034,0.881578947368421,0.2608695652173913,53.85660890248046,53.71939526007281,54.026703788966834,44.827586206896555,0.5322230093608358,0.46777699063916406,36.36977706503965,34.09677028091874,0.5274704887173887,0.4725295112826115,121.5937415796656,115.08708966435663,0.5278575611105393,0.47214243888946067,89.74351975241217,84.875284833105,1.24923375338304,0.5252736836301715,1.24182375659241,1.326742911901274,0.048220137076717684,-0.45416095930455924,-0.33833350507494137,0.00019981437511609897,0.012416182744490146,0.6275750865883691,0.9697794168251413,6.693137091039035,0.7606675869412871,1.1014522422140154,1.140053373834935,1.3863768275629478,1.721846680638969,1.654599001208509,2.0715458054359153,0.6373360957679611,Stress
87.79841076503415,683.8260869565217,133.59399482705808,,,,,,,70.83425180003087,71.05611576959926,0.19536253058382094,0.10358518510940425,641.0,149.74259999999998,0.23360780031201245,213.0,1.8860084130513801,556.8,805.8,33.04347826086956,66.08695652173913,479.0,997.0,19.166666666666668,54.6875,,,0.026439106010716935,0.002827447369290044,0.0007847642774172789,0.03005131765742426,9.350874678652513,0.8797985603198695,0.09408730098034539,-5.868380964014597,50.24426130546001,180.9504568842192,0.2776686070353981,28562.48716630675,3.6014154090977835,5.162766132238617,2606.7110548244445,0.6434782608695652,0.6517857142857143,0.8767123287671232,0.21739130434782608,53.59281437125747,53.79885534757594,53.407039844209194,44.642857142857146,0.5194127910432627,0.4805872089567372,36.25749846156331,34.87607644166129,0.5459232065153741,0.4540767934846259,133.69816973306143,121.93386427337225,0.544021056890383,0.45597894310961684,97.9535777413484,89.6777786427657,1.4428474126923496,0.7888587449711655,1.4813682492169593,1.8372767851779324,-0.6234203607353273,-1.6350668191587894,-0.048831095262837854,0.0005632815988476548,0.05417117178211363,0.6189318095035192,0.9120263330876976,6.654185703118288,0.7268599585905331,0.8151901533952184,1.1331478382635327,1.333611547155266,1.7077673332943928,1.5991770918695811,2.0224439776155667,0.6547860048729403,Stress
84.65353501192213,709.8108108108108,133.24731029272488,,,,,,,75.90664122340141,76.13823519788994,0.18772228918367362,0.10693925771107078,687.0,149.74259999999998,0.21796593886462878,205.5,1.7554104376791448,587.0,832.0,36.93693693693694,69.36936936936937,494.0,1000.0,18.5,125.0,,,0.047585055565312624,0.004619011178201787,0.003414829769227635,0.055618896512742044,10.30200052121065,0.8555555494419257,0.08304751564324171,-5.377574627488581,53.83786241600425,178.75614385470737,0.3011804867516249,30234.21230878275,3.3202682244971333,5.187468768387287,2374.073377497694,0.6576576576576577,0.6666666666666666,0.9027777777777778,0.22727272727272727,53.838451268357815,53.972349841532186,53.743561534686194,46.2962962962963,0.5272357210476493,0.47276427895235085,39.151669325958174,37.074064230026224,0.506983974186085,0.4930160258139152,127.2793923251835,125.5138050380788,0.5086729256319416,0.4913270743680582,94.16182061132089,92.54242673949328,1.3946388927427698,0.7169592627491679,1.4286170162040461,1.7529256803725024,-0.12598964115887767,-1.125603953669175,-0.04766096064523901,0.00029124602987180587,0.04154421456091005,0.6161576481485924,0.9657156152016781,6.596217668151912,0.7916927988929526,0.9025576934456744,1.2588370390924921,1.5046369659937389,1.7293085435339965,1.6122074756641127,2.1089390562969235,0.7345314450108222,Stress
82.194859000508,731.6296296296297,129.13606477676856,,,,,,,84.29908925129696,84.63127676293453,0.17650469519959253,0.11522098864964148,711.0,149.74259999999998,0.21060843881856536,211.25,1.5318797145223224,607.2,844.8000000000001,42.592592592592595,72.22222222222221,532.0,1022.9999999999999,18.0,85.9375,,,0.04254802720851801,0.004268911709581731,0.0028817703891478932,0.04969870930724764,9.96694944826743,0.8561193600718554,0.08589582645276443,-5.456396353176629,59.843349699546486,171.72971945420346,0.3484740433382318,32285.775909483014,2.8696541940984446,5.215981338032369,1971.2196387324166,0.6388888888888888,0.6476190476190475,0.8970588235294118,0.17391304347826086,52.6634382566586,52.8347440753834,52.493075658663976,46.666666666666664,0.5167245764606551,0.4832754235393448,43.05032158624655,41.633622116818486,0.5064168612122298,0.49358313878777005,122.20797251173049,120.64952547934679,0.5075345468535475,0.49246545314645235,91.61909935735866,90.24872987737164,1.3696515178026385,0.7330512096515303,1.5532702316707931,1.7361771226284035,0.020423378737774556,-0.9907045139802477,-0.2504855205892659,0.000797302512030505,0.05804977449255759,0.6277538786578023,1.051544777810124,6.514146761422727,0.8842678971950314,0.6399396144309782,1.2150847143997188,1.4744932121336118,1.7601581482686313,1.642722940007023,2.271882533391468,0.6879978011462792,Stress
80.74318580157554,745.3867924528302,122.92851742101155,,,,,,,95.35682361280607,95.76674386638209,0.16491909793101245,0.12792931747424338,750.5,157.1556,0.20940119920053296,195.75,1.2891423263023067,627.0,851.0,50.0,78.30188679245283,540.0,1022.9999999999999,17.666666666666668,78.125,,,0.021495315546512888,0.0042816768328734055,0.0031033489113690706,0.02888034129075536,5.020303116171315,0.744288834058674,0.14825575604412877,-5.453410562733865,67.71731400007398,159.51277751476897,0.42452595368922197,33934.782772517014,2.355568584935231,5.237615183439206,1502.9731504382107,0.6415094339622641,0.6504854368932039,0.9104477611940298,0.17391304347826086,52.0753722493082,52.13518407336569,52.00616930050141,47.57281553398058,0.5235426396454805,0.4764573603545196,49.021973095274795,46.76562881499123,0.49270624288043274,0.5072937571195675,111.96686277615228,113.6122697182944,0.49741897414838565,0.5025810258516142,86.42838713665655,86.87569242602908,1.254373363114414,1.507770307698758,1.3395215960644196,2.008258516963793,-0.8960392937121195,-1.8810472962324933,-0.05647294718249454,0.002684091817286989,0.23774553572985693,0.597209016668268,1.170932950247736,6.539241209280181,1.0129848620750768,0.850595873813103,1.0961027815428772,1.520751301017207,1.776977821183204,1.6641659035507317,2.5605263986915796,0.6347094768455848,Stress
79.3496953172655,757.5238095238095,112.57938184284552,,,,,,,91.51828316705988,91.94714687943346,0.14861497477368343,0.12081241806061463,759.0,124.5384,0.16408221343873516,173.0,1.2301299581564502,639.4,847.0,46.666666666666664,76.19047619047619,555.0,1022.9999999999999,17.5,78.125,,,0.016468128765468756,0.005809897561475224,0.0031164427028437785,0.02539446902978776,2.834495546817738,0.6484927385625433,0.2287859436895571,-5.148192339689377,65.0164510692029,144.75313576453848,0.4491540077926974,29566.58142598417,2.2264078303884136,5.177771223001316,1289.1180597577825,0.638095238095238,0.6470588235294118,0.9242424242424242,0.21739130434782608,51.171221416620185,51.41786888501416,50.95060311363243,47.05882352941176,0.4929499851904916,0.5070500148095084,45.65542109901249,46.3037669628666,0.5302416154579783,0.4697583845420215,105.40589143197612,99.21223898843012,0.5239797423418987,0.4760202576581014,81.22444036217698,77.41804440842209,1.1859067995534003,1.5994580899250623,1.1915530115821493,1.928317838314157,-0.9560260817681403,-1.8413900693645915,-0.039365969403720634,0.001828824402835519,0.22413324692611136,0.6021628550103961,1.3261904370501851,6.485674089094695,1.0434969603472997,1.296730367405521,1.3775209261190748,1.607670199306969,1.8143279350529937,1.686211110630122,2.4253715301783303,0.8312875402824722,Stress
79.01200237608397,761.9711538461538,113.17487600116475,,,,,,,100.09558538513191,100.56338254177265,0.148529082013012,0.13136400883404278,761.0,111.93629999999999,0.14709106438896188,170.75,1.1306680066429344,642.2,843.6,47.11538461538461,77.88461538461539,569.0,1028.0,17.333333333333332,70.3125,,,0.03143663339838934,0.009956828761758464,0.004560075220984633,0.045953537381132434,3.1572937679845516,0.6840960498352531,0.21667164987056103,-4.609496655498657,71.10904973434431,141.71939299424326,0.5017594856423976,31659.49850181534,1.9929867369018646,5.2074741411571335,1129.7794823972395,0.6923076923076923,0.7,0.9428571428571428,0.22727272727272727,51.40900711087701,51.12724949898357,51.725985245670614,49.0,0.5475934377937344,0.45240656220626574,52.631720846041944,47.83908894797798,0.507032378856543,0.4929676211434569,100.91300307317874,99.50352838673301,0.5151930900605234,0.4848069099394768,80.47835804880424,78.06897781059365,1.164036207947466,0.700163278761021,1.4567692672866173,1.5141178473279764,0.36178949242141734,-0.629780644185894,-0.41809256243366427,0.0011790359817984842,0.06842127259007122,0.5754857671491038,1.3240520522426695,6.431208948910321,1.0584017231577625,0.8119053240138175,1.1619785218904122,1.3832754748304859,1.7886956204685847,1.7147191868387597,3.859464923153237,0.9664095747318882,Stress
77.6337626324764,774.0,118.37212676994362,,,,,,,108.89258036893946,109.42425202254329,0.15293556430225275,0.14068808833196314,771.0,117.8667,0.15287509727626458,153.0,1.0870541075331897,658.6,873.8,50.0,79.41176470588235,569.0,1184.0,20.4,70.3125,,,0.030268265111258,0.00792597131171251,0.004683846706463414,0.042878083129433926,3.818871393910981,0.7059146049017326,0.18484901220483146,-4.837610403736908,77.37463063140615,148.4885327438979,0.5210815219304256,36094.52886243288,1.919085513328794,5.264411487354231,1139.848768337051,0.7058823529411765,0.7142857142857143,0.9571428571428572,0.21739130434782608,50.97605893186004,50.9460869085091,50.97619183250705,46.93877551020408,0.4716699913244385,0.5283300086755615,53.14508443873243,56.24664434435178,0.54612946663166,0.45387053336834005,109.73387630182705,100.03659704433653,0.5302265244254479,0.4697734755745521,86.21462639316104,81.15111135471578,1.0642826888737957,1.6646381727905606,1.1020495753525368,1.896601775269076,-1.1022802549463577,-2.082197469167618,-0.022687745058392793,0.002993610257583122,0.28090000268680393,0.5431557485124565,1.3244189574018033,6.39051468018558,1.0351982197617686,1.2261691731197844,1.2825485422232397,1.506909119207998,1.793964343611223,1.7367600737123485,2.8553363227086113,1.0466549556033717,Stress
79.28892061027638,759.0865384615385,127.10435362422294,,,,,,,112.12899991241883,112.67625531285134,0.16744382515573103,0.1477157006889804,755.0,138.6231,0.18360675496688741,181.75,1.1335546890055292,636.0,873.4,49.03846153846153,77.88461538461539,400.0,1022.9999999999999,17.333333333333332,234.375,,,0.026494635299096122,0.008400057141106575,0.006700724788413155,0.04159541722861585,3.1541017940749234,0.6369604409417717,0.20194669751569888,-4.779516770643319,79.67414421042393,161.48370552535596,0.4933881344326323,40419.96997300935,2.0268018831663674,5.313566096514624,1309.1819138378983,0.7019230769230769,0.7100000000000001,0.9577464788732394,0.20833333333333334,50.300697618474864,50.484019258485304,50.167218691918194,46.0,0.46916703345920113,0.5308329665407989,54.57392899077541,58.049758912539176,0.5590332997115665,0.4409667002884335,120.73899193347756,107.23377722102083,0.5414395399202888,0.45856046007971124,93.69156285013757,86.2231334587518,1.0487349620200657,1.1045762201812095,1.2158938450187557,1.2014607559824901,0.19535770039667355,0.26937532497428274,-0.5130666302357096,0.0002027384891888785,0.060549060844538205,0.6332331875576971,1.2222262446352865,6.462411953697211,1.0455128806033593,1.1420641407565646,1.0824006760525107,1.1537811557540492,1.7097194948321024,1.700397233805361,2.956844958501824,0.9019822697497624,Stress
80.17942794319215,750.8,135.92909633617532,,,,,,,114.85655769765106,115.40644761713133,0.18104567972319568,0.15297889943746812,754.0,145.29479999999998,0.19269867374005303,202.0,1.1834683109169588,626.6,873.2,51.42857142857142,78.0952380952381,400.0,1022.9999999999999,21.0,234.375,,,0.029503070823958043,0.012331986727662236,0.0076411962395428554,0.04947625379116313,2.3924020902308345,0.5963076943636249,0.24925061585533442,-4.395558845210658,81.60468170272362,174.15244117972435,0.46858189956986046,44647.22946750689,2.1340986515227334,5.356764624377726,1486.6339595241675,0.6857142857142857,0.6930693069306931,0.9571428571428572,0.2222222222222222,49.284651482202136,49.33673661101056,49.289627571345186,45.54455445544555,0.45115968194663003,0.5488403180533697,54.81557782980614,60.459125243777045,0.5606647901668371,0.4393352098331629,130.40108596137588,115.4323591933874,0.5409479181105556,0.4590520818894443,100.02297434270207,92.1410206536533,1.1224903256939702,1.2148206178496874,1.3086482364904775,1.445610184674126,0.25395588240838496,0.1314233728367027,-0.38725747145609013,0.0015644586811652773,0.121803969049957,0.6190903918684736,1.2964380319980293,6.535627541455043,1.050068664203995,0.7761355698566549,1.1495933787316497,1.570425995522213,1.728926930667629,1.7048280804792209,3.456624578467057,0.8312875402824722,Stress
81.24489888868746,740.9719626168225,143.73255155426858,,,,,,,113.81974328851805,114.35101969506434,0.19397839433311562,0.15360870455415257,751.0,170.499,0.22702929427430094,217.5,1.2628086077292013,598.0,872.8,50.467289719626166,79.43925233644859,400.0,1022.9999999999999,26.75,296.875,,,0.04404175046505394,0.01609427690676461,0.007646886533067309,0.06778291390488585,2.7364851940967094,0.6497470812018215,0.2374385516879427,-4.129291541816263,80.85838146197644,186.52803023859448,0.4334918529861044,47382.614480515585,2.306848428895514,5.382589130534571,1721.1675740035064,0.7102803738317757,0.7184466019417476,0.972972972972973,0.2692307692307692,49.1196183119391,49.12443245437025,49.164905110485826,47.57281553398058,0.4510469166333509,0.5489530833666492,54.3089925027768,59.91402570509243,0.5237758170537096,0.4762241829462905,134.99473340298343,128.72112498788786,0.5122693019399874,0.4877306980600124,102.89082736864651,100.3962611214629,1.042431732514148,1.496516964511601,1.2004688744284964,1.5548923744299117,-0.43990208660925845,-0.756665838296378,-0.26316773654678616,0.0019031809778875793,0.17753496938716523,0.5884257781672684,1.1831696766961726,6.5288044863809285,0.995260164621788,1.0207803467731367,1.238538139809423,1.4880440667375876,1.8356573037920219,1.7254564316286358,3.441289829185925,0.8820611010244491,Stress
82.1198719564443,732.8703703703703,144.95046479649992,,,,,,,113.46455661340521,113.99824900355826,0.19778458873053686,0.15482213662978855,731.0,165.3099,0.2261421340629275,222.25,1.277495538015215,594.6,872.6,50.0,81.48148148148148,400.0,1022.9999999999999,27.0,195.3125,,,0.02803465375386785,0.009681785520388736,0.004228073522447378,0.04194451279670396,2.895607808583455,0.6683747619085669,0.23082364950367332,-4.637508940117693,80.60893491380861,189.3471181679981,0.42572042127564036,47950.347089466646,2.3489594344654,5.387761865128422,1779.0747984382162,0.6944444444444444,0.7047619047619048,0.9594594594594594,0.28,49.85412926391382,50.02593960617746,49.739045314123324,45.714285714285715,0.45304020209939466,0.5469597979006054,54.256596851321156,59.615869420754514,0.5344859191597283,0.46551408084027157,138.42892101466242,129.1888733027817,0.5219896163779164,0.4780103836220836,105.13406792084676,100.6076957097086,1.0331950512902561,0.7547001874130339,1.1187648079697592,1.1296932092330185,0.5957613915171827,0.4690225816280935,-0.4855195461117882,0.0004260963662433658,0.03483118644105812,0.6100832745839808,1.3682758556172123,6.544194099365657,1.0047722015434772,1.0362428514965851,1.2594846962744708,1.5772600059392712,1.8274327034599287,1.7206990435790013,2.959191416260146,0.8756335650952644,Stress
82.94999906152319,726.1192660550458,144.53640607451752,,,,,,,117.05447449798747,117.59930258068195,0.1990532586468522,0.16120557595715107,716.0,170.499,0.23812709497206702,230.0,1.2347789923827521,588.0,866.0,51.37614678899083,82.56880733944955,400.0,1022.9999999999999,27.25,195.3125,,,0.010641867545171067,0.004777360131822011,0.0019530044588064713,0.01737223213579955,2.2275623464694556,0.6125791701367499,0.2749997866985177,-5.343867158715455,83.15526431760885,187.69555430515396,0.44303267930584905,49033.58050422998,2.2571698357936407,5.397463717188271,1694.642973960643,0.6880733944954128,0.6981132075471698,0.9459459459459459,0.2692307692307692,50.26335590669676,50.39766305460746,50.1667733555897,46.22641509433962,0.46037914864889523,0.5396208513511048,56.422306187482434,61.08539296464303,0.5209748329033657,0.4790251670966342,135.47599775940031,129.90717892793285,0.5110325395581076,0.48896746044189254,103.77191962284175,101.50689723033312,1.0537986961154382,0.6611298445363993,1.1141636678844682,1.0925849723588736,0.6546525717942551,0.5716233459322031,-0.5326391187811618,0.0002838361924203536,0.0232389303516641,0.6397052473855602,1.4201959127955721,6.529652214685183,1.044849490052074,1.069965856743633,1.260791124444787,1.5760355875098135,1.8196704222117952,1.7326556626068224,3.4781454571691035,0.8072146442394499,Stress
82.6259678719672,727.8532110091743,143.01358558154624,,,,,,,106.04742125839532,106.53775634568261,0.1964868512199826,0.14569891243779734,716.0,170.499,0.23812709497206702,221.0,1.3485814542635517,595.4,862.4,47.706422018348626,81.65137614678899,400.0,1022.9999999999999,27.25,195.3125,,,0.005668407521475016,0.003782195670974511,0.001382912400609245,0.010833515593058772,1.4987081617632196,0.5232288145786088,0.34911988065977695,-5.577450572650438,75.33356996443229,187.67312902374482,0.4014083974424539,44416.109613356275,2.49122840072961,5.354510626185859,1870.1465163109822,0.6697247706422018,0.6792452830188679,0.9166666666666666,0.3333333333333333,49.39569736524053,49.65397615769566,49.192202282626816,46.22641509433962,0.4523487247380563,0.5476512752619437,50.668936455143076,55.751576818570875,0.5307392093084833,0.4692607906915166,136.7233470219566,128.56099617176582,0.5198603236838765,0.48013967631612336,103.103381958066,99.08624539872775,1.0701457288454033,0.6476105268302565,1.1663932151490393,1.1307099544632624,0.7047119716444188,0.46129599173303326,-0.5550998774841251,0.0001729408761609399,0.023873786860011736,0.6736636384818477,1.363304842895192,6.522726641270839,0.9865780810635517,0.9753475664467482,1.2436056063371297,1.4096490973791564,1.829663033868943,1.7014723068880504,2.4622919724710415,0.7451212100671846,Stress
82.94119082305046,725.5137614678899,140.30288761045324,,,,,,,105.20781903064612,105.69436956480523,0.1933841851966895,0.14501147272215104,715.0,164.5686,0.23016587412587414,210.0,1.333578520143871,595.4,850.0,48.62385321100918,82.56880733944955,400.0,1022.9999999999999,21.8,312.5,,,0.009950022815456195,0.006316819500374793,0.002401242918840132,0.018668085234671124,1.5751633895611288,0.5329964316306318,0.33837532992633546,-5.06453944110452,74.7372054525108,184.49927418221066,0.4050812979280378,43319.29594053927,2.468640258424492,5.343651499475011,1821.8493435852154,0.6422018348623854,0.6509433962264152,0.8985507246376812,0.2692307692307692,50.59538274605102,50.792386853670365,50.43719025951101,46.22641509433962,0.46365371777905307,0.5363462822209469,50.89204259999789,54.73632633416996,0.5369572316191125,0.4630427683808876,135.19620775889933,125.54667491166411,0.5266236695121964,0.4733763304878036,102.14698867902928,96.84532255595987,1.1593336801096148,0.5220710996723303,1.3062699745179405,1.1113147716654699,0.9679033768425036,0.8115476992531621,-0.8734265370652219,0.0001031305945311346,0.01760847019783397,0.6940646886571096,1.3121863889661687,6.5594238889772605,0.9831861730143552,0.7967048201329809,1.1441063666057185,1.540516109846909,1.8473751201484294,1.7217438485735075,2.7987390883538836,0.7451212100671846,Stress
82.23455967427772,731.8148148148148,138.69876914924944,,,,,,,104.21123407968652,104.7012636560786,0.18952714039322513,0.14240109925358246,731.0,148.26,0.20281805745554035,192.75,1.3309387454637718,599.8000000000001,852.0000000000001,48.148148148148145,84.25925925925925,400.0,1022.9999999999999,21.6,312.5,,,0.017783792144831116,0.01071483608151887,0.004520269153891797,0.03301889738024178,1.659735343549016,0.5385943673416781,0.3245061746952984,-4.536125948211983,74.03497353001379,181.46170523636582,0.4079922727143909,42205.76591243063,2.45102681319662,5.332341895826207,1779.0700204108564,0.6574074074074074,0.6698113207547169,0.9154929577464789,0.36,49.814723320158095,50.00746976522079,49.675888182573516,47.16981132075472,0.454813092396159,0.5451869076038411,49.929242386431405,54.66523333755246,0.5333764685432718,0.466623531456728,132.52625131345934,123.95621476994015,0.5221651235571332,0.4778348764428668,100.14024299072078,95.79517450253061,1.0831740751357977,0.3757896943236849,1.164456711971681,1.2061226752451017,0.6437671327044141,-0.16504113598542247,-0.3891242524667751,7.287206113451686e-05,0.009605041907392633,0.6476663527550564,1.2014696741078172,6.537204400271551,0.9367526887912699,0.9323904373426347,1.0405356074930483,1.4162266150365215,1.827015170519655,1.772063528219043,2.4851779527357647,0.8130883104456026,Stress
84.59374684034285,711.7837837837837,137.45732596670305,,,,,,,113.70560072557392,114.2179982574475,0.19311668669380366,0.1597473886256924,714.0,142.3296,0.19934117647058824,196.0,1.2088879095626381,588.0,831.0,48.64864864864865,83.78378378378379,346.0,1022.9999999999999,22.2,367.1875,,,0.014507300365477474,0.008427693816525835,0.0036660431421025276,0.026601037324105837,1.721384364608757,0.5453659640682873,0.31681823959882444,-4.7762321130159915,80.76432110139439,176.13698749923145,0.4585312957151989,44690.990866700355,2.1808762222875973,5.357190093692854,1536.5318716097663,0.6396396396396397,0.6513761467889908,0.9014084507042254,0.34615384615384615,49.164408310749785,49.55612224290113,48.812883346066066,46.788990825688074,0.4381170957947837,0.5618829042052167,53.461981690155596,60.54424419040307,0.5229143728226086,0.47708562717739134,127.36962018900846,121.66025734894754,0.5081812541668878,0.4918187458331123,97.67600430333646,96.0906439847275,0.9507825165034557,0.5919605275850768,1.0842096859583659,1.1344562845721755,0.5391763762668251,-0.20480122332324235,-0.4151183292257807,0.000171312045739836,0.026193562451332964,0.6663904610416451,1.282394766101739,6.553380843808093,1.0044186834727622,0.9491776733878655,1.1476158843100486,1.5412564137628781,1.8056725642605298,1.8005925778060985,2.3363536715095394,0.7957423987617241,Stress
