PPG_Rate_Mean,HRV_MeanNN,HRV_SDNN,HRV_SDANN1,HRV_SDNNI1,HRV_SDANN2,HRV_SDNNI2,HRV_SDANN5,HRV_SDNNI5,HRV_RMSSD,HRV_SDSD,HRV_CVNN,HRV_CVSD,HRV_MedianNN,HRV_MadNN,HRV_MCVNN,HRV_IQRNN,HRV_SDRMSSD,HRV_Prc20NN,HRV_Prc80NN,HRV_pNN50,HRV_pNN20,HRV_MinNN,HRV_MaxNN,HRV_HTI,HRV_TINN,HRV_ULF,HRV_VLF,HRV_LF,HRV_HF,HRV_VHF,HRV_TP,HRV_LFHF,HRV_LFn,HRV_HFn,HRV_LnHF,HRV_SD1,HRV_SD2,HRV_SD1SD2,HRV_S,HRV_CSI,HRV_CVI,HRV_CSI_Modified,HRV_PIP,HRV_IALS,HRV_PSS,HRV_PAS,HRV_GI,HRV_SI,HRV_AI,HRV_PI,HRV_C1d,HRV_C1a,HRV_SD1d,HRV_SD1a,HRV_C2d,HRV_C2a,HRV_SD2d,HRV_SD2a,HRV_Cd,HRV_Ca,HRV_SDNNd,HRV_SDNNa,HRV_DFA_alpha1,HRV_MFDFA_alpha1_Width,HRV_MFDFA_alpha1_Peak,HRV_MFDFA_alpha1_Mean,HRV_MFDFA_alpha1_Max,HRV_MFDFA_alpha1_Delta,HRV_MFDFA_alpha1_Asymmetry,HRV_MFDFA_alpha1_Fluctuation,HRV_MFDFA_alpha1_Increment,HRV_DFA_alpha2,HRV_MFDFA_alpha2_Width,HRV_MFDFA_alpha2_Peak,HRV_MFDFA_alpha2_Mean,HRV_MFDFA_alpha2_Max,HRV_MFDFA_alpha2_Delta,HRV_MFDFA_alpha2_Asymmetry,HRV_MFDFA_alpha2_Fluctuation,HRV_MFDFA_alpha2_Increment,HRV_ApEn,HRV_SampEn,HRV_ShanEn,HRV_FuzzyEn,HRV_MSEn,HRV_CMSEn,HRV_RCMSEn,HRV_CD,HRV_HFD,HRV_KFD,HRV_LZC,Labels
98.59205324174573,611.1627906976744,130.4525650558515,,,,,,,173.72088335171452,174.40220856362478,0.21344978300614972,0.2842464986348449,585.0,37.065,0.06335897435897435,62.0,0.7509319693691507,560.0,639.0,28.68217054263566,51.93798449612403,478.0,1739.0,10.75,156.25,,,0.048500035493053484,0.04849252771982746,0.016288480147262325,0.11328104336014326,1.0001548233012187,0.4281390253342044,0.4280727496979344,-3.0263455605407596,123.32098432924965,138.08209186298515,0.8930990446727696,53496.35756192967,1.1196966405516633,5.435294322924945,618.4402175173226,0.5581395348837209,0.5669291338582677,0.8472222222222222,0.16216216216216217,50.50301810865192,50.8048807043036,50.13810996564888,49.60629921259843,0.4838646044880731,0.5161353955119269,85.7831683286642,88.59760399170435,0.4677031199313776,0.5322968800686225,94.43271828715022,100.74286977328765,0.47487420234739197,0.5251257976526083,90.21166845703557,94.8648018055919,0.7444278131544686,2.4649680520611286,1.3249830438815375,1.4371095720727385,-0.9307856604764666,-0.7988812526146318,-0.45451197507511526,0.0021274223527483088,0.41040070005006185,0.4141545147939639,5.643510938535409,1.4296242732355506,2.311651723528968,-6.307110591054091,-5.5101583030313455,-0.3437094461409303,0.016368572906785128,1.8161356246108395,0.7677633299554887,0.5767278434648234,6.328753611878235,0.6177959020375702,0.6700654087517148,0.8562185365905182,0.7898039994175261,0.8007055219023196,1.8151250435389557,1.6851713898005853,0.9239601809472505,Relax
98.44665936097934,612.0077519379845,129.95248507411463,,,,,,,173.12908388685017,173.80841491701307,0.21233797229300927,0.2828870767381939,585.0,35.5824,0.06082461538461539,60.0,0.7506103663035961,562.0,637.8,26.356589147286826,50.3875968992248,478.0,1739.0,8.0625,132.8125,,,0.052332621044137315,0.04635852787165629,0.017030791935206326,0.11572194085099993,1.1288671889888375,0.4522273015755864,0.4006027511355528,-3.071350015293101,122.90110881510502,137.11081183910744,0.896363366000073,52939.20024788612,1.11561899775355,5.430747486093091,611.8537059404824,0.5581395348837209,0.5669291338582677,0.8472222222222222,0.16666666666666666,50.44333778695494,50.8213170065681,50.05245730958185,50.39370078740157,0.4844132782120565,0.5155867217879436,85.53939553782443,88.2488428689948,0.4674138871911721,0.5325861128088277,93.73947309498077,100.06141067891511,0.47498737457097295,0.5250126254290267,89.73315163611775,94.34019338217153,0.8512286272430828,3.2237927529578996,1.388138890051489,1.8729126556464373,-1.7829871543999385,-1.4415693772459708,-0.34962626237367217,0.004637807993389133,0.7408783612224513,0.8118098811525651,1.5327654134051474,-0.11729982583269072,0.649082880869883,2.6644253374758566,-1.8931957969226447,0.0,0.017408359469671775,0.478194158631503,0.7106515392195063,0.5438391252084753,6.34045729408232,0.5923118044905915,0.6252310856973601,0.8254016350167156,0.7494329101926661,0.7580967319607289,1.9033305353897716,1.6357604334429041,0.9239601809472505,Relax
100.5829095479841,597.469696969697,68.5308688894805,,,,,,,82.07467275839086,82.38951711733691,0.11470183213820183,0.137370435981381,584.5,34.8411,0.05960838323353293,53.75,0.8349819327482397,562.0,629.8,25.757575757575758,49.24242424242424,478.0,1210.0,7.764705882352941,132.8125,,,0.04650207616209448,0.05014825205817699,0.023834935246919587,0.12048526346719106,0.9272920641012058,0.3859565462522917,0.4162189683208245,-2.9927716194552563,58.25818625235406,77.72688645796764,0.7495242496797853,14225.846021852041,1.3341796485266806,4.860048213619145,414.8065202222579,0.5833333333333334,0.5859375,0.8666666666666667,0.16666666666666666,50.22797738464345,50.28429782484311,50.16808307383002,50.0,0.4906708489669091,0.509329151033091,40.80874717696987,41.577406956552366,0.5155396789550477,0.48446032104495246,55.80875313078513,54.10038772908079,0.5065941393896167,0.4934058606103833,48.88747678172174,48.24693110275329,0.7122147690736821,2.7599066533831063,1.2550425478381588,1.4889464425476764,-1.593720529362848,-1.3782575541626017,-0.4152493456897185,0.0016275322126138843,0.4580529756375636,0.3179007935876429,1.3104297964102474,0.10304274687223192,0.36692768324743696,1.1476172375367855,1.262029549031149,-0.2986271854485577,0.01267669436783238,0.45682876784300225,0.7443513562593744,1.002220442993044,6.301673664681879,0.8574696018029981,1.1656412958413989,1.070506981062888,1.2053158150033947,1.2487240457023292,1.804818822816026,1.7609019289827283,0.9605991980943345,Relax
100.31168245539712,598.9015151515151,66.63262156953436,,,,,,,78.8022454827892,79.10470550702345,0.11125806144049759,0.13157796981504238,585.0,31.1346,0.05322153846153846,46.5,0.8455675490121314,565.2,626.8,21.21212121212121,45.45454545454545,478.0,1210.0,7.764705882352941,132.8125,,,0.0457152584586628,0.043687589596352015,0.03180066297839013,0.12120351103340493,1.046412925982991,0.3771776747132614,0.3604482182394144,-3.130691208143813,55.93547368778111,76.19952715687478,0.7340658895773026,13390.274167745214,1.3622755316635546,4.833759579305381,415.21900548057226,0.5606060606060606,0.5590551181102362,0.8450704225352113,0.1388888888888889,50.112681827494356,50.144139427772046,50.075536827857434,51.181102362204726,0.4921455027333084,0.5078544972666916,39.24048145239026,39.86182866622384,0.5059637860100222,0.49403621398997755,54.201585819502455,53.55890246805295,0.5011251000080231,0.49887489999197693,47.31610344250821,47.209752266866396,0.9899454350946962,2.6531845029673677,1.337763489141963,1.719905673804719,-1.2752973937911953,-0.8134152427069585,-0.35596848457566316,0.0035668800909682374,0.473407820893001,0.7772281306855012,1.002232607384035,-0.22500447669853385,0.2761118269934837,0.9586642842127845,-1.3955478279946498,0.0,0.0018509364340189378,0.1218627509261369,0.7882137786475512,0.9285608244659693,6.250500274513975,0.7997202381084703,0.9611656054312308,1.0785133521663803,1.199827772390769,1.1563482258051874,1.829827501335148,1.709790304293425,1.0139658202106865,Relax
101.24547209527488,592.781954887218,38.21338380999608,,,,,,,42.2848386038965,42.44466468816075,0.064464485625691,0.07133287080566,584.0,26.686799999999998,0.04569657534246575,40.0,0.9037136021248703,566.4,620.0,18.796992481203006,42.857142857142854,478.0,740.0,7.388888888888889,132.8125,,,0.05176182618857261,0.03696496494678642,0.022074910492551655,0.11080170162791068,1.400294204609345,0.46715732184688696,0.33361369368604565,-3.2977847082546967,30.01291022618766,44.498034054305435,0.6744772182420438,4195.645687682442,1.482629765622623,4.329768915893838,263.89643920240945,0.556390977443609,0.5546875,0.8450704225352113,0.14705882352941177,49.427734894862915,49.487201404762466,49.365581933453065,50.78125,0.4715211192414106,0.5284788807585893,20.6096953394448,21.818998654614656,0.49756158021912167,0.5024384197808786,31.38804331615514,31.541492854354477,0.4894190011489138,0.5105809988510862,26.55154237705942,27.11949920049567,1.00381540577929,1.619825504778138,1.0376920075704166,1.7288379431892746,-1.0460349968348623,-1.8762545668766937,-0.07332074746315216,0.001204365070702122,0.19854483827706468,1.256344718446088,4.845033957429268,1.5186222230260444,2.647626463376391,-7.061454772364684,-5.2865672991261805,-0.26697702219008057,0.004235762689118851,1.0308071825344018,0.73225511996566,1.4500101755059984,6.159353747560803,1.0295053235417229,1.1708372136329745,1.23151959964793,1.5114848416549083,1.6903051814913175,1.7587847113594115,2.5305516162380597,1.060944727143036,Relax
101.06924921798833,594.2255639097745,39.628314131812324,,,,,,,43.49425249386406,43.6579420416021,0.06668900925613724,0.07319485248613118,586.0,29.651999999999997,0.05060068259385665,49.0,0.911116109821703,566.4,629.0,18.796992481203006,41.35338345864661,478.0,740.0,7.823529411764706,132.8125,,,0.05187486574048651,0.016883328387688256,0.010113936281954497,0.07887213041012926,3.0725497099443353,0.6577084385922003,0.21405949477839883,-4.081428629886204,30.870826870266107,46.60536448568336,0.6623878433511506,4519.95429834829,1.5096895422186538,4.362104153606029,281.4385255012993,0.556390977443609,0.5546875,0.8450704225352113,0.1875,49.27152317880795,49.21374405588331,49.32669073944698,50.0,0.48346288309285534,0.5165371169071448,21.46593253371455,22.188040929864528,0.5012379237009226,0.4987620762990775,32.99573978522215,32.91414824766553,0.49581697417315573,0.5041830258268442,27.834377157717007,28.06822327093975,0.9638960278486685,1.977438063016905,1.3417077670646798,1.6668575811676813,-1.0776075324735128,-1.4905932474493757,-0.3355701651626285,0.0010811080564375318,0.2597273929431736,1.2997116091226353,1.1412017692119543,0.5194303640443532,0.7291107245166581,1.0086820503301923,3.411442961273543,-0.3162635511710627,0.003731853048665575,0.18278776642977917,0.6841517086207025,1.4226620052907655,6.22224493535479,0.9916817272438367,1.1667266730377241,1.3238142006133782,1.4754889003350915,1.6813565360394556,1.750479503303047,2.8256127739764856,0.9548502544287325,Relax
101.39007850236354,592.0902255639098,37.41464197396047,,,,,,,40.23491624010773,40.386677730964784,0.06319077795673214,0.0679540287998975,584.0,31.1346,0.05331267123287671,44.0,0.9299048058329025,564.0,626.0,15.789473684210526,38.34586466165413,478.0,740.0,7.388888888888889,132.8125,,,0.04328679382204163,0.013886627473703977,0.00972680703339488,0.06690022832914048,3.1171566965420836,0.6470350685363314,0.2075721984891227,-4.276828954166293,28.557693693160925,44.65900825448709,0.639460991395652,4006.6561980283627,1.563817048194692,4.309752188180616,279.35407385533756,0.556390977443609,0.5519999999999999,0.8405797101449275,0.15151515151515152,49.329054842473745,49.35141800226376,49.30850324933637,49.6,0.47730803788701287,0.5226919621129871,19.73053200321195,20.64725551508828,0.513661884072036,0.48633811592796433,32.00720449915883,31.14427521107809,0.503110285976654,0.49688971402334603,26.587168267613084,26.4222920914208,0.8044896576963816,2.0664707328949365,0.7042426501960799,1.60671447897984,-0.3427085491470745,-0.8806874588190545,-0.06327867875511624,0.00380306399092622,0.41967178447856524,1.1350923208822532,1.6272661854811428,-0.4104514784909514,0.40318161424961996,1.1634447722158763,-3.216525185853153,0.0,0.0007360735285427138,0.14188064268317527,0.7318452541337366,1.2927683031090673,6.119916811486843,0.9878844475777406,1.2050261015126251,1.24580496873981,1.517077259637458,1.6330566939638684,1.7259113435392268,2.7737684925290647,0.9548502544287325,Relax
101.42134816682575,591.7593984962406,33.940712652992836,,,,,,,33.480433001073834,33.60748239611021,0.05735559543159239,0.05657777989864327,583.0,25.2042,0.04323190394511149,39.0,1.0137477210018233,566.4,619.6,12.030075187969924,36.09022556390977,511.0,740.0,7.0,101.5625,,,0.049819978924276496,0.023222529062348455,0.015381726433450657,0.08842423442007562,2.1453295974145843,0.5634199634412158,0.2626262948687297,-3.7626323912296615,23.764078700897045,41.88636550337255,0.5673464005604315,3127.1126959027283,1.762591600144441,4.202113642732311,295.31422398729734,0.5488721804511278,0.5396825396825397,0.8235294117647058,0.16129032258064516,50.40376850605654,50.40240102043397,50.40319837737549,48.41269841269841,0.5170176529426076,0.48298234705739246,17.087560762859848,16.515549000218734,0.509513187042619,0.490486812957381,29.89856829554809,29.335017111952833,0.5113405861859164,0.48865941381408345,24.3506582965223,23.8044805418769,1.054989008009959,1.7423628060958447,1.1817461136320313,1.869518760235587,-0.6419346383317901,-1.528631336687201,-0.10526438914024756,0.003219640111706778,0.3114351690061288,1.0677553451617374,3.833911126943675,1.4247424397730004,1.6601744872472948,-3.9478282882164564,-1.4909468731916604,-0.43859220005916605,0.0005686580562930438,0.5219292391320313,0.7499354134820471,1.4951487660319727,6.0992033716209555,1.0299938651185723,1.0667567285495287,1.322620462192962,1.721109546712362,1.6372435906894138,1.678004197759809,2.4666075724155925,1.0078974907858844,Relax
101.57161124792904,590.9626865671642,34.54068250071656,,,,,,,34.037020977054986,34.160502975589026,0.05844816142514767,0.05759588845578765,583.0,30.3933,0.052132590051457976,42.75,1.0147974619753326,563.6,618.4,12.686567164179104,37.3134328358209,511.0,740.0,6.7,101.5625,,,0.053914510203724716,0.017918896693251026,0.010898475980331633,0.08273188287730737,3.0088074688231825,0.651677543513433,0.2165899780115608,-4.021899441787742,24.155123302782233,42.389505621447306,0.5698373441411583,3216.7512838065963,1.7548867414212206,4.214387592919683,297.55512556191275,0.5522388059701493,0.5433070866141733,0.8260869565217391,0.20689655172413793,48.704493276484094,48.68930405332396,48.7222261839017,51.96850393700787,0.5063829234892884,0.4936170765107119,17.191545667107494,16.973464138132936,0.49589783359651535,0.5041021664034846,29.8506956854194,30.09661366212479,0.4984685342200694,0.5015314657799305,24.35788655987788,24.432607707484696,0.9773620231875637,2.393819482742767,1.4387413688285955,1.8735286581947437,-1.1698091475561476,-1.553701340252882,-0.31837089534087093,0.0027981323749220466,0.45121854640649506,1.5226973208388412,0.9628521995810071,2.132843149415498,1.9057514639293462,-1.589624376010093,-2.589624376010093,-0.7358531097347781,0.0008108859511773567,0.09696910392756704,0.7612188376007318,1.449269160281279,6.134790776133357,1.0143435625673665,1.2059578532341972,1.1921823630559345,1.6250229757798276,1.651014200127172,1.6661088129191326,2.9396701019978884,0.8964441510282248,Relax
101.83314766058932,589.4626865671642,35.30802305392089,,,,,,,34.276408511556866,34.40578650987953,0.05989865662158049,0.05814856358622348,582.0,28.9107,0.049674742268041236,41.75,1.0300969263456001,562.6,618.0,12.686567164179104,37.3134328358209,511.0,740.0,7.052631578947368,101.5625,,,0.04759046027005691,0.012578792347438915,0.006832523895374555,0.06700177651287038,3.783388655727868,0.7102865438338825,0.18773819146455992,-4.375743030136774,24.328564953192455,43.74429299105031,0.5561540326682125,3343.3956014478417,1.7980630207829038,4.231157876731152,314.61998239000127,0.5597014925373134,0.5511811023622047,0.8428571428571429,0.20689655172413793,50.25789813023853,50.2636296144314,50.251290719299014,48.031496062992126,0.5077180048381522,0.49228199516184773,17.335263587161393,17.069710015111564,0.5286068917540658,0.4713931082459341,31.804444329240884,30.033988915811207,0.5236721097300807,0.47632789026991923,25.61282923388342,24.427602115179774,1.1248633562071408,2.161099556787411,1.1017363221698773,2.099453422522126,-1.2123458785671666,-2.0004264544097263,-0.03832895054802182,0.004206451588668566,0.44600588970322946,1.082969357206194,1.497153689457897,0.7983084042835777,0.9436536560651816,0.968675460964822,2.0483593677277145,-0.4029189502687384,0.002540570598112701,0.24282874250698427,0.7645876475946345,1.3521354423085719,6.153374544757785,1.0269925969894302,1.216006043267979,1.0919210327856266,1.4679759335498164,1.6784932328943225,1.6731287203934928,2.4062766984962116,1.0019081687962512,Relax
101.95352493018652,588.7835820895523,35.612864521166856,,,,,,,34.34817305885719,34.4779673803083,0.06048549179102321,0.058337518408644984,580.0,28.1694,0.04856793103448276,42.75,1.036819759238506,562.0,618.0,12.686567164179104,36.56716417910448,511.0,740.0,6.7,101.5625,,,0.03890309028051708,0.008005410849025733,0.004762313574367048,0.051670814703909856,4.859599465185679,0.7529025912102242,0.15493099721572562,-4.827637609799808,24.379604536144583,44.27114743632958,0.5506883364883899,3390.762001767912,1.8159091699249796,4.237267417597061,321.56953037092654,0.5522388059701493,0.5433070866141733,0.8405797101449275,0.2,50.145583953413144,50.139001028891514,50.15123373259187,49.60629921259843,0.5115701057273776,0.4884298942726224,17.43733368553249,17.03839247645793,0.5241859180974842,0.47581408190251595,32.05261397834945,30.537917946123134,0.521250310585431,0.4787496894145691,25.80145992871032,24.727224375836926,1.04140401755148,1.8426104592543189,1.40334814142098,1.790476099865601,-0.830539514899618,-1.504839422299853,-0.28990244166893164,0.0016603528274604918,0.27007837483145075,1.4623161664977138,1.2384496496293589,2.163098150122484,1.991008628768155,-2.0152506727970234,-3.0152506727970234,-0.6389556058301051,0.001431487767505914,0.15708718531836524,0.7081583915263274,1.159855913908828,6.086356261240276,1.0188542620082137,1.3253760916943464,1.1929937056563917,1.4621151664493957,1.6013330585929015,1.679120534635665,2.6512685767493855,1.0019081687962512,Relax
101.60830290308392,590.723880597015,37.66799798298001,,,,,,,35.56335023165349,35.69688343397874,0.06376582904505378,0.06020300075851241,580.0,28.1694,0.04856793103448276,51.0,1.0591802442013256,562.0,623.0,14.17910447761194,38.80597014925373,511.0,740.0,6.380952380952381,93.75,,,0.042106528247723526,0.007498585107915716,0.00559469278859461,0.05519980614423385,5.615263098537709,0.7628021036469157,0.13584441018365814,-4.893040928514856,25.2415083433921,46.89043039870311,0.5383083100062614,3718.342538223001,1.8576714893893582,4.277319504974806,348.4280627074674,0.5597014925373134,0.5511811023622047,0.8285714285714286,0.21428571428571427,50.52469135802469,50.4905662728661,50.55672533022773,48.818897637795274,0.5264844363065655,0.4735155636934345,18.315521650592792,17.369753404505584,0.5190771777806443,0.4809228222193558,33.78315349449359,32.51785667818693,0.5207414441362751,0.47925855586372484,27.173146609896392,26.068365275525426,1.0088942790985815,1.9722460635833416,1.3478394862969307,1.7939477823199468,-1.1549873675239795,-1.7490270217523918,-0.27380697862188197,0.001582058310645315,0.288430801286514,1.2196032440210127,2.1993892060423352,1.2196032440210127,1.9386764690711784,-3.599389035284286,-3.371821031322952,-0.17305776391251212,0.0014704551971389155,0.22521826961885888,0.7063338000224979,1.1088687888352986,6.105878067320467,0.9796954340415636,1.376533340579158,1.2424040619183423,1.5450014104639411,1.573837840230802,1.687945936679277,2.907084328957739,0.8964441510282248,Relax
101.68664069450547,590.0149253731344,35.944607567092504,,,,,,,32.01961335022246,32.11032935536622,0.060921522526503194,0.05426915824201018,579.5,28.1694,0.04860983606557377,48.0,1.1225809373129978,562.6,620.4,11.940298507462686,34.32835820895522,520.0,740.0,5.826086956521739,78.125,,,0.04648175456618747,0.008632878999929665,0.006766108232252967,0.0618807417983701,5.384270365258933,0.7511505714918849,0.13950833084804826,-4.752177225820296,22.70543163331291,43.66931351431545,0.5199402007056908,3114.985287954555,1.9232980997482907,4.200426109793177,335.95643079758105,0.5447761194029851,0.5354330708661417,0.8088235294117647,0.2222222222222222,46.77363097314266,47.00108657218174,46.51541789229712,51.181102362204726,0.4844051364413056,0.5155948635586942,15.81773553881078,16.31902589190317,0.4459057337137388,0.5540942662862613,29.16069652534137,32.506348933224075,0.4541108966534074,0.5458891033465925,23.45790889464376,25.719383031374644,1.1256073816874428,2.7004981567712076,1.5168032870515977,2.053634879142333,-1.5786138876641402,-1.539343865544414,-0.3012101616345534,0.0035602396399706175,0.5283143145649059,1.362253829349388,0.5035022896373942,0.8587515397119938,1.110502684530691,0.9880605450073114,-0.5386420825081772,0.0,0.0005949045344684997,0.0337224276326919,0.7459279095391285,1.1016107916643663,6.031251201648826,0.9678421018259488,1.233798109522699,1.252933041637496,1.5397413390141266,1.5959866922329025,1.6349279836133928,2.105227474867254,0.7909801332601983,Relax
102.7972986509323,584.1176470588235,33.47084055944803,,,,,,,35.88345332074691,36.0168761500274,0.05730153972916581,0.06143189390258786,576.0,28.1694,0.04890520833333333,42.25,0.9327653127547797,560.0,614.0,14.705882352941178,37.5,487.0,696.0,5.913043478260869,93.75,,,0.04298182138522936,0.011340176145353004,0.0065834786095109185,0.060905476140093284,3.7902251988248454,0.7057135763352974,0.18619304640634626,-4.479403447703256,25.467777362840405,40.02464898356512,0.6363023289298041,3202.347440602933,1.5715799778415056,4.212438559141203,251.60774785082126,0.5588235294117647,0.5503875968992248,0.8309859154929577,0.2692307692307692,50.26323939300094,50.25212987205254,50.27472703073384,50.3875968992248,0.5195623284952455,0.48043767150475464,18.357458120794295,17.652744913612572,0.47296665250821607,0.527033347491784,27.525980148837345,29.056719413991196,0.4863954466803968,0.5136045533196032,23.39525434581663,24.04071906254561,1.017155842805664,2.019462717596891,1.3494484703452683,1.7475295849416135,-1.1128879974699242,-1.4646467809622141,-0.30287771042881567,0.0014705196506136263,0.28252781735756993,1.4758039771960034,1.3594075360328763,1.6605029695780693,1.977128169703098,-2.6139149028149244,-3.6139149028149244,-0.26708588724686066,0.002404439754124067,0.16414766033265166,0.6801768770766747,1.1863178690872151,6.119457396458101,1.0462663051468788,1.3160323827625906,1.1566728312869279,1.8963658808613044,1.6444383371813458,1.7075560992688341,3.25396059802813,0.7817054604320227,Relax
102.41224879502296,586.1185185185185,33.39967196457283,,,,,,,34.93875238056516,35.069535107725315,0.056984502125942575,0.059610388132551845,580.0,29.651999999999997,0.05112413793103448,47.0,0.9559491879037887,561.0,618.0,14.074074074074074,39.25925925925926,487.0,696.0,5.625,93.75,,,0.052842065162093145,0.009154175901077225,0.006041539845770002,0.06803778090894037,5.772454640714836,0.7766576813082029,0.1345454801550463,-4.6935451211741945,24.79790608773227,40.19666053726489,0.6169145833580632,3131.5176069272466,1.6209699478275916,4.202724967822477,260.6303149357347,0.562962962962963,0.5546875,0.8450704225352113,0.25925925925925924,50.315855969677834,50.33256498669868,50.30039779651627,50.0,0.5204981170831906,0.4795018829168094,17.89075032994483,17.171733198854202,0.4781912455358817,0.5218087544641182,27.79654285806573,29.036592835383146,0.4898540774052195,0.5101459225947803,23.374417021914216,23.853638554112194,1.011075498533944,2.514261058915639,1.4574991335572314,1.8487848078992557,-0.966261293972293,-0.9583631085059334,-0.3443734897955347,0.0035033998727031514,0.49201411595638006,1.4475164240242078,0.9241962515031705,0.721967260361966,1.1840653861135513,1.0213893765584023,-2.836463003286789,0.0,0.0009292123112818526,0.0759964745881054,0.7119706137840449,1.3406243242867022,6.133229834197095,1.0754295156838871,0.9535062778958603,1.222576278922001,1.8996044023015872,1.7031287048253956,1.6907216335957078,2.631130869216562,0.8911545566656601,Relax
102.559976050115,585.3925925925926,33.07817432027698,,,,,,,33.8974529047956,34.02450894674962,0.056505966660391156,0.05790550364614322,577.0,29.651999999999997,0.051389948006932404,48.0,0.9758306741565613,559.8,618.0,13.333333333333334,36.2962962962963,487.0,696.0,5.625,93.75,,,0.048799009712793655,0.010805341559885717,0.005077092223986522,0.0646814434966659,4.51619316634631,0.7544514635841278,0.16705473742933236,-4.527714678242422,24.058961002789008,39.99638387032355,0.6015284051876559,3023.0648859994326,1.662431884140259,4.187417578783368,265.96505518535616,0.562962962962963,0.5546875,0.8450704225352113,0.2222222222222222,50.21430926475436,50.199202734128434,50.230635716451566,50.0,0.5196108358067426,0.48038916419325717,17.342741325745745,16.67536114070494,0.48005758987854263,0.5199424101214575,27.71196986941414,28.8402054198468,0.49056684843828585,0.5094331515617143,23.116270792831685,23.556582072022813,1.066785220731986,1.8167724845845723,1.4685324716359713,1.594326772350916,-0.16292925772765443,-0.25809135282428874,-0.4307594639492192,0.0016941415853101666,0.2556656995273874,1.5243742224776478,2.734146120130551,1.7147748413574413,2.7525473182857865,-6.192775562857301,-7.192775562857301,-0.12044000893456516,0.004889052293662871,0.5253087646571869,0.7111826064280353,1.2671517059474677,6.098199790099315,1.0557622654687662,0.993162883799831,1.2473566325514114,2.023019449807207,1.6456226672996417,1.6720882994045123,2.765763841269535,0.8387337003912095,Relax
102.15816496206966,587.4179104477612,36.39100494234427,,,,,,,35.43425554693387,35.56216177615846,0.0619507922640716,0.06032205507646846,578.0,29.651999999999997,0.051301038062283734,46.75,1.0270006912983722,561.0,618.0,14.925373134328357,37.3134328358209,487.0,700.0,5.583333333333333,85.9375,,,0.06241740729708905,0.014545418111688038,0.006334331392973805,0.08329715680175089,4.291207500383454,0.749334187307784,0.17462082344906996,-4.230479241371265,25.146245745574685,44.51619881757247,0.5648785478882435,3516.746804650589,1.7702920454997373,4.253111211488445,315.22669065053344,0.5671641791044776,0.5590551181102362,0.8309859154929577,0.28,51.38667516735735,51.30326364273905,51.47249955503705,48.818897637795274,0.5315312617894163,0.4684687382105836,18.336294526694783,17.214225090155683,0.5000317325078878,0.49996826749211226,31.478704907262028,31.476707174149563,0.5076534482802797,0.49234655171972014,25.75974145452725,25.36841185393465,1.0962430556061595,1.595209559183166,1.4742627864669227,1.69130127436594,-0.1377757776386872,-0.7288763698120189,-0.3639435886968025,0.0019118405375379384,0.23307323517568226,1.1136237834746305,2.6518936783660205,1.171963956366707,2.325569306270501,-5.729715165801986,-6.348551649443276,-0.06498808405675045,0.0016701942952103636,0.3652462282780795,0.7118717149392637,1.0833448165373212,6.2412434814056725,0.9681833975471649,1.048533300101616,1.183272390374079,1.7479836226017058,1.6108792101053204,1.6607022752367764,3.086836798046512,0.8437121421442116,Relax
101.84325266047303,589.2666666666667,37.41900706261777,,,,,,,36.08882077700277,36.223235217337965,0.06350097363268091,0.0612436148495352,581.0,32.6172,0.05613975903614457,49.5,1.036858679695698,561.0,619.2,15.555555555555555,39.25925925925926,487.0,700.0,6.75,117.1875,,,0.04875491754422065,0.008613877162826293,0.0042531439275746786,0.06162193863462162,5.660043279305797,0.7911941529997277,0.13978588395118552,-4.7543807526299435,25.61369525869504,46.34083766320074,0.5527240453625826,3728.945111219498,1.809221090325477,4.278556100705793,335.36328337444786,0.5481481481481482,0.5426356589147288,0.8142857142857143,0.2692307692307692,49.445812807881765,49.412017780395715,49.48136966989489,50.3875968992248,0.5107780107952007,0.4892219892047995,18.30629128884056,17.915843368622717,0.46920938864007883,0.530790611359921,31.74294573395437,33.76179247993731,0.47893736750337873,0.5210626324966213,25.910759392775926,27.02624719663622,1.0861289855097112,1.382554249327708,1.4787030469452638,1.4827666177137535,0.49427546468734995,0.13231708949313026,-0.49706082363822923,0.0019340841478597927,0.1924911005650491,1.2103333084915755,1.1889397666182742,1.3856109003709598,1.1143557705115876,-0.14963569136728339,0.7167881553279969,-0.7281487569642899,0.0004205387956784401,0.05829928417874479,0.6353982658573316,1.01966908632799,6.306155596922625,0.9582831221191545,1.5770386048522902,1.3191586853372919,1.9357513849288663,1.645058233530996,1.6388974323011514,3.030717412121879,0.8387337003912095,Relax
102.12956420825076,587.7014925373135,37.723176468430715,,,,,,,35.1208440133566,35.25316117062716,0.06418764789173247,0.059759664488391206,579.0,32.6172,0.05633367875647668,50.5,1.0740965238217064,559.6,618.0,13.432835820895523,37.3134328358209,487.0,700.0,6.380952380952381,93.75,,,0.049359761859343605,0.0067089545862918255,0.0037225380286596064,0.059791254474295036,7.357295570340973,0.8255348092849256,0.1122062857733832,-5.0043121394969114,24.927749322012755,47.369613349213154,0.526239239873948,3709.6486735195385,1.9002763842535448,4.276302891173421,360.0614303149249,0.5447761194029851,0.5426356589147288,0.8142857142857143,0.28,49.613650998068266,49.610562198895465,49.62002869352059,51.162790697674424,0.5216333845366102,0.4783666154633897,18.004103067710073,17.241269200275358,0.4684640041749229,0.531535995825077,32.421862001378415,34.53553435546536,0.47999510353917285,0.5200048964608273,26.223318467626793,27.29436294231734,1.2097663395433718,2.4627963020045414,1.660221607555565,2.1907602840605485,-1.2029973861481746,-1.7011564551256262,-0.2845787424347021,0.0038594472960676203,0.5191276191801643,1.6371817581881118,1.0254246088303465,2.2661338869126837,1.7534215824975106,2.4859075445439256,1.495545724564942,-1.0,0.0012104619406423888,0.10166226813345171,0.6338163466851525,1.039771788645176,6.254193761207984,0.9412334122342435,1.2324647340689774,1.0807840602256287,1.5864000478080718,1.6319937308610388,1.6037177375764504,3.0510367578554547,0.7909801332601983,Relax
102.16511637812019,587.6148148148148,38.399313035130305,,,,,,,37.97367509209505,38.1161659307853,0.06534776194713834,0.06462341339038967,580.0,32.6172,0.056236551724137926,52.5,1.0112087634921556,558.0,618.2,14.814814814814813,40.0,487.0,700.0,6.428571428571429,109.375,,,0.04976627904065785,0.006907167567490224,0.004156928677799002,0.06083037528594708,7.205019793481112,0.818115601074629,0.11354800188263683,-4.975195628638206,26.95219940248994,47.31097384315931,0.5696817717563629,4005.9541229911983,1.7553659772489125,4.309676081318286,332.1922953391803,0.5703703703703704,0.5692307692307692,0.8243243243243243,0.32,50.000000000000014,50.00545218990508,49.996104975076605,48.46153846153846,0.5028308526714554,0.49716914732854445,19.111957442743353,19.004055760240913,0.47723874429163077,0.5227612557083694,32.68358856410739,34.206889431227935,0.48350930697191846,0.5164906930280817,26.77203651873615,27.67006884612504,1.1366749335406456,2.6798002768463647,1.6119760593259607,2.2309548527760183,-1.416636960113621,-1.9221517965387624,-0.26902055022604787,0.005239965879777507,0.6399885566225822,1.315835373691751,1.1949613541690942,1.3734457769481399,1.1001106728690222,0.9718792115749646,2.169618510639014,-0.7287397020208899,0.0006147668473990431,0.10140943031823214,0.6284705608948182,1.0790421924740123,6.257340111990899,0.9878694784748071,1.0557957786316496,1.1918887517407237,1.8353550648012944,1.6521284031238912,1.6503147674392777,2.955407917738556,0.8387337003912095,Relax
102.12791481019151,587.7910447761194,39.20604422998313,,,,,,,40.83747357660977,40.98919829480956,0.06670064911403356,0.06947617514684004,580.0,34.099799999999995,0.058792758620689646,53.75,0.9600506788558766,557.6,619.4,17.16417910447761,43.28358208955223,487.0,700.0,6.7,78.125,,,0.04877279337037841,0.004613654334356838,0.002318392321674439,0.055704840026409685,10.57140172101288,0.8755575520413524,0.08282322204263584,-5.378735038734665,28.983740069659913,47.247266264988234,0.6134479803996155,4302.104784881685,1.6301300712549007,4.340651094102889,308.07675809257813,0.582089552238806,0.5813953488372093,0.84,0.3076923076923077,49.164870689655174,49.19815516697286,49.13527428905275,51.93798449612403,0.5054507583271718,0.4945492416728283,20.60735011562328,20.383910024300732,0.45279322655240206,0.5472067734475978,31.792643922154998,34.95042148463672,0.4671924203299704,0.5328075796700298,26.790250897936904,28.609751395569166,0.9944970794379957,1.7695542577649026,1.4060971711397603,1.5750615834721928,-0.022480874274015683,-0.34750100130930894,-0.40451583409154745,0.002483726726778354,0.28418766367079207,1.4087419806827801,1.665682294603525,2.2875499178311793,1.4547087705294168,3.1374820609846896,2.0585050231493582,-1.0,0.0021259522239446137,0.23964524091936656,0.6075174171245985,1.1404593986036098,6.286019600808662,1.0196353690636497,1.2366119371007274,1.2629345180588283,1.8628665961642843,1.6548411049585132,1.7023841680662275,2.8208918794425744,0.8437121421442116,Relax
102.58104912165452,585.2222222222222,37.21973210155391,,,,,,,38.64717942634288,38.79109746461497,0.06359931439414947,0.06603846873686842,576.0,28.1694,0.04890520833333333,45.5,0.9630646441479767,558.0,614.2,14.814814814814813,42.22222222222222,487.0,700.0,5.625,109.375,,,0.05571972318283836,0.005934038003667497,0.004852046843886756,0.06650580803039262,9.389849399077175,0.8378174002092403,0.0892258613105744,-5.127050352741111,27.42944806689754,45.07781305880937,0.6084911002916792,3884.452183027709,1.643409409801806,4.296299889684659,296.32520861653614,0.5703703703703704,0.5725190839694657,0.84,0.3076923076923077,50.557302086310365,50.56093547971084,50.55284541107452,49.61832061068702,0.5109696566954628,0.4890303433045373,19.60771292157853,19.182150224050616,0.46054033310454423,0.5394596668954559,30.591211282518405,33.10871520360286,0.47416751803365065,0.5258324819663492,25.693234651817576,27.056809768072515,1.0843452662591466,1.5410056247160444,1.4506250402761136,1.603026153729897,-0.018078401218467377,-0.48655575330122147,-0.40110281817961185,0.0015583018031957673,0.20585075305484266,1.1944350389177174,1.3843958502634002,0.1446114263974887,0.8368093515291888,1.7688569851500988,-0.39997492621621156,0.0,0.0004177815239278088,0.11624483342883356,0.6390878050633004,1.1146639976786177,6.190528630445315,0.9818263714447971,1.1020479154545013,1.2357603030377224,1.6583015657786344,1.6297990504077746,1.6763584493975616,3.127769318860495,0.8387337003912095,Relax
102.09251734082113,587.9402985074627,37.950850920954444,,,,,,,38.94260283788789,39.08926316033423,0.06454881731579884,0.06623564150432801,581.0,33.3585,0.05741566265060241,50.5,0.9745329832969317,558.6,618.0,14.925373134328357,42.53731343283582,487.0,700.0,5.826086956521739,85.9375,,,0.044279703238834185,0.0037634627145152802,0.002997708197009821,0.05104087415035929,11.765681394438165,0.8675341865892101,0.07373429192118937,-5.58241581066902,27.64028305225783,46.16754224740192,0.5986951374656139,4008.9359172729414,1.6702991847122444,4.309999224082809,308.4544327040141,0.5671641791044776,0.5692307692307692,0.8378378378378378,0.3076923076923077,49.60272417707151,49.614371230387746,49.59441936576646,53.84615384615385,0.5111007545935012,0.4888992454064989,19.760689473923943,19.326736073965705,0.4493435776557527,0.550656422344247,30.947532286086865,34.25919150486847,0.46563913055741424,0.5343608694425859,25.963769016489472,27.813799900768494,1.123156501943495,1.6491447753938577,1.5228131252323442,1.7511187420054004,-0.014481339320715492,-0.6248257228055536,-0.3615612042196047,0.002760411796451694,0.2766842228299062,1.2500907930281069,1.2084900458790728,1.3962189864621393,1.7559005272741388,-0.4638209164720486,-1.216696906846904,-0.2023711183732903,0.000855699583628213,0.11276445337688953,0.6642909011363591,1.2429300475791294,6.217964261414899,0.9659484988933911,1.675655014561761,1.130948861137509,1.9792359720133332,1.6716812461537485,1.677145625258725,3.059921203117912,0.7909801332601983,Relax
102.17143322522874,587.5223880597015,37.41068891883858,,,,,,,37.42320457418771,37.5642549681222,0.06367534187486498,0.06369664430623352,581.5,30.3933,0.052267067927773,44.0,0.999665564307185,559.6,615.0,13.432835820895523,37.3134328358209,487.0,700.0,5.583333333333333,78.125,,,0.05031039937782476,0.005749394793833231,0.00515142306337384,0.06121121723503184,8.750555698799364,0.8219147020822775,0.09392714364358025,-5.158660682958784,26.561939418179662,45.9535208287137,0.578017504190509,3834.673974277925,1.7300514132361113,4.290698555902343,318.0078146115648,0.5671641791044776,0.5658914728682171,0.8493150684931506,0.25,50.36855036855036,50.382260521864254,50.35506142951116,51.93798449612403,0.517142151546713,0.4828578484532873,19.10160234433782,18.457568046246454,0.4527699261669503,0.5472300738330497,30.921288132395805,33.9941173850474,0.46889116121727975,0.5311088387827201,25.700168013924092,27.35216476780403,1.1225710974076077,1.7055900613681731,1.5832213746048955,1.663016518063176,0.20751449079865925,-0.15214758193505018,-0.45321552038461627,0.0026748809531099483,0.286376609506986,1.5647864541479566,0.9220245180892781,2.2512707008747066,1.7902584418300675,2.6723992037064725,1.6723992037064725,-1.0,0.001621366861846654,0.10470282851988422,0.6954427597270794,1.1935740971050373,6.137703906921144,0.9061272721125493,1.4173123609064047,1.2032539475262034,1.717484772458521,1.6413229564089913,1.6584799831375132,2.9024629346476134,0.8437121421442116,Relax
101.83837439606526,589.5074626865671,36.46622626726392,,,,,,,37.112509290866626,37.2519379474204,0.061858803451064204,0.06295511361592182,585.0,29.651999999999997,0.05068717948717948,42.25,0.9825858440738268,563.0,615.0,13.432835820895523,35.82089552238806,487.0,700.0,6.380952380952381,78.125,,,0.04919278859813408,0.00587345144111439,0.003776141979035173,0.058842382018283644,8.37544825071382,0.8360094698893865,0.09981668381965532,-5.1373128381875794,26.34109793496144,44.308880434911764,0.5944880050322106,3666.6927719945324,1.6821197257727984,4.271244632407485,298.13136722589394,0.5522388059701493,0.5503875968992248,0.8169014084507042,0.25925925925925924,50.53763440860215,50.58189391967278,50.49562069039655,52.71317829457365,0.5212516240324042,0.4787483759675958,19.01813329271288,18.22627141510215,0.44700206683074595,0.5529979331692539,29.624125734487613,32.94978087730743,0.466391449574559,0.533608550425441,24.89255129021657,26.62597443812662,1.0728519135398518,2.104827987179296,1.5309773021452726,1.708445501464762,-0.47799102885239897,-0.5242617965580001,-0.4156851769358519,0.0020267026608055917,0.33493956451966184,1.2176001651753583,1.437923031373578,0.2261247678251772,0.9450862835119662,1.1916569979699512,-3.108478348455338,0.0,0.009036747691095302,0.4289680781083629,0.7024220407966415,1.1432165949048634,6.159008033579902,0.8758287498283343,1.1507928120467148,1.2839084271342993,1.6967798796453533,1.6307302925980351,1.6551226221525879,2.5484034489260075,0.8964441510282248,Relax
101.91945851548303,589.0074626865671,36.8617609125471,,,,,,,37.4081330869723,37.54912632370732,0.06258284189543897,0.06351045692417409,585.5,33.3585,0.05697438087105038,44.0,0.9853942945199936,560.0,615.0,13.432835820895523,37.3134328358209,487.0,700.0,6.7,78.125,,,0.04724033523535738,0.004753777406827863,0.004032586630400994,0.05602669927258624,9.937431055881154,0.843175411878529,0.0848484288481702,-5.3488157334314845,26.55124185112374,45.0333728557814,0.5895903452791252,3756.3771216810273,1.6960929024822782,4.281739296762296,305.52313630211563,0.5970149253731343,0.59375,0.8552631578947368,0.3076923076923077,50.37059913526868,50.3883717539505,50.35332267017861,53.125,0.5167153818048957,0.4832846181951041,19.086029318627673,18.458286305432942,0.4418584321036021,0.5581415678963979,29.934778504680043,33.64392525618219,0.46116806171302527,0.5388319382869747,25.103460710385825,27.135051501488874,1.160749712890865,1.1838436040557396,1.8899254795929536,1.5083038547282703,0.7433154563158846,0.22839272404853794,-0.8223581422050029,0.002583954705174466,0.17426544270861394,1.6252828823945003,2.4299815868806673,-0.2116175812978005,1.0033732121425332,2.461124975688895,-0.9861113841210845,0.0,0.0007045867201217602,0.3087788720954259,0.7243301774108684,1.2493558101737536,6.149716149267688,0.9157899953614294,1.394452161199076,1.1924299340569053,1.5143787983939438,1.635556493435714,1.658885423901342,2.8306874115230682,0.949176159912238,Relax
101.80646455704805,589.5970149253732,36.281920227342354,,,,,,,36.35073506615271,36.48751101110938,0.061536811260712795,0.06165352630008433,587.0,31.875899999999998,0.05430306643952299,40.5,0.9981069202951434,561.8,614.4,11.940298507462686,38.80597014925373,487.0,700.0,6.7,78.125,,,0.05131895138842987,0.00699298571040793,0.007271190615582434,0.06558312771442024,7.338632383024879,0.7825023474314416,0.10662781654541816,-4.962847673676205,25.800566464574263,44.52887796572874,0.5794120050460612,3609.2824175883384,1.7258876089743835,4.264390975839934,307.4073548903347,0.5895522388059702,0.5859375,0.8533333333333334,0.3076923076923077,49.54502667085032,49.54599003520034,49.54812243260729,53.125,0.495604376845735,0.5043956231542649,18.16371257605269,18.324102359262437,0.44723335519032936,0.5527666448096709,29.77891328517378,33.10645399979984,0.459391213307259,0.5406087866927409,24.664794049326197,26.756401324856732,1.1176958882466592,1.7762259259500168,1.49389018631171,1.7465134064947667,-0.30531778809774757,-0.7787369717552517,-0.3577752883277273,0.0019293522991590403,0.268387851816466,1.3889659098494247,1.5939954261831888,0.17485569358918385,0.9718534066807782,1.0,-3.214478875634467,0.0,0.010220124247725016,0.4724019541951832,0.7482197281937712,1.3504482293467546,6.137703906921144,0.9260240084482667,1.3252059824428453,1.12312978043859,1.575642621614814,1.6912690780020356,1.678999994448392,3.2282479258841925,0.8964441510282248,Relax
102.71847453414885,584.2941176470588,35.247089219890846,,,,,,,34.56277166526413,34.68770410275661,0.06032422397444321,0.05915303718005539,582.5,29.651999999999997,0.05090472103004291,40.5,1.019799267294135,557.0,606.0,10.294117647058822,34.55882352941176,487.0,700.0,6.8,78.125,,,0.05615323955728995,0.008383895061637819,0.006306368985830714,0.07084350360475848,6.697750764347025,0.7926378101028617,0.1183438796083863,-4.781442667984906,24.52791079485163,43.334179734047986,0.5660176550100905,3339.1890764934783,1.766729343419814,4.230611120975706,306.2390676366832,0.5955882352941176,0.5891472868217054,0.868421052631579,0.2962962962962963,48.84033613445379,48.79883370010321,48.8853645519452,54.263565891472865,0.49191723145799876,0.5080827685420013,17.204975850894147,17.485388356286208,0.4261666155049137,0.5738333844950865,28.289175701451903,32.82641727869733,0.442122985511224,0.557877014488776,23.412482310697722,26.29935814164775,1.0921237807928446,1.2511724728593665,1.9044139897717418,1.3888559146558088,0.6709351211370382,0.33782886265891277,-0.9120599568001225,0.0016577166439279082,0.16102378349763224,1.4058251746765897,0.44202202625769615,1.3353776881092116,1.5563887012380597,0.9645027867457605,-1.2968254002749093,0.0,0.001758881890105742,0.049002598429824754,0.8082842666817096,1.373390956283983,6.20214204717749,0.8963152022396146,1.5559895943241198,1.141388181662413,1.6911681190929646,1.6743291354963306,1.676432395007286,3.0171929047169144,0.8338191577941575,Relax
102.60394400572645,584.8962962962963,34.647106677262144,,,,,,,33.52110050556929,33.646642715759484,0.059236324279459344,0.05731118613305117,583.0,29.651999999999997,0.05086106346483705,39.0,1.0335909667257428,557.8,606.4,9.62962962962963,35.55555555555556,514.0,700.0,7.9411764705882355,125.0,,,0.05522409309523283,0.007671470541251389,0.004474308548502696,0.06736987218498691,7.198631970008783,0.8197149750202329,0.11387093803869415,-4.870246955610972,23.791769228474482,42.933810851598366,0.5541499521370521,3209.0467943883114,1.8045657067072713,4.2133461599948,309.9075308842037,0.6148148148148148,0.609375,0.8717948717948718,0.32142857142857145,49.71351533535559,49.73310789606351,49.69653653850482,50.0,0.48372528574559504,0.5162747142544047,16.547380139275347,17.095046110021446,0.49170783892617925,0.5082921610738208,30.105996348897055,30.609493593998298,0.4898324200210178,0.5101675799789823,24.29183819344974,24.790942898413345,1.1161520749451204,1.8610309338119002,1.5275032351681488,1.769847197927176,-0.23179094153490531,-0.6723254406909174,-0.369779723509141,0.0023995657591856095,0.308443717707585,1.143196259438313,1.3847749107235297,0.10030368255204214,0.7926911379138071,1.7315782721158346,-0.0036636977402579873,0.0,0.0009260751391612154,0.1475261564957157,0.7375509769628454,1.5569198781506537,6.18297640815899,0.9492309407575253,1.533611276240829,1.2284993470335168,1.7427370500967165,1.7211417429950284,1.6938466808598813,3.1860797086253774,0.9435754129401108,Relax
102.14767847335541,587.5555555555555,33.63337598427346,,,,,,,31.569752196229594,31.687567793107775,0.05724288650878614,0.05373066750492934,586.0,31.1346,0.053130716723549486,39.0,1.0653671202490567,560.0,610.0,8.148148148148149,31.851851851851855,527.0,700.0,7.9411764705882355,39.0625,,,0.055125100730670444,0.009400725612829479,0.005713212715269712,0.07023903905876963,5.863919765452936,0.7848213966103207,0.13383904077850223,-4.666968399831194,22.40649406581495,42.05449095938495,0.5327967014855682,2960.3029721114326,1.8768884965161272,4.178306271150022,315.72636123404436,0.6222222222222222,0.6171875,0.8734177215189873,0.34615384615384615,49.5045871559633,49.519308873798664,49.49252883807608,51.5625,0.5034256576139452,0.4965743423860548,15.89829044576002,15.789736839912317,0.46800468608896856,0.5319953139110315,28.769842299453277,30.67370834962052,0.47583673635770674,0.5241632636422933,23.24284260835102,24.39459134102541,1.201143551364234,1.0893385401658144,1.4955616605338715,1.5218392594927381,0.5290709659709512,-0.021463771369828688,-0.47587747243858025,0.0010122464286099388,0.11137443876661113,1.4004615148156727,0.4064912599589783,1.3700746985346584,1.5496745525122548,0.9661647674034053,0.07422995196921933,-0.05817044136269722,0.0014052563320863314,0.04540345944771791,0.7813297554785676,1.4926747646784626,6.16742184912114,0.8853429227211007,1.3689893133797082,1.1309370888293862,1.6750897017028585,1.7450927398919855,1.648150312023151,3.199297803378379,0.8387337003912095,Relax
102.30370002521988,586.674074074074,33.341478275213916,,,,,,,31.301256471848184,31.416737424760377,0.05683134767432076,0.053353740782307105,585.0,28.1694,0.048152820512820514,38.0,1.0651801886994752,560.0,607.0,8.148148148148149,29.629629629629626,527.0,700.0,7.5,39.0625,,,0.05217882350151464,0.01547529346139162,0.014686165616747621,0.0823402825796539,3.3717501791932056,0.6336974062608806,0.1879431667777095,-4.168510497011858,22.214988075805255,41.684232896091096,0.5329350340015121,2909.1610940449277,1.8764013176081848,4.1707378808196,312.8653981188471,0.6074074074074074,0.6046511627906977,0.8589743589743589,0.2962962962962963,50.88047958036719,50.90543389440823,50.85391677097108,49.6124031007752,0.5120154773057911,0.48798452269420894,15.896989831860802,15.519451777000585,0.47682969080726406,0.523170309192736,28.784153275139914,30.15041943935133,0.48461339946553117,0.5153866005344689,23.251255508907832,23.978127281206316,1.1643247330934483,1.3095680361904334,1.4823255572084497,1.4046331146026847,0.4426997369800212,0.3672672362820455,-0.5593267707050749,0.0006680688835071718,0.1268341827408239,1.4365104590381113,2.498397009716262,2.409744285952362,1.160545781094231,3.352417229358686,0.38224067698603204,-1.0,0.0006090639161703818,0.29859324174413965,0.7830908478921335,1.425008873300581,6.096047982281142,0.8809342740083312,1.1202380153902434,1.0194023644639278,1.7591021265954896,1.7014055335209752,1.6577226336742394,2.4846677077657695,0.7863128441167591,Relax
102.02132118442717,588.325925925926,33.600113190469806,,,,,,,29.479059099183175,29.585544699528015,0.057111393038797136,0.0501066803282349,586.0,28.1694,0.04807064846416382,37.5,1.1397959845808248,561.8,608.2,5.9259259259259265,30.37037037037037,527.0,701.0,7.5,93.75,,,0.038339514975698444,0.01293949455067471,0.008766857004448157,0.06004586653082131,2.962983973257231,0.6385038170115993,0.2154935101824689,-4.347471051671146,20.920139282133974,41.82479313296087,0.500185122628794,2748.8323038850644,1.9992597835464556,4.14611835590972,334.4745074635145,0.5925925925925926,0.5923076923076923,0.8571428571428571,0.2,48.725868725868715,48.86344986571727,48.577774964602334,51.53846153846153,0.46774525968672714,0.5322547403132728,14.309679147109941,15.264583806871135,0.5067893753036713,0.4932106246963289,29.774710829239826,29.373115525087197,0.49897418103702745,0.5010258189629725,23.35915583083092,23.407129623761122,1.0092381781201267,2.2941211490064957,1.4822107495765713,1.4723857213420595,-0.1499969757563413,0.49075894412354426,-0.5042826980775478,0.0019474649296446994,0.3657558523742495,1.592620189791071,1.4014526491261479,0.32210348531518473,1.0228298098782587,1.0,-2.3143170688192605,0.0,0.0057688436556126215,0.28975032564762276,0.7935630428576625,1.5173226235262947,6.126417356133808,0.9197902910359815,1.1643721221404253,1.0809721561834316,1.6575907533389966,1.6935522091142767,1.7110290764169507,2.2971076761255147,0.7863128441167591,Relax
102.8706488500959,583.3037037037037,26.826216313572775,,,,,,,28.175224641200103,28.276224789392476,0.04599013540157373,0.04830283857671518,585.0,23.7216,0.040549743589743587,31.5,0.952120760533185,561.8,602.2,5.9259259259259265,25.925925925925924,527.0,667.0,6.75,85.9375,,,0.057149964523999695,0.0151521253604502,0.0064116958449650825,0.07871378572941497,3.7717457560885475,0.726047718254301,0.19249646323119132,-4.1896144690476795,19.994310294934575,31.553799580769848,0.6336577705564154,1982.0196832900504,1.578138936293481,4.00407807307866,199.18511882565528,0.5703703703703704,0.5692307692307692,0.8378378378378378,0.2,48.54368932038835,48.66508139869977,48.41514753208539,52.307692307692314,0.46499647473560535,0.5350035252643948,13.63652768185674,14.627068326207711,0.47419992372920666,0.5258000762707935,21.728632896233904,22.880314255798428,0.47156259856001537,0.5284374014399847,18.139575170843216,19.202342412628226,1.0397915045683708,2.250437874481106,1.501424929873456,1.4670473591103494,-0.16450364408945362,0.49071660333035005,-0.5152759474735703,0.0015004362292931814,0.33566278019065493,0.9766389012225823,0.7191745040234503,0.9982675154214757,1.080641660273185,-0.42908498882913904,-0.6885919596692727,-0.38546014299608256,0.00014933710577626439,0.015983603218390218,0.7501452377649303,1.4000876832522267,5.9480911789401265,0.9849883770361293,1.338140625760784,1.1202248138295399,1.6195513368362424,1.72145269769528,1.7521876633257474,2.3669534632424374,0.9435754129401108,Relax
102.84030878171244,583.6397058823529,25.678257929291554,,,,,,,27.284509239574835,27.38399220891568,0.04399676319223498,0.046748891421507746,585.0,22.238999999999997,0.03801538461538461,29.5,0.9411295509778314,564.0,602.0,5.147058823529411,26.47058823529412,527.0,665.0,6.181818181818182,85.9375,,,0.041983869639038995,0.011643306931991811,0.0022321098884209244,0.05585928645945173,3.6058372320050873,0.7516005359201123,0.20843995099084717,-4.4530237763412215,19.363406586883862,30.71896182832095,0.6303405269715859,1868.6939162966974,1.586444084127685,3.978508281672641,194.93566105233577,0.5955882352941176,0.5923076923076923,0.8571428571428571,0.23333333333333334,50.984589041095894,51.012867570433286,50.95498675414583,50.0,0.4971044776119404,0.5028955223880597,13.653357795959119,13.732655274764687,0.4921241422150406,0.5078758577849595,21.549831051604116,21.891993912322345,0.4935404537733863,0.5064595462266138,18.03897720849437,18.273549441100393,0.9223445559229638,2.4737382103177636,1.363998642406128,1.4688677217735606,-0.770258996463026,-0.09022979138058984,-0.4576070422771366,0.0014218022665195634,0.3697773544964109,0.7184725010706385,0.8538718691027025,1.2052028727916717,0.7782669382403204,2.345628089535272,0.8986564490579863,-1.0,4.0847678136026314e-05,0.030731000949128087,0.8039181247689164,1.4358913022592628,5.9284708637298875,1.0257825971086425,1.3382675848751353,1.2475736283410026,1.641937535226524,1.7042974437658307,1.7712626729852103,2.5781011650407453,0.8859328551562924,Relax
102.76853846340565,584.0370370370371,24.054170025859264,,,,,,,22.633517610017783,22.716370703171627,0.04118603530332932,0.03875356556981927,586.0,20.7564,0.03542047781569966,27.5,1.062767636932082,566.8,600.4,3.7037037037037033,22.22222222222222,527.0,665.0,5.625,85.9375,,,0.027877553546136958,0.009851991182149784,0.0013139407349927845,0.03904348546327952,2.829636469493251,0.714012932384222,0.2523338033284862,-4.620081693755734,16.06289976816008,29.75710077564098,0.5398005635451251,1501.6351922986553,1.8525360430017486,3.88353454781297,220.5044068884408,0.5703703703703704,0.5692307692307692,0.8378378378378378,0.1875,51.03066867772751,51.086376018020815,50.97660917864958,51.53846153846153,0.5387865103066501,0.4612134896933498,11.791579766233982,10.909745936133318,0.493276585274637,0.5067234147253629,20.899498560602307,21.18244571542755,0.5035467788873609,0.496453221112639,16.96806402433814,16.84812397387336,1.1106734961685973,1.5168326944036008,1.3755248659152266,1.1427753712429183,0.3973872002339043,1.2974421751272542,-0.6534444078974857,0.0002398088504156966,0.11964188345249704,1.3595562289406364,0.6751720782145079,0.9624440104626868,1.1212986453265912,1.0,1.3737887890899803,-0.26471978034992877,0.0017363489658703006,0.08354852837129946,0.7327303361117252,1.4193943095462356,5.8129684017535626,1.0072520452428673,1.3934450028271366,1.2724920455116688,1.684088120852997,1.6633298565757717,1.7292685493892965,2.2259950430670052,1.048417125489012,Relax
102.65305582067124,584.5111111111111,22.514627638747278,,,,,,,16.803739811178673,16.86212049594581,0.03851873336667405,0.028748366783372253,585.0,17.7912,0.030412307692307693,24.0,1.339858144183442,569.0,600.0,0.7407407407407408,18.51851851851852,527.0,665.0,5.4,85.9375,,,0.02970594403319401,0.00944674395136246,0.0017406507183898258,0.04089333870294629,3.1445696195576107,0.7264250113932065,0.23100935876096218,-4.66208515226072,11.923319747867952,29.389328093172725,0.405702359375742,1100.871732986536,2.4648611892193806,3.7487068304764337,289.7624567763851,0.5925925925925926,0.5891472868217054,0.8421052631578947,0.20689655172413793,48.38118509468539,48.429596871639866,48.33358160416197,51.93798449612403,0.4835478499881069,0.516452150011893,8.293488704231654,8.571021293582088,0.484156555066738,0.5158434449332621,20.44949395235797,21.108074352262133,0.48407048464191055,0.5159295153580895,15.60390588594316,16.109208684408806,1.2661840459085298,1.5007952460746257,1.533496295865973,1.8143081346504877,-0.3782349998635226,-0.9060309802831581,-0.3128913057800614,0.0011791531095580907,0.17447248755061417,0.900917100014014,0.8401996832512268,1.3362272565460005,0.9161274149203871,2.0760027790515823,0.8203812269101372,-1.0,0.00019482636836368552,0.04426344055019368,0.7707239920612556,1.3462161375524804,5.645344768545484,0.9895542106088555,1.3628510146020902,1.2408201496436617,1.867054632488216,1.6280376566738113,1.6821405513079224,2.307915455896414,0.8387337003912095,Relax
102.56799508311501,585.4444444444445,45.310976342542304,,,,,,,59.37994284217777,59.60262163606224,0.07739586014099084,0.10142711815896753,585.0,19.273799999999998,0.032946666666666666,25.5,0.7630687092941721,565.0,600.0,2.9629629629629632,19.25925925925926,527.0,1045.0,5.625,85.9375,,,0.03787111443825719,0.010764701166140393,0.0024692176701302947,0.05110503327452788,3.5180832104636686,0.7410447075696001,0.21063876640710083,-4.531482908315134,42.145417935355646,48.487378139582454,0.8692038949606644,6419.909983890384,1.1504780475532208,4.514499048657784,223.13465653200612,0.6,0.5968992248062015,0.8441558441558441,0.2,49.663099484740385,49.457068818126295,49.90710666711174,51.162790697674424,0.5401635198029128,0.4598364801970872,30.975190169150498,28.57939738495579,0.47066707378340183,0.5293329262165981,33.26485310295389,35.27712271274058,0.5005761091434536,0.4994238908565462,32.140417374204546,32.103405907917114,0.2813626238240084,2.92424770205227,1.2414539196882792,1.0965282744520088,-0.8193414047873802,-0.525425003991111,-0.5495599757621626,0.009855625194020477,0.7316544931970719,0.12712308678838172,1.941766021240471,0.3531686126498619,-0.049186810163895034,1.0,2.1351938404448148,-0.7072110740493428,0.024619020689805458,0.7666532408104227,0.7880942288059494,0.8675578726530209,5.699130879129484,0.6131627243542647,0.9306422507538098,1.1176380780320399,1.1083985460679266,0.9140502402536621,1.8672156526753014,1.5173217694147811,0.8387337003912095,Relax
102.65471586494536,584.9338235294117,45.54073507529558,,,,,,,59.45306271897745,59.673593453604866,0.07785621764956065,0.10164066485375337,585.0,20.0151,0.03421384615384616,27.0,0.7659947695303333,562.0,600.0,3.6764705882352944,20.588235294117645,522.0,1045.0,5.666666666666667,93.75,,,0.04202911312323669,0.05441430000365006,0.01292049661375318,0.10936390974063993,0.7723909545913008,0.3843051443836463,0.49755262163446184,-2.9111282919497485,42.19560258881317,48.49655062873618,0.870074305115848,6428.770409213308,1.1493271254193087,4.515098026034029,222.95360450750928,0.6029411764705882,0.6030534351145038,0.8481012658227848,0.2413793103448276,49.16286149162862,49.007324688401184,49.388776764456885,51.14503816793893,0.5360828199002472,0.46391718009975264,30.895104186368545,28.740475385301725,0.46894478113765875,0.5310552188623413,33.21021624800655,35.34115107981364,0.4978722052335738,0.5021277947664261,32.0735555085956,32.21033906232087,0.5330425232061043,2.7808943278782614,1.3688249396975904,1.272900981734752,-0.6933269989801136,-0.4256951647836359,-0.5344939241312436,0.0058156212209801925,0.6268169316887691,0.0856332578315645,2.7462747078972427,1.0461311421143173,0.9043690790510075,-0.15517000412446436,-0.04636693866610775,-0.5516197679189399,0.009630053262090411,0.7758919101867485,0.7958769185031738,0.8565532903613643,5.712838095383485,0.6201760053578235,0.9587396128716197,1.1631706763937735,1.1474743211785956,0.940402194952756,1.8051855473949616,1.6407131728065696,0.8338191577941575,Relax
102.96384848332734,583.2148148148148,45.12873545711189,,,,,,,59.63064172751976,59.85400306840604,0.07737926799997594,0.10224473077977962,584.0,20.7564,0.03554178082191781,27.0,0.7568044574017189,561.0,598.0,3.7037037037037033,20.0,522.0,1045.0,5.625,93.75,,,0.06917947606523467,0.15081635795115597,0.03264160323326029,0.25263743724965093,0.4587000840296079,0.2738290762381071,0.5969675737413472,-1.8916923548140505,42.32317145083033,48.0510173016035,0.8807965747151407,6388.967267162877,1.135335931935715,4.512400773062321,218.21618603430073,0.6148148148148148,0.6153846153846154,0.85,0.23333333333333334,49.44295044179792,49.23405014273268,49.70238183997683,51.53846153846153,0.5369365701321568,0.463063429867843,31.01291266359384,28.80058478938451,0.48148410782530515,0.5185158921746948,33.342147254403905,34.600599419441345,0.5057100458452489,0.494289954154751,32.19859884695336,31.832963767101322,0.9111601834694476,1.6041662738581377,1.3736830304530516,0.9450887877576057,0.3170020138562162,0.8417748199806327,-0.7671756972328344,0.003797335305764579,0.23324414328533002,0.44651702046696795,3.3893975330444737,1.1665436839883487,1.6688481871658334,-4.063821249063997,-4.119086049417254,-0.35180124246851113,0.005486890551062558,0.607301562166888,0.8206075146525444,0.8952507463059383,5.707563004696887,0.627045331763809,0.979220993927526,1.189229162014407,1.1923739924852754,0.9465255263643957,1.7805608675413858,1.5552094451624336,0.8911545566656601,Relax
103.28344061824625,581.3602941176471,45.234970541748496,,,,,,,59.52279364212472,59.74406442342909,0.0778088407472054,0.1023853783004991,582.0,21.4977,0.03693762886597938,28.25,0.7599604752041641,559.0,597.0,3.6764705882352944,21.323529411764707,522.0,1045.0,6.476190476190476,101.5625,,,0.08303918811091185,0.18042233063995808,0.037842338448688596,0.30130385719955854,0.46024894932003046,0.275599485790564,0.5988052470249705,-1.7124548949789808,42.24543308945267,48.31957143817651,0.8742923795072246,6412.874091268052,1.1437821299135968,4.514022823135805,221.06824934427888,0.6176470588235294,0.6212121212121212,0.8536585365853658,0.2413793103448276,49.43988050784168,49.245155257152156,49.687729496654555,51.515151515151516,0.5366046414384279,0.4633953585615722,30.946390815046783,28.75799694101975,0.48040898728132625,0.5195910127186737,33.49104011571254,34.830033246277225,0.5047548774314273,0.49524512256857267,32.24382787844736,31.938641204632344,0.8828897191246187,1.5718611156287077,1.3169711296364426,0.8430353268502144,0.26873733850279535,0.9028236425570855,-0.8015125179152135,0.004972959404399008,0.24037761343126604,0.19140851529794642,1.4342611003397596,0.32712142813469014,0.1747748955090892,1.0,1.4675283399174741,-0.6062195248755696,0.018922084968955213,0.5427676734886697,0.8458728253878287,0.9572321222515158,5.769833315416668,0.644660841425434,0.8345317954098643,1.2345949008865076,1.3294768372563037,0.9956262829347626,1.7758241232365477,1.5758561051247602,0.9380465525184273,Relax
103.4354127123533,580.8676470588235,50.20326222593868,,,,,,,70.52900637851593,70.79137904932998,0.08642805720053243,0.12142009756548477,580.5,22.9803,0.03958708010335917,28.5,0.7118101445596327,559.0,596.0,5.88235294117647,22.794117647058822,394.0,1045.0,7.157894736842105,226.5625,,,0.06849936497272796,0.1304763642135843,0.02657591612833723,0.2255516453146495,0.5249944339389883,0.30369703079385585,0.5784766678672058,-2.036563185760363,50.05706417532851,50.68865281894189,0.9875398415919754,7971.242041956813,1.0126173728727117,4.608496106381946,205.31284180789564,0.6102941176470589,0.6165413533834586,0.8536585365853658,0.27586206896551724,50.42067307692308,50.638112362075184,50.281374131305014,48.87218045112782,0.478059255200019,0.5219407447999809,34.61051949482256,36.164115965720626,0.531175149678411,0.4688248503215888,36.942784228501935,34.70691887859789,0.5049500653227766,0.49504993467722347,35.79565173491847,35.44300707916629,0.3475185042671676,2.724667317417366,1.2292273250741266,1.1852023092180868,-0.47148472274326103,-0.42218501522773333,-0.5161579417694817,0.007257221962184499,0.6813330566431129,1.1324839162566611,0.6898109658255129,0.5552784350194999,0.9001839179322564,1.2252109691767035,-0.27772605980111864,0.0,0.0008453455376301031,0.04569258591217338,0.786170537720555,0.8553819787871627,5.815897010317333,0.607436406733087,0.7598258215655013,1.136060415944198,1.1369508597628926,0.9717075243627221,1.86883929904222,1.648740620511907,0.9380465525184273,Relax
103.24700007025461,581.8518518518518,50.73938658500578,,,,,,,72.43159407948663,72.70336447150419,0.08720327420720281,0.12448459835430548,582.0,22.238999999999997,0.038211340206185565,29.0,0.7005145645327678,560.4,597.2,8.148148148148149,25.925925925925924,393.0,1045.0,6.75,226.5625,,,0.06322580017792014,0.10833522036019741,0.020001445892647584,0.19156246643076513,0.5836126050946717,0.3300531745908133,0.5655346915224237,-2.2225249667626987,51.40904203287772,50.430143092062885,1.019410988761777,8144.784244768833,0.9809586231895004,4.617849694303385,197.87953493935802,0.6222222222222222,0.6287878787878788,0.8554216867469879,0.32142857142857145,49.902966454117006,50.05966223386147,49.83205157192945,50.0,0.4803409344688332,0.5196590655311667,35.629885234231544,37.05944219276779,0.5289273234665931,0.4710726765334071,36.676526769420626,34.612594765748355,0.5041671435546005,0.4958328564453995,36.15699336001639,35.856895934094794,0.765037184614077,1.9295896172690457,1.2970111315360024,1.1585137200783815,-0.4414037668968369,-0.3024630416490427,-0.5717755787127611,0.00284066228782837,0.26842709128903897,0.05477404558057316,1.0671127350782743,0.28687304218741283,0.08686223498139714,1.0,1.0029363562766263,-0.6874317498341397,0.010711713049621456,0.3113165166282653,0.7802529584248328,0.8493781607005747,5.802783397084096,0.6018901497763935,0.6061146978615419,1.176476645944079,1.1449030734969776,0.9828236008867824,1.8592425771795458,1.739008285058517,0.9435754129401108,Relax
103.09083588714047,582.8308823529412,50.30964198096349,,,,,,,71.93155182635884,72.19895811047972,0.086319451326702,0.12341753672345677,583.0,20.7564,0.035602744425385933,27.25,0.6994099349115926,562.0,598.0,8.088235294117647,22.794117647058822,393.0,1045.0,5.913043478260869,218.75,,,0.07109048449256614,0.15946718329248377,0.037810653566784966,0.26836832135183486,0.44580008892598827,0.2648989423731777,0.5942101604586181,-1.835917125308681,51.05237287452369,49.8815551199336,1.023471957756229,8000.291106489785,0.977066340139219,4.610075899908985,194.95035400594497,0.6102941176470589,0.6165413533834586,0.8414634146341463,0.3103448275862069,50.51020408163266,50.72327569522614,50.367024397613356,50.37593984962406,0.48112983350274147,0.5188701664972584,35.411967788963196,36.7746262296214,0.5317651634535198,0.4682348365464801,36.37474237389501,34.13279447123748,0.5058600417200745,0.49413995827992535,35.89658302299677,35.47830881499355,0.8810250251844989,2.00665579162618,1.3272317287096635,1.3163179891787706,-0.8806693453881387,-0.7056532016172339,-0.505438770105185,0.0018504964723693486,0.23539748162729873,2.523832818685495,5.09647131353031,3.1313072256342496,2.129414354826131,-3.345620350119731,2.6378706625877664,-0.6965855999519225,0.016784880925469006,1.3535143555249243,0.7813153822358139,0.8363328382458752,5.8001491467138315,0.6133684934557598,0.6580109769503822,1.1797624717615733,1.1333208287520535,0.929785148872045,1.851958488274962,1.6781662120264738,0.9380465525184273,Relax
103.13540841703153,582.8602941176471,52.815145526164095,,,,,,,78.92903516826107,79.22293069165164,0.09061373035560329,0.13541673015786126,583.0,20.7564,0.035602744425385933,28.0,0.6691472335063094,564.0,600.0,13.23529411764706,27.205882352941174,393.0,1045.0,6.181818181818182,226.5625,,,0.07277513319664866,0.1824882556601465,0.04328386587049332,0.2985472547272885,0.3987935165108928,0.2437642016273972,0.6112541742406661,-1.7010694605774472,56.01907151753874,49.715029265616955,1.1268035510597934,8749.303432941719,0.8874661417773038,4.6489435884387795,176.4816208428113,0.6176470588235294,0.6287878787878788,0.8433734939759037,0.34615384615384615,50.16114180478822,50.33819750617188,50.049394775967414,50.0,0.47682581430687904,0.5231741856931209,38.6826448801704,40.51906682192228,0.541815074546492,0.4581849254535079,36.59428291808103,33.65178438942863,0.5054593744249479,0.49454062557505196,37.65294515183328,37.24404226659611,0.5416414835480448,2.5278593345269598,1.2060902399687579,1.2697389112501594,-0.8615991712387441,-0.7938042105980988,-0.4748211182433883,0.003126610329573494,0.4709919502456031,0.1079708847234393,0.9523409736907458,0.12987799717173365,0.1592960536824618,1.0,0.8496906357727008,-0.46910974396416016,0.009292853800427525,0.27270959692103897,0.7369607721683371,0.8312137283498593,5.821447653715595,0.6007045136916973,0.8380790874617767,1.2328381847819134,1.2007384431135264,0.9232392238737753,1.9093067131847645,1.7946466386615356,0.9901602498805621,Relax
102.98081045557822,583.5147058823529,52.7205048722689,,,,,,,78.96422068347252,79.2566068484648,0.09034991636165944,0.13532515956743194,583.0,20.7564,0.035602744425385933,27.5,0.6676505437012877,564.0,600.0,12.5,28.676470588235293,393.0,1045.0,5.913043478260869,226.5625,,,0.06270603426052604,0.14244516228999046,0.033899518445510445,0.23905071499602695,0.44021175063052564,0.2623126823175083,0.595878419741844,-1.948798179373127,56.04288415638562,49.399540979419385,1.1344818807068258,8697.476492733591,0.8814596486785329,4.646363373585513,174.17480814639922,0.6029411764705882,0.6119402985074627,0.8292682926829268,0.34615384615384615,49.19871794871795,49.3058891845036,49.18497752223607,50.0,0.4748209729000252,0.5251790270999749,38.61844544201914,40.61472602578101,0.5415116406977216,0.45848835930227844,36.35187463372971,33.44930282667987,0.5039804030117319,0.49601959698826825,37.50228738186919,37.20491788554429,0.5931202273223489,2.397139255469892,1.2146890909603427,1.3123743501053384,-1.146276791549063,-1.2017500840644826,-0.4592492347192207,0.003057561223882241,0.39772664665774554,2.3653393993471674,4.970581553335704,3.076561018664286,2.111995691901874,-2.777326251626473,2.9648978822485628,-0.6940548236483722,0.007807168190754203,1.1791896211633137,0.7663973932170682,0.8621637716630327,5.852805466263318,0.6152541035685916,0.7540317240498376,1.230913996329964,1.2077745532992519,0.9323513907106961,1.8918973180238037,1.8893627968327653,1.042273947242697,Relax
103.50789361296678,580.6838235294117,53.01358347329238,,,,,,,79.0384810170431,79.33285114894507,0.09129509265657584,0.1361127653542079,582.0,20.0151,0.03439020618556701,27.75,0.6707313044371518,561.0,596.0,12.5,31.61764705882353,393.0,1045.0,6.476190476190476,218.75,,,0.06270610606669413,0.12255255463725209,0.030943095077261444,0.21620175578120768,0.5116670660379157,0.29003513796692565,0.5668434754122584,-2.099215323552072,56.09679701828204,50.14899194435343,1.1186026845869292,8837.921609979554,0.8939724656295402,4.65332025512829,179.32727190931834,0.6102941176470589,0.6136363636363636,0.8271604938271605,0.38461538461538464,49.977436823104696,50.134474127858,49.88876889137416,49.24242424242424,0.4758026266487701,0.5241973733512302,38.69470055119007,40.614909768733796,0.5445915868541067,0.4554084131458932,37.00817520827225,33.84252296724713,0.5063582236188567,0.4936417763811434,37.86082991029413,37.38239730348388,0.6956704178800766,2.0363689062245927,1.246741379539205,1.258890063047081,-0.661033644903311,-0.7410635171218218,-0.49403414407343343,0.0024969118645961487,0.29770627881062667,0.30222495774935837,3.386958685961731,0.26008086137106223,1.8439427729770794,-5.203997435444585,-5.900474379938295,-0.03236456111176995,0.0018186559014403386,0.6432420122380572,0.8115212921735595,0.907074076769231,5.884610083611058,0.6341667909558132,0.8192486137645693,1.214907004521042,1.2049894762967868,0.9672868159331662,1.8792511506745033,1.8658570846296285,1.0943876446048317,Relax
102.24675754213133,588.1492537313433,80.6615977110766,,,,,,,106.75035877103346,107.15394899676056,0.13714477609100473,0.18150215798759686,582.5,22.9803,0.03945115879828326,30.75,0.7556096170513666,560.6,600.4,15.671641791044777,32.08955223880597,393.0,1263.0,6.380952380952381,218.75,,,0.06288572503736416,0.13272153559385078,0.033984734340278606,0.22959199497149352,0.47381703923170826,0.27390208027580465,0.5780756232826396,-2.0195020629901883,75.76928396652684,85.80297483106872,0.8830612704944497,20424.21629780679,1.1324242534610007,5.0171155110747945,388.6614788712241,0.5746268656716418,0.5833333333333334,0.8181818181818182,0.375,49.96445076430856,50.06325694667715,49.9595550089644,50.0,0.49617516263971173,0.5038248373602882,53.371659997690635,53.78150943935803,0.5061520002249285,0.4938479997750714,61.043977560444816,60.29745677440239,0.5017807660177305,0.4982192339822696,57.33629429649766,57.132451597304495,0.6859262135170179,1.9232015547813124,1.2618244142190573,1.3697327730936677,-0.2971362552773513,-0.7415478196493385,-0.4438912897057841,0.00341105432164053,0.335172242979103,-0.22590141031275143,2.2009762895865346,1.345506416328222,0.45698416507794737,0.6786695874936561,0.513874726298793,-0.9036946038238278,0.012889096300300855,0.7276019751598337,0.6443193277283648,0.5571694032855011,6.031996466351139,0.4740716602254865,0.7359791040334749,0.8422579265737348,0.7937603793246109,0.814535293826563,1.9126782425128275,1.7899155613744775,1.0019081687962512,Relax
102.48822606198155,586.9037037037037,80.88612541522603,,,,,,,107.2189488153779,107.62113483628421,0.1378183932130391,0.18268575941634713,579.0,23.7216,0.04096994818652849,31.0,0.754401403006713,557.8,598.6,17.037037037037038,33.33333333333333,393.0,1263.0,7.105263157894737,226.5625,,,0.07294589837629294,0.18326588853902057,0.04307296909694401,0.2992847560122575,0.3980331471274397,0.24373409240163693,0.6123462183002556,-1.6968172378046853,76.09963424172835,85.95764854701683,0.8853154492715517,20550.243327755365,1.1295408894341696,5.019787078523067,388.3707151738686,0.6,0.6090225563909775,0.8395061728395061,0.43478260869565216,49.803250641574,49.881664522151155,49.82384771800047,50.37593984962406,0.49276802702585154,0.5072319729741485,53.42006184495481,54.19839633617893,0.5070958060831093,0.49290419391689066,61.2110086286794,60.34840318013559,0.500800259282455,0.499199740717545,57.44776142226545,57.35588867677727,0.6496755530911267,2.282287644085213,1.3291424743295404,1.3991330750044972,-0.40636031583136933,-0.6429956495697697,-0.4693331378030525,0.004161135600924181,0.46450916912196527,2.6661308514237247,2.4157879477522823,0.29378156117997545,1.4582368775475836,0.9852612351762358,6.390340050726591,-0.01798115498876861,0.05205981907157265,1.7200890403238958,0.6757013151328972,0.5861038710679031,6.006419349169217,0.4978275841995939,0.6940011745273458,0.9097820249010736,0.8789484607874751,0.8435895568081495,1.8442078555755,1.7880479031813101,1.1008379817634626,Relax
102.04815985690958,589.5895522388059,91.78957733078914,,,,,,,124.77109868743311,125.24247887385489,0.15568386003829815,0.211623659567319,578.0,23.7216,0.04104083044982699,31.25,0.7356637738738944,557.0,599.2,18.65671641791045,33.582089552238806,393.0,1263.0,7.444444444444445,226.5625,,,0.069802749326719,0.09045966024646071,0.01506070382336175,0.17532311339654147,0.7716450530163258,0.3981377467832257,0.5159596957525007,-2.4028512707822887,88.55980610431571,95.52595051922779,0.9270758953242773,26577.118786152445,1.078660339507819,5.131478007445144,412.1602168755094,0.6044776119402985,0.6106870229007634,0.85,0.4782608695652174,49.71369842901189,49.789252302741275,49.72452755442587,51.14503816793893,0.48907980165378667,0.5109201983462133,61.93379896748991,63.301557020440825,0.5125939301139363,0.4874060698860637,68.39243988437329,66.69093933409802,0.5017253791706201,0.4982746208293799,65.24308885959903,65.01833783816865,0.7294162593454359,2.1215113813681032,1.3504232483027527,1.2954744044587274,-0.6714978036676786,-0.6841015914072215,-0.5259008008755487,0.004399308345594996,0.35570383338488204,0.6884016908757891,2.422796339666714,1.3296090995057241,0.9835495341825304,1.158061198175703,1.9488575935254886,-0.6428347730502179,0.030048692972967875,1.187458088987776,0.617084294526745,0.5516311233048437,6.090952694186139,0.4717959289316692,0.7189459270786557,0.9429139651995826,0.8977666623147691,0.8421277788735313,1.8628958916107055,1.9007709286319456,0.7909801332601983,Relax
102.19683943447568,588.8059701492538,92.81086577655975,,,,,,,125.53752097652848,126.0119918924636,0.15762555150898613,0.21320694310335633,575.0,25.2042,0.043833391304347824,31.75,0.7393077786991861,553.0,601.0,20.149253731343283,34.32835820895522,393.0,1263.0,7.052631578947368,226.5625,,,0.0741417069966168,0.08531146147039052,0.012126503130435342,0.17157967159744267,0.8690708812009924,0.43211241929968736,0.4972119405295683,-2.4614464669177964,89.10393397798525,97.01614492647876,0.9184443892870657,27157.561067193197,1.0887975490560087,5.140860874737389,422.5237632592504,0.5746268656716418,0.5801526717557253,0.8289473684210527,0.43478260869565216,50.18571428571429,50.34006498638356,50.09795510962294,49.61832061068702,0.4903832758597658,0.5096167241402343,62.397218518038756,63.60909859636767,0.5109650289641453,0.4890349710358545,69.34890404555298,67.84439464006013,0.501547519214174,0.4984524807858262,65.96470029912663,65.76085198778466,0.8175582117671362,1.931192968775183,1.4584983601517987,1.2852764172815934,-0.28581801543080765,-0.2969942878283395,-0.5896968587142628,0.005862985288523235,0.3530459479291056,0.4019970150410387,7.1390369692310935,5.966968739517036,2.8482376890331245,-0.404836014394661,0.8417196068522603,-0.936855988269215,0.12523508051843643,7.549133447889626,0.6529171746336218,0.5956278259719004,6.164641522402016,0.5055085868373587,0.8205135335474537,1.016359973104214,0.9969121516952176,0.8726201848212599,1.8640417434436654,1.9212098754442855,0.8964441510282248,Relax
101.48567126978136,593.1278195488721,94.35092566983681,,,,,,,126.17670389600691,126.65697608328612,0.1590735125889042,0.21273105009975055,576.0,32.6172,0.05662708333333333,42.0,0.7477681914055984,553.0,609.0,21.052631578947366,36.84210526315789,393.0,1263.0,7.388888888888889,226.5625,,,0.06045158573438131,0.07730539745335814,0.01121381282121667,0.1489707960089561,0.7819840234422765,0.4057948762705609,0.5189298810534015,-2.559991501074026,89.56000667307397,99.56039215636375,0.8995545792187746,28012.417373519394,1.1116612855980992,5.154320698495448,442.70973415677685,0.556390977443609,0.5615384615384615,0.821917808219178,0.4583333333333333,50.29602480969834,50.46865607472449,50.18589993028646,48.46153846153846,0.49096127839262566,0.5090387216073745,62.75366842474915,63.89853598294219,0.5143452844436283,0.48565471555637163,71.40259238982419,69.3825733620594,0.5038863058589194,0.4961136941410807,67.21738279920878,66.69694291009488,0.7334793273736917,2.6844379425726954,1.616140814235906,1.6430554654572114,-0.2824402465777407,-0.44385222143152236,-0.4899738225293033,0.008600323911501563,0.7666965853313669,0.6266017241246711,0.7252442573152493,0.8148082943816881,0.9577812961902027,0.5749482465764708,-0.3621666402393431,-0.3028622765828161,0.0010509764081111147,0.06480434128927334,0.6692885636357593,0.6607818960579136,6.24096843156286,0.5210726150617662,0.7288694546066691,1.069866535109422,1.0372891990157205,0.9683004154143667,1.8309426401926416,1.9140447355309438,0.7426613090001253,Relax
101.5143147040656,592.3082706766917,94.66657440652205,,,,,,,118.8962496541341,119.29382100434731,0.15982652799760633,0.2007337319776056,573.0,32.6172,0.05692356020942408,47.0,0.7962116103906094,552.0,609.0,20.30075187969925,37.59398496240601,393.0,1263.0,7.0,226.5625,,,0.0585545640888503,0.09856195102926633,0.015179124689908893,0.17229563980802554,0.594088930640826,0.3398493667866041,0.5720513365229996,-2.317069984047212,84.35346978582818,96.73219001813393,0.8720310143915363,25634.44059447239,1.1467482044749917,5.115793954485055,443.70986087291527,0.5338345864661654,0.5419847328244275,0.8169014084507042,0.43478260869565216,46.422155688622766,47.24104964360228,45.71491765158556,50.38167938931297,0.42568464850369303,0.574315351496307,55.06155472886963,63.95576357652598,0.47540493705975784,0.5245950629402422,66.69647233165786,70.06209506014481,0.45391645945206904,0.5460835405479311,61.15633340320489,67.07844981390542,0.6341382312189597,2.4179905846771943,1.439567695998852,1.2568907036852814,-0.41518411502838326,-0.25923541071730816,-0.575549091659494,0.007290290276984063,0.5486129643524277,0.20027828528763855,11.558869777261465,2.289086997443145,5.401326257937272,-10.217779287604252,-10.061005455642054,-0.2307488257531455,0.11396314116323643,12.82526022889208,0.6733444759339346,0.649028498431117,6.286081213517748,0.5147796734421479,0.6940240728515672,1.0535913636453134,1.031285083874195,0.9876548195913569,1.789641514552801,1.9092046440678156,0.6896140726429735,Relax
101.94419217200756,590.2313432835821,85.95749204568224,,,,,,,113.05394946096224,113.48095424577747,0.1456335605077875,0.19154175857896524,576.0,31.1346,0.054053125,44.5,0.7603227702837886,553.6,609.8,19.402985074626866,35.82089552238806,393.0,1263.0,7.052631578947368,226.5625,,,0.0674353021393552,0.10581470936642871,0.01867885747093393,0.19192886897671782,0.6372961050796029,0.35135570015543377,0.5513225286565134,-2.246065739293265,80.24315228270957,91.87042031308594,0.873438393002321,23159.73347809545,1.1449004394719144,5.071703667190831,420.72993836368636,0.5223880597014925,0.5303030303030303,0.7857142857142857,0.391304347826087,50.320462716898554,50.54761336697917,50.1414191050212,50.75757575757576,0.48351166745789026,0.5164883325421099,55.79728596636328,57.66865910027943,0.5126643084726802,0.48733569152731976,65.77975397474542,64.1342193803358,0.5000484171745033,0.4999515828254969,60.993086305704175,60.98718036583295,0.7960269774549409,2.4775771014792447,1.5528943116521203,1.4863402359417375,-0.38679627199557487,-0.28456041276404687,-0.5268625649109554,0.005097346395272955,0.5437457289394849,1.0642017835652062,3.0000937635063845,2.615441549653508,1.115394667900316,4.899894292902307,3.449396028944577,-1.0,0.0032344544787608,0.6291640167745334,0.6950440126623056,0.715045865867583,6.2727775298324095,0.5650649150815988,0.6733664562680814,1.142907836686041,1.1607014174358405,0.9759544720392844,1.7927465331379588,1.8175545719458015,0.7909801332601983,Relax
101.9967643654957,589.8955223880597,85.82682938017915,,,,,,,113.04876185253414,113.47570484016582,0.14549496668957324,0.19164200703690984,577.0,28.1694,0.04882045060658579,39.5,0.7592018521364745,554.8,607.4,19.402985074626866,35.82089552238806,393.0,1263.0,6.7,218.75,,,0.0739011120399597,0.098422444056394,0.015771259040561716,0.1880948151369154,0.7508562985655579,0.39289287153485125,0.5232597399601455,-2.3184864109284953,80.23944039240438,91.64267493984377,0.8755685104682428,23101.252183509907,1.1421150807093472,5.070605631050899,418.6659243413605,0.5223880597014925,0.5303030303030303,0.7857142857142857,0.45454545454545453,49.663799843627835,49.796846783675505,49.60649538726157,53.03030303030303,0.48314127488685066,0.5168587251131496,55.77335086460797,57.68668640057936,0.5110690495069091,0.48893095049309054,65.51451760965071,64.07985527843081,0.49894980873875827,0.5010501912612418,60.83920892110572,60.967129013852315,0.7902466499939023,2.2898616621890078,1.4966507280789496,1.4216059903659843,-0.425508531606285,-0.3986837654301838,-0.5327726075998956,0.004822304278381783,0.4566250498214755,0.8522038550810759,4.389565279553412,2.1425604659416786,1.9149131694907555,-0.7199398281540255,0.542432833891104,-0.5518610117296362,0.013356401251478097,1.719385290516993,0.6902817155656975,0.6836191743082908,6.197405399458457,0.5579005052568304,0.7987363041793604,1.1236820667983267,1.229947528520098,0.9542179155031962,1.7943918911425634,1.8713751858982834,0.8437121421442116,Relax
102.35382607763907,587.8656716417911,86.57047987412182,,,,,,,113.25757456121299,113.68562677910774,0.14726234929205476,0.19265893557776093,575.5,28.9107,0.05023579496090356,39.5,0.7643681246884954,550.6,606.8,19.402985074626866,40.298507462686565,393.0,1263.0,7.052631578947368,218.75,,,0.05971409229799213,0.077562913681053,0.01172025177891723,0.14899725775796235,0.769879436756887,0.4007730960726425,0.5205660483164702,-2.5566658825127204,80.38787761895003,92.91483555744294,0.8651780648016285,23465.266879784853,1.1558314301799641,5.077395607941746,429.5755490691818,0.5447761194029851,0.549618320610687,0.8055555555555556,0.43478260869565216,50.18326206475259,50.38385620468917,50.03277185683738,51.14503816793893,0.483799796955267,0.5162002030447331,55.91443679788112,57.75641116190504,0.5074975122369858,0.49250248776301403,66.1914692846488,65.20625783317166,0.4973526943799833,0.5026473056200165,61.26881281894096,61.59407070047039,0.7173622774110557,1.7574949921698049,1.4045239412858725,1.0727341524636913,0.48092205038216385,0.5199296167468398,-0.6887856240276129,0.006150300576462874,0.37973487716902987,1.8092799355221838,2.5439847292812154,-0.7347047937590316,0.5372875708815761,0.8802346235955565,-3.4376002384097886,0.0,0.014401364050099405,0.8822414743220439,0.7358446735269832,0.7825749904612036,6.207442548472983,0.5904556913546873,1.029283300256447,1.1954132127393509,1.342122726720953,1.0104586331347123,1.794119944432428,1.837349844727925,0.8437121421442116,Relax
101.35441756976078,593.375939849624,85.63007131664276,,,,,,,107.54174665090423,107.94926134845302,0.14430998219837413,0.1812371203964858,579.0,38.547599999999996,0.0665761658031088,48.0,0.7962495866336458,550.4,619.8000000000001,19.548872180451127,44.3609022556391,422.0,1263.0,8.866666666666667,195.3125,,,0.05772660099432052,0.0892969085837808,0.015104872712346546,0.16212838229044785,0.64645688086906,0.35605487564111477,0.5507790019381568,-2.415788410021635,76.33165472357,94.41950002373886,0.808431041303743,22642.07612710697,1.2369638830138399,5.061886356206265,467.17404552635753,0.5488721804511278,0.5538461538461539,0.8194444444444444,0.32,50.731945348080664,50.824336548286844,50.617253303270736,53.07692307692308,0.5056216060421459,0.4943783939578545,54.278297576345,53.6714275700263,0.49213697066584006,0.5078630293341597,66.23761586685613,67.28759342559097,0.49746682784656304,0.5025331721534372,60.55392366936866,60.86149179247997,0.8547172166888881,1.9745852855245314,1.4245978853715275,1.1881161668412892,0.12173724254021501,0.43511292598839857,-0.6197627270211421,0.0030043239526604034,0.3170157883054834,0.9150239756377451,9.464065449144536,2.322992685623422,4.599924063614618,-11.75615747928682,-10.600225638050967,-0.2594129721284832,0.017499233901749938,5.425758061596118,0.768280971955523,0.887649155910771,6.316156401487669,0.6296493197352305,0.9926621178562787,1.2641145344569968,1.3772542589542733,1.1350446282277007,1.752858452902719,1.8036761561321617,0.8487557817144289,Relax
100.98551201519517,595.421052631579,85.98125328852441,,,,,,,107.9490620616965,108.35752181073181,0.14440412025828372,0.18129869876887061,581.0,41.5128,0.07145060240963855,53.0,0.7964983821664264,550.4,622.2,19.548872180451127,45.86466165413533,422.0,1263.0,11.083333333333334,210.9375,,,0.07071115696556957,0.10289823156989637,0.01769935601984927,0.19130874455531519,0.6871950653256574,0.3696180074252909,0.5378647578764717,-2.2740148221994687,76.62033846493769,94.61199420339467,0.8098374747309633,22774.042947950304,1.2348156651212154,5.064410245281585,467.3134902028375,0.5413533834586466,0.5461538461538461,0.8169014084507042,0.391304347826087,50.81313775510205,50.86235399029786,50.72921113693714,54.61538461538461,0.5082349713560561,0.4917650286439441,54.62449887973889,53.73212466834013,0.49306987856428713,0.5069301214357128,66.43553439598176,67.36281776071657,0.49907658956696294,0.500923410433037,60.817415714342346,60.92983849493431,0.8571874804722001,1.5844125392227153,1.4558184873121722,1.0831086661596216,0.49705541215425875,0.6124492660158701,-0.735235339235194,0.004880382291319694,0.2898768091883419,0.36213598731509294,3.150216441491524,1.1457518319688969,1.141382952292518,-0.8250055983368068,-0.18550184741377707,-0.5013868506363042,0.0041104790359830735,0.7282793862546834,0.7686592727609636,0.9258995909807919,6.333183939130453,0.6468605146881184,0.9646618789876391,1.2896308261079281,1.438198527812444,1.1961959678152398,1.7430727269157256,1.845192456131322,0.9018030180715806,Relax
99.79571104729082,603.5267175572519,116.3410985153487,,,,,,,150.8511492523979,151.43329237441807,0.1927687625598983,0.2499494137773409,582.0,45.9606,0.0789701030927835,58.5,0.7712311049131724,551.0,634.0,20.610687022900763,46.56488549618321,422.0,1466.0,10.076923076923077,210.9375,,,0.07036171611180314,0.08501898757209751,0.013004341170792544,0.16838504485469322,0.8276000234904614,0.41786202671692924,0.5049081861483845,-2.464880664236986,107.07950793535612,125.63883850152357,0.852280307685729,42264.9298317581,1.173322897387348,5.332950262258305,589.6597040599548,0.5190839694656488,0.5234375,0.7761194029850746,0.2916666666666667,50.53065301535773,50.585380755672396,50.52533791269384,53.90625,0.5135789640565882,0.4864210359434119,76.73863322640926,74.68211703380643,0.48383000010000393,0.516169999899996,87.39172453801643,90.2651883191044,0.49634712685328297,0.503652873146717,82.23786034177296,82.84088008626702,0.6009274838669094,2.0908874468646443,2.109778907291572,1.1620337545006736,0.7311971652367308,0.679046452759135,-0.9532741129667568,0.01002693311925776,0.6245881339169284,0.5177116296759191,0.5307615957736059,0.4683049858962143,0.7336857837830173,0.971338619502266,-1.8302671886238782,0.0,0.0020568713385760405,0.07435315674539254,0.7392979013130723,0.71681692464585,6.376635978504567,0.5445416907707787,1.1051622866341788,1.148604098863988,1.1119403156633487,1.0179665315398345,1.8262044374396684,1.8174179758452864,0.7516635268818649,Relax
99.08958201768388,607.6846153846154,116.42631063462615,,,,,,,150.52340207968797,151.11004760572044,0.19159002496868818,0.24769987304091742,589.0,47.4432,0.08054872665534804,68.75,0.7734764762557611,552.6,644.2,17.692307692307693,42.30769230769231,421.0,1466.0,10.833333333333334,171.875,,,0.052651672569167765,0.0666343422021912,0.00864662132945047,0.12793263610080943,0.7901582101524276,0.4115577867689591,0.5208549142197313,-2.708535185655341,106.85093936742695,126.00040398644784,0.848020609353915,42296.083505410235,1.1792166239472344,5.333270264789881,594.3270840195466,0.5076923076923077,0.5118110236220472,0.7692307692307693,0.28,49.7973061331241,49.731802843912945,49.9599612197375,53.54330708661418,0.5111593678781686,0.48884063212183154,76.39361475280509,74.70721497117931,0.4869988485376741,0.513001151462326,87.9297634375255,90.24665371396807,0.4971055338201882,0.5028944661798117,82.36391100833907,82.84209822100979,0.8095954063416124,1.689330198905387,1.7433154190944276,1.0477703557417786,1.0474896807305143,1.2476174727366491,-0.9117283073512401,0.011957237907388634,0.5134289505732808,0.3001650196914579,8.363629203449689,0.47050865918219653,4.253194214910644,-11.321419121977101,-11.863848308965782,-0.04772199200698328,0.029128640628896366,5.177945080878841,0.6925726594076553,0.6901122768647914,6.443258485988883,0.5089546893279837,0.981810843468172,1.1172692049730517,1.0842280818151115,1.0216686367252004,1.7636931533929547,1.864784674764914,0.8642914231419636,Relax
98.50096985506866,611.2015503875969,115.09489154639974,,,,,,,148.11078518291637,148.6925811811967,0.18830922708460354,0.2423272406442541,593.0,45.9606,0.07750522765598651,66.0,0.7770864991651883,557.6,640.4000000000001,15.503875968992247,37.98449612403101,433.0,1466.0,11.727272727272727,156.25,,,0.05183327347832676,0.0880791442033441,0.010382977520772343,0.15029539520244323,0.58848520778837,0.34487599176614125,0.5860402049224744,-2.4295195027440686,105.1415324653554,125.02079735944626,0.840992336363556,41295.85286214782,1.1890714775404398,5.322876549765441,594.6346569579227,0.5193798449612403,0.52,0.7846153846153846,0.2692307692307692,49.79330007127585,49.65600481751566,50.00096777309713,55.2,0.515633508327009,0.484366491672991,75.49972623405546,73.17485261425614,0.48402039912528466,0.5159796008747153,86.97893729082334,89.80458919315177,0.49711674556706115,0.5028832544329389,81.44183259743822,81.9128295667683,0.6984108835409711,1.6846631945936044,1.5941845309861993,0.8911619535660644,1.087756164314425,1.3819704246073852,-0.9173074948608507,0.014157546949402576,0.5539161691239448,0.19937250539482437,2.60948373162123,0.22181593887443152,1.331459259180505,-0.6638552753537894,-1.318545051303921,-0.0747651894282283,0.009317064822777115,0.7710019363647299,0.6482057101400409,0.6368332722066917,6.41212483282524,0.4927684873342,0.7552900287757311,1.104851685423223,1.0757131463662621,1.001263394882057,1.743553780115404,1.754982306039843,0.7065577854302504,Relax
98.22799889204623,612.9922480620155,115.51173480187191,,,,,,,149.43351364402832,150.01902028359734,0.1884391444868415,0.24377716703019442,600.0,50.4084,0.084014,68.0,0.7729975156512556,557.6,645.4,17.829457364341085,40.310077519379846,433.0,1466.0,11.727272727272727,156.25,,,0.06696367110427308,0.12064608940250411,0.01416810914412541,0.2017778696509026,0.5550422018310623,0.3318682629573175,0.5979153690701304,-2.1148939001798395,106.0794665494939,124.93907176517402,0.8490495811340171,41637.00425058774,1.1777875193865226,5.326449584781027,588.6067176350361,0.5426356589147286,0.544,0.7941176470588235,0.32,50.611911884688595,50.66940044086602,50.597286708817975,54.400000000000006,0.5197922672592824,0.4802077327407175,76.48055694456716,73.51072555521094,0.4795270487400381,0.5204729512599617,86.51767294911213,90.13580820636035,0.49639451516853594,0.503605484831464,81.65348529940626,82.24442440879297,0.7276748808142431,1.6604084437175666,1.3606232066051338,0.9136036554410303,1.1193829033465503,1.416527370417994,-0.7692226438955287,0.014485585137670625,0.5561631023576942,0.7440093652845885,6.287545173560304,2.2055304901774067,3.6062979374164987,-2.5889211712027027,-3.0259531419062187,-0.27721552552346734,0.0878089192044973,5.3229173898101125,0.6567846248826426,0.6245600708963742,6.404524445295424,0.5110022142940799,0.8781473216685749,1.0274060646707626,1.1133798791009435,1.0317843347596123,1.793389816824966,1.7585088619568223,0.8152589831887505,Relax
98.55969850239707,610.5625,99.56984253933058,,,,,,,131.2300378520317,131.7457547020577,0.1630788699589814,0.21493301316741809,605.5,51.891,0.08569942196531792,66.25,0.7587427708555602,565.4,644.0,15.625,38.28125,433.0,1466.0,10.666666666666666,156.25,,,0.07919362759679056,0.1221875178881813,0.015898980086727823,0.2172801255716997,0.6481318956758236,0.36447708868180706,0.562350180747944,-2.1021983824030253,93.15831654236445,105.97557806922595,0.8790545731348695,31015.393728087558,1.137585800201024,5.198547408693485,482.2252511185859,0.5390625,0.5403225806451613,0.7910447761194029,0.3333333333333333,48.93686620870134,48.7175785445862,49.299073128765805,58.87096774193549,0.5176891127461472,0.48231088725385307,67.0300217031429,64.69912047683638,0.4649097685719948,0.5350902314280052,72.2586976785102,77.52098913786043,0.48791710141985273,0.5120828985801474,69.69341145229636,71.39845918291397,0.8683627336347522,1.9891959501803744,1.553524085099116,1.205836819390523,0.1287749714041233,0.47942660679785254,-0.6747878411259917,0.005471870237540363,0.3923512590101691,,,,,,,,,,0.6966249124587032,0.686683033940056,6.317311890740202,0.5283554697059061,1.054609632671911,1.0738199206094474,1.196694532663724,0.9994739084266778,1.7537915242087287,1.7498543031821527,0.8203125,Relax
99.53286393540897,604.9083969465648,103.25200317532897,,,,,,,134.67776356919504,135.1986654127833,0.1706903122795464,0.22264158383156304,602.0,51.891,0.08619767441860465,68.5,0.7666596210017991,560.0,644.0,18.3206106870229,41.221374045801525,369.0,1466.0,10.916666666666666,218.75,,,0.0419854090955108,0.04675259199832006,0.005071031878808209,0.09380903297263908,0.8980338265955274,0.44756254024872555,0.49838049190802564,-3.0628855809700597,95.59989312075022,111.08057117062428,0.8606355919245761,33361.48574905411,1.1619319598016782,5.230215493601574,516.2722630246931,0.5572519083969466,0.5590551181102362,0.8169014084507042,0.25,49.84806829691796,49.636422350317396,50.07837870978218,57.48031496062992,0.5304953067342733,0.46950469326572675,69.6303362115266,65.5054882605119,0.4464641091334838,0.5535358908665161,74.22178252456484,82.64393680402894,0.4822207884085897,0.5177792115914105,71.96268728325128,74.56872428410047,0.5363756175957965,1.9534382333445788,1.7387939628747802,0.8904611927057834,0.9972705536327888,1.2253255794792721,-0.9342767309906308,0.013537180029430421,0.6489201536977253,0.16947913361102848,3.266721141853349,1.0527548468190793,0.9840430729987832,-0.5860235357440757,0.06687163988300027,-0.5210338657132249,0.005844402164774495,0.8720407037345249,0.6510231137968479,0.6763400622435641,6.4064079978167054,0.5297792180067837,1.1913470418566743,1.161843620865993,1.2082535250495376,1.0044445718088195,1.7786499490689616,1.7720197544632792,0.6979732749617317,Relax
99.51499984623811,605.6384615384616,106.65586213540888,,,,,,,141.8401764625056,142.39315830126023,0.1761048363151811,0.23419942006688083,605.0,53.373599999999996,0.08822082644628099,69.75,0.7519439470212628,558.8,644.0,19.230769230769234,42.30769230769231,369.0,1466.0,11.818181818181818,218.75,,,0.0502270753820422,0.07858181598235686,0.006116429308889183,0.13492532067328822,0.639169186333377,0.37225833617741316,0.5824097033101516,-2.5436149551372202,100.68716782939062,112.99739848312211,0.891057397612829,35743.118637494634,1.1222621603041867,5.2601625525904625,507.2508181216865,0.5615384615384615,0.5634920634920635,0.8028169014084507,0.25925925925925924,49.97337593184238,50.00568796930372,50.01778614879917,57.14285714285714,0.5091966104934142,0.4908033895065857,71.84836462996218,70.53877479797902,0.4633653213476513,0.5366346786523488,76.918394153239,82.77664347411323,0.4836493891017151,0.5163506108982848,74.42656400477263,76.90153267276425,0.7500433103626993,1.491151231400385,1.4086374437369051,0.8750827845528832,1.0917974034855122,1.420629985392772,-0.857813914476632,0.009035693544030176,0.37961207063034197,0.6280541460823702,7.023254979275306,0.5713049515238167,3.8274313765219583,-11.019354486109876,-11.394853967713745,-0.03637929498408661,0.011742001555540026,3.07985692420706,0.6301973920485731,0.6372922079890008,6.449065312928602,0.5472279053528015,1.1847431500067014,1.075701231755603,1.0949733385165716,1.0122586552287984,1.8126175939655698,1.777874475122949,0.7022367813028455,Relax
99.68576458218914,604.1603053435115,100.2664002924128,,,,,,,130.24104871057654,130.74429130104141,0.16595992720078434,0.21557366076297335,606.0,50.4084,0.08318217821782178,69.0,0.769852525644401,560.0,644.0,21.374045801526716,45.038167938931295,369.0,1466.0,10.076923076923077,250.0,,,0.06114080626370149,0.10862199277225068,0.009613052347565655,0.17937585138351783,0.5628768604153334,0.3408530512447758,0.605555273658378,-2.219881380270016,92.4501749803957,108.10460450786555,0.8551918338840891,31397.986794440894,1.1693282844601365,5.203871912426884,505.6390869256959,0.549618320610687,0.5546875,0.8028169014084507,0.25925925925925924,50.35313668466971,50.31088093265838,50.420020666850384,55.46875,0.5258877493872314,0.4741122506127686,67.0434314860625,63.657605183311894,0.4546167915583965,0.5453832084416035,72.88982853459443,79.83532057929904,0.484723017714224,0.515276982285776,70.02766885035133,72.20100106533796,0.824792633077792,1.9173713409159667,1.5196274667406926,1.2017559999136775,0.46621575497482937,0.7313904483222582,-0.6657850308095048,0.005698874334808154,0.41094370177646067,0.22431788614668086,1.1157974554071286,-0.42900906387565674,0.08031496258756451,1.0,1.4121066319687658,-0.04353361894217557,0.00913496180861999,0.3608637726486936,0.6548098548911634,0.7209819795533893,6.418695329682635,0.59013047568299,0.9231976859771003,1.147540768021885,1.1832018131969826,1.032490913070979,1.7907131303880517,1.7326311998525767,0.6979732749617317,Relax
99.9542486752154,602.5954198473282,99.32175984577012,,,,,,,129.43225136073193,129.9314153287271,0.16482329034451337,0.21479129627889387,605.0,47.4432,0.07841851239669421,66.0,0.7673648476449437,563.0,640.0,19.083969465648856,41.221374045801525,369.0,1466.0,10.076923076923077,250.0,,,0.0700265637704518,0.0989298382836747,0.012538828338403862,0.18149523039253035,0.7078406776492984,0.38583142718958097,0.5450823036490455,-2.3133443843023933,91.87538486810865,106.84117582430741,0.8599248759597243,30838.106432395736,1.1628922804261754,5.196057812959089,496.97911439097123,0.5648854961832062,0.5714285714285714,0.8194444444444444,0.21428571428571427,49.40854010386611,49.28258137485696,49.64377634293842,57.936507936507944,0.5238321979638653,0.47616780203613474,66.4967505180318,63.3992822691871,0.44939111445831004,0.55060888554169,71.62273474454538,79.27938394836997,0.4810373822936906,0.5189626177063095,69.10728601871467,71.77983599689095,0.7234575714334952,1.7596493148418522,1.7543434259494741,1.0237066348550632,0.5282691276769427,0.7581061357733663,-0.9152172736532317,0.008888139489304494,0.44242026786971267,1.7307456493417972,3.8083724598403643,2.0428691700542934,1.8010995973245278,-1.5385732416513989,2.4435509776716113,-0.5634836994751032,0.0037507784115334273,0.6255594465796145,0.6548924782029344,0.6944186365481421,6.372893802965078,0.5481356319623589,0.8961060932840373,1.1159607466021275,1.2018966345862272,0.9822993214581694,1.7795073939513022,1.7818603544257539,0.7516635268818649,Relax
99.60789604440997,604.8307692307692,111.29854665617063,,,,,,,145.51099481621003,146.0781816363888,0.18401601293816686,0.24058133649726948,599.0,48.1845,0.08044156928213689,64.25,0.7648806662118421,561.6,637.0,21.53846153846154,43.07692307692308,369.0,1466.0,10.833333333333334,250.0,,,0.06330834693506779,0.08791545209133853,0.013823290019644927,0.16504708904605125,0.7201048897444612,0.38357748265044267,0.532668904368307,-2.431379698030222,103.29287281849071,119.53920304012817,0.8640920316644263,38790.96513300966,1.1572841356652555,5.29570069509745,553.3632930736328,0.5615384615384615,0.568,0.8028169014084507,0.20689655172413793,50.143409402668674,50.180403944915156,50.10108748108686,55.2,0.50247329641664,0.4975267035833602,73.21957025788937,72.8582742384144,0.4768929111154356,0.5231070888845645,82.55070555539893,86.4580943334678,0.4878279495622863,0.5121720504377137,78.02475394528383,79.94788990578431,0.7752932736167106,1.935466147423031,1.4682616336392984,1.203500243734553,0.30598237769475567,0.5223541730768861,-0.6367946374351527,0.0062715023472851746,0.41500351259389323,0.6933863454688224,6.5332587759076395,1.2063270633003458,3.6597589770464833,-11.45399045635887,-11.890180362869522,-0.1244704215921262,0.01018530367714566,2.5612030995841426,0.6008056237890376,0.6268190641601441,6.42410290909909,0.5449722094630786,1.1004672860152938,1.0610601934669415,1.0863892034859324,0.9873608122134299,1.8304537534172856,1.822920125571118,0.7562549952492182,Relax
100.66660215492126,597.7878787878788,65.76073102607992,,,,,,,82.62732483361847,82.94183417747301,0.11000679899937332,0.13822181373292491,602.0,43.7367,0.07265232558139535,57.75,0.7958714766392139,565.4,636.8,21.21212121212121,42.42424242424242,369.0,801.0,11.0,289.0625,,,0.05384372349586277,0.061045977078880716,0.018731148282577593,0.1336208488573211,0.8820191939312965,0.4029589989609819,0.45685967123337884,-2.7961279761104576,58.64873339094131,71.88664210392011,0.8158502285606561,13245.14471626713,1.2257151680452743,4.829026817716438,352.4501904264677,0.5909090909090909,0.5984251968503937,0.8421052631578947,0.27586206896551724,50.75298597888177,50.85167884609698,50.58760990060751,55.118110236220474,0.5090672459924438,0.4909327540075561,41.84660633239524,41.094497104937204,0.44815722742687697,0.551842772573123,48.12418637969185,53.4017977063486,0.47249902913212555,0.5275009708678745,45.0947656399597,47.647191368314,0.7368572447737175,1.902243017638902,1.4828245413258145,1.1450661307078782,0.6235161343612923,0.7411009825780981,-0.6775579710299938,0.007309128013135799,0.4721444170610497,0.6290279829019526,1.460724544742872,-0.6117172496083362,0.1186450227630998,1.0,-2.990331754834241,0.0,0.007268352997954758,0.2840085101740335,0.7334781829245283,1.0104195766326487,6.400306619292895,0.6838441692392229,1.0838528508813599,1.1839599604912419,1.4935087379477836,1.4416009324607828,1.7669131667396853,2.467693528830794,0.9072325759779827,Relax
100.92429049549179,596.2706766917294,67.57320697063442,,,,,,,87.0849898349047,87.41662396932733,0.11332639623593233,0.14604942560327758,601.0,47.4432,0.0789404326123128,61.0,0.7759455113761783,563.4,636.6,22.55639097744361,42.10526315789473,369.0,801.0,11.083333333333334,195.3125,,,0.054504270328012944,0.06393753546394133,0.017655601751727912,0.1360974075436822,0.8524612331789291,0.40047985712379647,0.46979245687262466,-2.7498486806046967,61.81288759714584,73.34451007555681,0.8427745653146838,14242.837417089908,1.1865569289298732,4.860566626778903,348.10974651647535,0.5864661654135338,0.59375,0.8421052631578947,0.27586206896551724,49.84550333387542,49.972964400647136,49.67209942615056,53.125,0.47309704403627767,0.5269029559637225,42.51622950112541,44.86885044725366,0.47259451998322627,0.5274054800167735,50.42105780009128,53.26475465580697,0.47280321687088933,0.5271967831291108,46.63642804006602,49.24605481153452,0.7140157484055538,2.444604471018497,1.5084236220129341,1.4116725877150245,-0.064340052365786,0.05607687232135228,-0.539577377626901,0.007130910863570484,0.6159790696904526,0.7244122176489279,4.941248995428795,1.269632767075147,1.7432701629457992,-3.1466237668326613,-0.6711260959413101,-0.4041462196483481,0.011929566539148569,1.3906684696624052,0.7200947177219934,1.043042437513299,6.419723600817122,0.6861093690767434,1.0413642945494404,1.1379900496328255,1.5766979920192692,1.4263159108671237,1.7885180808616639,3.04130707124418,0.8487557817144289,Relax
104.1347855603997,588.237037037037,195.36934815909726,,,,,,,267.8618350690653,268.8455350679209,0.33212690779073856,0.4553637703914247,497.0,90.4386,0.18196901408450702,232.5,0.7293661230564009,448.8,761.4,60.0,76.29629629629629,324.0,1359.0,12.272727272727273,171.875,,,0.038938559253007106,0.08027717270775628,0.03412218979571332,0.1533379217564767,0.48505145285522633,0.2539395265500422,0.5235311121227292,-2.522269973564594,190.10250093825263,198.35662792158456,0.9583874404913003,118463.46180966299,1.043419349785477,5.7805545296635295,827.8765749263182,0.6592592592592592,0.6716417910447761,0.9,0.18181818181818182,50.90257023311416,50.8246585988437,50.83322340481888,48.507462686567166,0.48878739861011944,0.5112126013898807,132.917578622118,135.9324660938139,0.5744959118023018,0.42550408819769814,150.34541489764686,129.38936609967746,0.5334585932769036,0.4665414067230966,141.89930670639743,132.70124980199364,0.6155607377418568,3.910316218692869,1.4858056707433605,2.330335983316431,-1.5875457365927836,-2.1098829902879883,-0.2840250595243731,0.02645191054235016,1.9039568502042845,0.35004510877848305,0.5273221874430667,-0.058840686323422986,0.20482040739811036,1.2329648732267189,-0.09437992819853402,0.0,0.0001526579667812584,0.02113688322704344,0.8052115935929312,1.1033181797055223,6.674855134039792,1.198842728397771,0.9948360021134309,1.1075627425580903,1.0604266757818506,1.2002328494227088,1.9850943960934297,3.402579968485943,1.1008379817634626,Stress
105.55483852569135,579.2992700729927,190.5596388413497,,,,,,,262.0547484333581,263.0229328040198,0.3289485222678407,0.4523650589104639,490.0,74.13,0.15128571428571427,216.0,0.7271749128018951,449.0,744.4000000000003,59.12408759124088,75.18248175182481,324.0,1359.0,11.416666666666666,187.5,,,0.04800455477183144,0.0940261897514718,0.023839779313487398,0.16587052383679063,0.5105445078516544,0.28940979784368337,0.5668649714037768,-2.3641819211405517,185.98529939329597,196.24618947773632,0.9477141945443766,114664.69591125415,1.0551704361469023,5.766399833608229,828.2927093735627,0.6642335766423357,0.6764705882352942,0.9130434782608695,0.17647058823529413,49.84577922077922,49.89228885116968,49.65850509710037,49.26470588235294,0.47633841948047273,0.5236615805195277,128.3622766784466,134.58757303263482,0.5703634859013287,0.42963651409867126,148.20985763190487,128.63283012225952,0.5258731032786783,0.4741268967213216,138.6416892088083,131.6438752849461,0.7148300482278236,3.721317159566909,1.5729232619370772,2.3644646560804676,-1.4006377288618292,-1.9806827044991047,-0.2872953687625187,0.0250864098838334,1.767796635739225,1.1454147109365247,0.7847548541831328,0.6340378261369732,0.7530372838449583,1.0040589758982488,2.4706881809233483,-0.3483609791342368,0.000834777220611773,0.06296897513208799,0.80331814914401,1.069136470535156,6.646394834924564,1.1435703585181634,0.9838067607353805,1.065293458666412,1.0564271503883615,1.2000465375326095,1.962028190964792,3.327564102735108,1.088019516366212,Stress
106.51604981467193,573.1376811594203,186.30138803268454,,,,,,,253.33126519837083,254.25999175880676,0.3250552077745245,0.44200769470591805,488.5,68.9409,0.14112773797338793,173.0,0.7354062195473638,449.4,692.4000000000001,54.347826086956516,71.01449275362319,343.0,1359.0,11.5,125.0,,,0.04701327308958536,0.11243842796075626,0.016828777623301237,0.17628047867364285,0.41812460332506723,0.26669585562348885,0.6378382269367405,-2.185349514180317,179.78896435708793,193.6823168113889,0.9282673158653377,109396.36079570264,1.0772758912316034,5.745972984860181,834.597161835163,0.644927536231884,0.6569343065693432,0.9,0.16666666666666666,50.2034808208503,50.42742923469081,49.857797776859684,48.9051094890511,0.47202251265096884,0.5279774873490312,123.52247354464788,130.63884320117495,0.5718218914795912,0.4281781085204087,146.46044870606934,126.73664351813981,0.5256294852439862,0.47437051475601394,135.47779247125968,128.70253331458792,0.6517761250207511,2.895540919707123,1.5076096537960284,1.9003131725140625,-0.35208085229538,-0.9536140275748801,-0.3643764569012704,0.01950566256606086,1.206561019843981,0.4347992469690704,1.0886042167483014,-0.6538049697792311,-0.10950286140508034,0.9339083211212693,-1.005695259008336,0.0,0.008234315740057476,0.2618974172106803,0.8243934604900778,0.9972749114515332,6.602188927930869,0.982424524392118,1.348049932322463,1.064623626675304,1.0525990446427758,1.1843207069252915,1.9547113680862123,2.9473258893094627,1.0817319825531997,Stress
107.11328102457638,568.3642857142858,179.47085335653276,,,,,,,240.55524799540228,241.4144019327263,0.3157672954960298,0.42324131554657246,495.0,73.3887,0.14826,132.0,0.7460691664476302,453.0,664.2,47.85714285714286,64.28571428571429,343.0,1359.0,11.666666666666666,125.0,,,0.051037572658839014,0.13924672653041795,0.014530789114131502,0.20481508830338846,0.36652619368894135,0.24918853919218142,0.6798655689084516,-1.9715079083116112,170.7057606827255,187.3517643622126,0.9111510706282706,100474.49620284796,1.0975128408842947,5.709025947200866,822.4838685994276,0.6428571428571429,0.6521739130434783,0.8888888888888888,0.16216216216216217,49.24455459701635,49.42956307824274,48.956825633242566,50.0,0.4655328054778218,0.534467194522178,116.4777144822755,124.8039186722197,0.5688388584057315,0.43116114159426855,141.30333610274383,123.02053005847861,0.5219758451739419,0.47802415482605815,129.48685409102245,123.91543271887296,0.727946973239621,2.4426614915592504,1.5486685748081468,1.6854513350124374,-0.39974485020470674,-0.8721318579188013,-0.4440025723265581,0.013352035180057077,0.7733155187728169,-0.18258939264883595,1.6937571446451414,0.2916540895772757,0.5323929217379826,0.6188768723340703,-0.1173306117944255,-0.35786697170736126,0.023836635397517538,0.7383679495091975,0.7938247927424187,0.9050844807183386,6.644466567081201,0.8476398320905091,1.0074038291329757,1.1219061609365282,1.09848639534341,1.1768076352688224,1.9376132622927364,3.976948190634452,1.0184690024207095,Stress
106.38186276923723,572.195652173913,176.42350583642576,,,,,,,238.47142478283683,239.3454533270652,0.30832723940866935,0.41676553094527163,511.5,83.76689999999999,0.16376715542521994,129.0,0.7398098367428517,454.8,647.4000000000002,46.3768115942029,64.4927536231884,343.0,1359.0,13.8,125.0,,,0.05255502469889632,0.13627770898228006,0.016801935546915264,0.20563466922809162,0.3856465234951224,0.2555747282118166,0.6627175733247574,-1.993060497438105,169.2427930937361,184.28158117211774,0.9183923429421006,97981.02687671868,1.0888592524589942,5.698112096669728,802.6268188681345,0.6376811594202898,0.6470588235294118,0.8863636363636364,0.17142857142857143,49.75578469584095,49.81789584136819,49.54484054450777,50.0,0.47521069500568675,0.5247893049943133,116.6689478068305,122.6040074673696,0.5600535571996884,0.43994644280031153,137.91030213766487,122.23113238285006,0.5212345953434219,0.4787654046565782,127.73193574446242,122.41771189385267,0.7190897004481853,2.2027160383034508,1.3598383266630925,1.6515911042442677,-0.6672036653603861,-1.3294904346490997,-0.3675486206538518,0.0074122038769716125,0.5362788274188035,0.39907072449370473,0.9516526012360437,0.6259997231739011,0.426243651097352,0.8895827680247104,1.0883468771888463,-0.7099044039989992,0.0006546193022894858,0.06786954760698284,0.7369618693765299,0.78845736036427,6.617405344380941,0.7923691009673351,0.9697463834943877,1.082922527628534,1.0568434493933032,1.2313057106669814,1.9577547271952291,3.260603902916348,1.0817319825531997,Stress
105.98487657842573,574.572463768116,175.59961457156209,,,,,,,239.93309590581475,240.8128918105769,0.30561787354019454,0.4175854414120447,527.5,93.40379999999999,0.17706881516587675,123.0,0.7318690817063993,459.0,618.4000000000001,44.927536231884055,63.04347826086957,343.0,1359.0,15.333333333333334,125.0,,,0.039314344417719735,0.11980809261534463,0.02019620862503125,0.1793186456580956,0.32814431445747333,0.21924292520410762,0.6681295867234078,-2.121864044535975,170.2804287964013,181.70684825648738,0.9371161870357403,97204.39540006002,1.0671035393841313,5.6946560133122714,775.6000836193317,0.6231884057971014,0.6296296296296297,0.8705882352941177,0.16666666666666666,50.196546748270876,50.31750990221244,49.91004229951787,51.11111111111111,0.4796882791894964,0.5203117208105035,117.93576890933171,122.8281169908967,0.5444146374043399,0.45558536259565996,134.07141475647293,122.64678735500554,0.5141503386597772,0.48584966134022295,126.26161301646174,122.7374856595029,0.5020165142306952,2.319714580727525,1.298644513148597,1.3627456128636406,-0.4225820321727074,-0.7656323935819733,-0.47236681605245606,0.013089805514641499,0.6810589936238024,0.4111331421640672,3.1137925201436505,2.8130798043351426,1.7581707299285914,-0.49734678917425157,-0.8509910449987019,-0.8387859234621979,0.03479842450764194,1.5033351666659875,0.6976472220435515,0.6994246650790844,6.602912590757752,0.7390173014969267,1.2051001818910314,1.1177327727610311,1.1098750426202706,1.2091846245309352,1.9727480659542798,2.7104938218164523,1.0817319825531997,Stress
105.65248547651156,576.1532846715329,174.06890498875595,,,,,,,237.67976169132925,238.555830030193,0.30212255942963734,0.4125286933438752,533.0,83.0256,0.1557703564727955,120.0,0.7323673826920793,459.0,605.6,40.87591240875913,59.12408759124088,343.0,1359.0,15.222222222222221,125.0,,,0.03750783640194642,0.10898771852927591,0.013452569079904173,0.1599481240111265,0.3441473673189259,0.23450000826103629,0.6813941657839911,-2.2165200771445304,168.68444510593488,180.13572036257733,0.9364297362366925,95460.72978573597,1.0678857807514557,5.686794860133506,769.4574975224671,0.6058394160583942,0.6119402985074627,0.8780487804878049,0.17647058823529413,50.39468869256103,50.62373320040956,50.012876732971975,47.76119402985074,0.47448016476141014,0.52551983523859,116.19536549692059,122.28532209549925,0.558518186600141,0.4414818133998591,134.62276315112487,119.68955423135635,0.5192545991427601,0.4807454008572398,125.74707018735431,120.99439944084352,0.7375423690701162,2.9924914154403375,1.6594282062090189,1.9570215520901169,-0.5343074614749099,-0.9875738745109983,-0.4005533167628793,0.015756316178886547,1.126602860106683,0.1335020364662269,1.1033445110218894,0.8525083604963466,0.370657983472498,0.8905233768611258,0.598890436741996,-0.9367179717761691,0.002619886026018625,0.15437316240617874,0.649745546805022,0.6025408326524566,6.5796412069849515,0.664124491098398,1.0344890612487088,0.9815698083595968,1.0521504723526627,1.1666014756611085,1.9608748390127035,2.612781696398477,0.9843986100456205,Stress
106.09412448821452,572.8623188405797,164.1663831102118,,,,,,,222.30471623722667,223.12051417820078,0.2865721443198941,0.3880595894091111,536.0,77.8365,0.14521735074626865,104.5,0.7384745851951514,461.4,592.6,35.507246376811594,54.347826086956516,343.0,1359.0,15.333333333333334,226.5625,,,0.04063871727814193,0.11524822735090781,0.01191109940740853,0.16779804403645826,0.35261902254171046,0.24218826573039295,0.686827000950424,-2.1606669781268524,157.77002859723498,171.4435302670138,0.9202448663505522,84975.84224393182,1.0866672953751273,5.636265587777986,745.2083093792786,0.5942028985507246,0.6,0.8641975308641975,0.13513513513513514,49.98836938822982,49.98257722114763,49.82515078764849,49.629629629629626,0.48036114554174797,0.5196388544582521,109.34739567624128,113.73007259192576,0.5502227088113288,0.4497772911886712,127.17166466238427,114.97935370062996,0.5181885486818463,0.4818114513181536,118.5948675832525,114.3564191228006,0.7539789407044327,3.2675097071462114,1.6973790916153912,2.142445762590879,-0.7861318960786008,-1.2955558327052816,-0.3637902528637929,0.017457546805958225,1.3275026997363917,0.7817033280853475,8.229480806463869,2.449354022336796,3.8110319323071558,-5.373890890321654,-3.644767939239311,-0.33453659568647076,0.06495433482198897,6.199684886613401,0.6125972394672496,0.5322761503639518,6.573927083511377,0.5916234616666703,0.993539885498171,0.9129333885282069,0.9917457808475829,1.085363623187117,1.931083670363804,2.6316965374761954,0.9271988421884568,Stress
106.72743465051963,569.0,159.19721048064102,,,,,,,212.9479563573887,213.72921848010577,0.2797842011962057,0.37424948393214186,536.5,76.3539,0.14231854613233924,102.5,0.7475874068190714,461.4,591.6,33.33333333333333,51.449275362318836,343.0,1359.0,15.333333333333334,226.5625,,,0.04455135650230138,0.11888621441236184,0.015535809386639834,0.17897338030130305,0.3747394659886564,0.24892727861148306,0.6642675810906403,-2.1295884247123906,151.12937972498392,167.8468969885408,0.9004002006382148,79691.51613467287,1.1106172558504404,5.60838219933766,745.6546405456988,0.6086956521739131,0.6148148148148148,0.8795180722891566,0.2,50.12433171702102,50.12887060315215,49.93907164853853,48.888888888888886,0.48180753176329866,0.5181924682367014,104.9025633343516,108.7914728222002,0.5515630914360009,0.44843690856399876,124.65534796228508,112.39939970072555,0.5203311471634906,0.4796688528365094,115.20308930257907,110.61014784346641,0.578484601953755,2.4040828592814343,1.3937271849546045,1.4774320193881856,-0.4868184537563476,-0.8028868490339449,-0.4651822173639223,0.013260716375963953,0.7111988133226955,0.371492692676324,0.9121700318068617,1.073171391226294,0.617086375322863,2.942207563197406,0.5206990450852662,-1.0,0.005247106686317015,0.13051271889696087,0.5400501775561852,0.37628341532710885,6.584867482093457,0.5369943591455864,0.9353795387962907,0.7492042104818456,0.7578132131251774,1.0303036889418626,1.9343159318219718,2.4665378760546934,0.8756877954002092,Stress
107.12540198422195,566.7985611510792,156.7881973826296,,,,,,,209.2211921540856,209.98327146197852,0.2766206693683507,0.3691279521408631,534.0,74.13,0.1388202247191011,99.5,0.7493896567951847,464.0,586.4,29.496402877697843,48.201438848920866,343.0,1359.0,13.9,226.5625,,,0.04179579701216962,0.10594488260016785,0.01536617675801749,0.16310685637035496,0.39450510479024686,0.2562479465441166,0.6495427902773532,-2.24483629557431,148.48059518650064,165.32849374236307,0.8980944048149554,77120.04627459093,1.1134686895260653,5.594137391447767,736.3524050745092,0.6402877697841727,0.6444444444444445,0.8850574712643678,0.25,50.098309083759354,50.089567626004964,49.92154849330491,48.888888888888886,0.48362221607139777,0.5163777839286021,103.25784464994331,106.69736860463469,0.5538630433957581,0.446136956604242,123.0407310700835,110.42866177246727,0.5225028877605736,0.4774971122394263,113.58081700712589,108.57904449757157,0.7383639098169092,3.031996396931202,1.5132293473127252,2.003859166450523,-1.4372329648526332,-1.9362270811886584,-0.3381825850339457,0.008430897428322348,0.8750080751597809,0.9933894487250171,4.261075578535701,1.7471456185896819,1.9445845705046996,-3.041523351700313,-1.0375569202813346,-0.4536645271185575,0.0022965821486058123,0.9098996977324413,0.5142289954618233,0.3649737467534274,6.5846629251948,0.4805827198498312,0.9139436056468521,0.8158892297874931,0.766859126540585,1.006087645071719,1.9302390546138302,2.3437115509750415,0.9218772612159938,Stress
105.0732275252,577.1240875912408,167.14908127597963,,,,,,,206.9121723312177,207.67645724358403,0.2896241637974504,0.35852284938376583,536.0,71.1648,0.13277014925373135,93.0,0.8078262356088615,479.2,590.2,29.1970802919708,46.715328467153284,343.0,1359.0,13.7,226.5625,,,0.03538308367521297,0.09554531930343764,0.010271433596151517,0.14119983657480212,0.37032775580394045,0.25058870132946937,0.6766673504811139,-2.348154596377618,146.84943120973637,185.83334271227147,0.7902211146096937,85732.55767916748,1.2654685903880465,5.640115890289244,940.6650329967877,0.6058394160583942,0.6090225563909775,0.8641975308641975,0.25806451612903225,50.23722380371425,50.32956972473621,49.96222237870278,47.368421052631575,0.4789414205533001,0.5210585794467001,101.62833521473488,106.00269039213283,0.5375521125671431,0.46244788743285714,136.2491888460876,126.37321631738156,0.515021677800424,0.4849783221995762,120.19184660311898,116.63352899739012,0.6343868899489302,2.24527191986685,1.4214980626248492,1.4418505706676426,-0.5132427060086613,-0.8429934383600639,-0.49093539278574305,0.01282291130582855,0.6176506125347871,0.4459978508141141,2.0941418158307505,1.047051596640645,1.4930687587294893,-1.3663560016606784,-2.347499589520996,-0.2870167346274453,0.006667663873178543,0.4758363047818621,0.47317916743006183,0.3518349237347312,6.599749874883955,0.44953698299897615,0.9721280917440637,0.8642458233382326,0.7989451970156861,0.994555643439672,1.915946138794573,2.292227867786723,0.828967250564733,Stress
