PPG_Rate_Mean,HRV_MeanNN,HRV_SDNN,HRV_SDANN1,HRV_SDNNI1,HRV_SDANN2,HRV_SDNNI2,HRV_SDANN5,HRV_SDNNI5,HRV_RMSSD,HRV_SDSD,HRV_CVNN,HRV_CVSD,HRV_MedianNN,HRV_MadNN,HRV_MCVNN,HRV_IQRNN,HRV_SDRMSSD,HRV_Prc20NN,HRV_Prc80NN,HRV_pNN50,HRV_pNN20,HRV_MinNN,HRV_MaxNN,HRV_HTI,HRV_TINN,HRV_ULF,HRV_VLF,HRV_LF,HRV_HF,HRV_VHF,HRV_TP,HRV_LFHF,HRV_LFn,HRV_HFn,HRV_LnHF,HRV_SD1,HRV_SD2,HRV_SD1SD2,HRV_S,HRV_CSI,HRV_CVI,HRV_CSI_Modified,HRV_PIP,HRV_IALS,HRV_PSS,HRV_PAS,HRV_GI,HRV_SI,HRV_AI,HRV_PI,HRV_C1d,HRV_C1a,HRV_SD1d,HRV_SD1a,HRV_C2d,HRV_C2a,HRV_SD2d,HRV_SD2a,HRV_Cd,HRV_Ca,HRV_SDNNd,HRV_SDNNa,HRV_DFA_alpha1,HRV_MFDFA_alpha1_Width,HRV_MFDFA_alpha1_Peak,HRV_MFDFA_alpha1_Mean,HRV_MFDFA_alpha1_Max,HRV_MFDFA_alpha1_Delta,HRV_MFDFA_alpha1_Asymmetry,HRV_MFDFA_alpha1_Fluctuation,HRV_MFDFA_alpha1_Increment,HRV_ApEn,HRV_SampEn,HRV_ShanEn,HRV_FuzzyEn,HRV_MSEn,HRV_CMSEn,HRV_RCMSEn,HRV_CD,HRV_HFD,HRV_KFD,HRV_LZC,Labels
75.62710592568396,794.38,59.05429448371809,,,,,,,79.69601335985725,80.10159108180262,0.07434010735884349,0.10032479840864227,797.0,45.9606,0.05766700125470514,66.25,0.7409943357776996,751.8,834.6,28.999999999999996,57.99999999999999,634.0,1010.0,9.090909090909092,187.5,,,0.03276432406212884,0.05925575936274597,0.03508175286913341,0.12710183629400823,0.5529306250478622,0.2577800999376545,0.46620694940769614,-2.8258922992564104,56.640378237774506,61.94122386067352,0.9144213612113576,11021.883077654371,1.0935877511383527,4.749225909592737,270.9526548182049,0.5,0.5151515151515151,0.7450980392156863,0.07407407407407407,49.979415397282835,50.083876808413905,49.87496695742073,42.42424242424242,0.41313689379987706,0.5868631062001228,36.40601542580118,43.390490823192486,0.6282860940321725,0.37171390596782744,49.097401309178835,37.76453889621207,0.5303099293749707,0.46969007062502927,43.22009240213531,40.67490068777713,0.7096107728592964,2.580252473224884,1.243674690491676,1.4700299408534918,-0.7611458785066088,-0.5704872078840397,-0.412273991514129,0.002890394920458292,0.49863616268859323,0.6167390361361136,1.6945957207744071,6.166111814666549,1.1747880246261004,1.403071360265936,1.264313858119937,1.3955339591020237,1.7809545463780148,1.8723335861216335,3.0443048978415037,1.063016990363956,Relax
75.82306949622287,792.2020202020202,59.78686290038117,,,,,,,79.0593293104641,79.46545654512998,0.07546921287215964,0.09979692969010998,796.0,50.4084,0.06332713567839196,71.5,0.7562278028643475,744.6,830.4000000000001,25.252525252525253,56.56565656565656,634.0,1010.0,9.0,187.5,,,0.023895506117511005,0.05042415994072663,0.02243854428425491,0.09675821034249255,0.47389001910195555,0.24696101791185157,0.5211357233896899,-2.9872848548596793,56.190563193146325,63.72540345950084,0.8817608071929571,11249.30913403145,1.1340944072842742,4.758095961432194,289.08249466141535,0.5050505050505051,0.5204081632653061,0.7450980392156863,0.08,50.247258654052885,50.36015702320945,50.132566099659684,42.857142857142854,0.4129007717084845,0.5870992282915154,36.106728961353724,43.05474817260212,0.6233461326452971,0.3766538673547029,50.31265416499378,39.10963918204687,0.5312941886469199,0.46870581135308015,43.78960519013003,41.12952234804145,0.7409528081395597,2.4934616350607777,1.321409902906444,1.5179444740614858,-0.8097212334706931,-0.8192566829210115,-0.42118003004676213,0.0028853082408350794,0.47838687456750795,0.5933698409816248,1.666596326274049,6.1179506556039485,1.093528480667218,1.1946424228031294,1.304440065732051,1.431270596789975,1.7839308343724731,1.8617201521373659,2.843565930782436,1.0714111709219571,Relax
76.09564424315828,789.82,60.16330973594986,,,,,,,79.15832491936905,79.53970989652021,0.07617344424799304,0.10022324696686466,792.5,51.149699999999996,0.06454220820189274,72.0,0.7600376814091558,743.2,828.0,23.0,54.0,634.0,1010.0,10.0,187.5,,,0.036552820261521464,0.07467423190281476,0.04173896154372908,0.1529660137080653,0.48949710402235347,0.2389604028727734,0.4881753148469311,-2.594620200800761,56.24306824144018,62.89315756258486,0.8942637072319483,11112.76873967303,1.1182383808187204,4.752792386594354,281.31817070944624,0.53,0.5408163265306123,0.7924528301886793,0.07692307692307693,51.96289905090594,52.178819644386934,51.74800846201384,44.89795918367347,0.43353300942389456,0.5664669905761053,37.04224009182501,42.34220406282554,0.6141190463990664,0.3858809536009337,49.28669338235902,39.068799874394045,0.533850830865703,0.46614916913429705,43.596477470015174,40.738393245950505,0.7070443434428114,2.7604233674791354,1.3756160788074085,1.6626161691055716,-0.9876262194712524,-1.1357795568284872,-0.39603040834991327,0.00455475239025113,0.6422361953398182,0.7041525518151457,1.7090677533829415,6.101209564709818,1.0659492191745341,0.8752068056527491,1.4139718348004955,1.6232442973816532,1.7626220724047512,1.8480018281544182,2.3009456945148696,0.9301398665684615,Relax
75.93488044532985,790.83,57.84235891497238,,,,,,,76.13080184720893,76.5164172639112,0.0731413311520458,0.09626696236512136,789.0,50.4084,0.06388897338403042,68.5,0.7597760369194505,748.2,827.2,20.0,53.0,634.0,1010.0,12.5,187.5,,,0.05902390463206994,0.09569757604729609,0.06138731893139882,0.21610879961076485,0.6167753361161298,0.27312124605003746,0.4428212836296241,-2.346562309503397,54.105277519411025,61.26501010867254,0.8831350459820132,10413.626839869254,1.1323296528086906,4.724572121145784,277.4887505026964,0.52,0.5306122448979592,0.7692307692307693,0.07692307692307693,50.599630996309976,50.688143788474136,50.510097934959816,42.857142857142854,0.4045319400342283,0.5954680599657718,34.41330426163814,41.7521843495545,0.60506731998441,0.3949326800155903,47.655645672003466,38.501180490995424,0.5171945041320365,0.4828054958679635,41.565226299273434,40.15959285873918,0.7236302618306103,2.6809325422572874,1.4160914655280075,1.6371888559045549,-0.7278678207804621,-0.8904221503113154,-0.4175296704070039,0.004823723333161549,0.6314501844857365,0.6964519256266022,1.6739764335716716,6.10611181466655,1.0665939776116264,1.0431573187070406,1.318390684825102,1.8397064813033517,1.8484414981445367,1.851302987039315,3.1426943567369143,0.8637013046707142,Relax
76.31960717736851,786.94,56.76085220849263,,,,,,,75.63014737470232,76.01434186413319,0.0721285640690429,0.09610662486937037,784.0,48.1845,0.061459821428571426,63.75,0.7505056406577714,744.8,825.2,19.0,54.0,634.0,1010.0,12.5,156.25,,,0.06319502174863498,0.07615267585287912,0.04333986399959268,0.18268756160110677,0.8298463716589908,0.3459185792113179,0.4168465284963208,-2.5750150610215767,53.75025659956104,59.62153363280143,0.9015242199336811,10067.776310824578,1.1092325396133706,4.709903667647238,264.5365806686253,0.54,0.5510204081632653,0.7777777777777778,0.07407407407407407,49.62669155389639,49.77070439596258,49.485355794242395,43.87755102040816,0.39561730051989147,0.6043826994801084,33.80820755318424,41.78693526909665,0.604127366394733,0.3958726336052671,46.34121303466558,37.512921069986184,0.5106407884030028,0.48935921159699725,40.561699443461706,39.70747540694754,0.6666065703108696,2.8325831008279847,1.267229353047754,1.493186999071686,-1.1681013182824653,-0.9115244162315055,-0.4202291202126135,0.0025629580304051326,0.5585845716177997,0.7447540257217549,1.8458266904983305,6.141209564709819,1.04132680526786,1.4352528575288015,1.1826275284170589,1.7338606224412736,1.7614484839251094,1.8518777099895412,2.803299817282643,0.9301398665684615,Relax
76.58958470498251,784.1287128712871,55.72174860255853,,,,,,,77.91110318818494,78.30354043365118,0.07106199235903395,0.09936009472589466,781.0,47.4432,0.060746734955185656,62.0,0.7151965037379758,744.0,819.0,20.792079207920793,53.46534653465347,634.0,1010.0,11.222222222222221,156.25,,,0.05789473232876315,0.06026673435581482,0.031081027930347428,0.1492424946149254,0.9606416034914491,0.38792391187337627,0.4038175220222276,-2.8089749965321573,55.36896443154976,56.46338046321114,0.9806172421367076,9821.620503321335,1.0197658750330134,4.699153259417577,230.31771434155382,0.5643564356435643,0.5757575757575757,0.8070175438596491,0.1111111111111111,49.890013198416185,50.01250914824623,49.768412102076425,46.464646464646464,0.4041158853008332,0.5958841146991667,35.19814044674933,42.74129363763083,0.5945220136211777,0.4054779863788221,43.53623271007562,35.95427338644844,0.5011820490687726,0.4988179509312272,39.58732530428742,39.49384734718597,0.6303166399719714,2.551029008107871,1.3172161112627019,1.3744502809574228,-0.18572489481726873,-0.08856354906909458,-0.47756428111447774,0.00477440030968573,0.5987959055894603,0.7624615918642332,1.8803128665695,6.172869403458195,1.063656735816525,1.4521918462230183,1.1737799018966468,1.4913811298334876,1.7621433336337784,1.882917243336091,3.208192770302104,1.0547661754854327,Relax
76.88097039785546,779.9509803921569,60.348390751999744,,,,,,,86.22828324675824,86.61450842270554,0.07737459439009457,0.11055602905121413,781.0,45.9606,0.05884839948783611,62.25,0.699867705579869,744.0,814.8,22.54901960784314,52.94117647058824,525.0,1010.0,11.333333333333334,320.3125,,,0.06658824546347478,0.0707076910056398,0.03515546614336683,0.17245140261248143,0.9417397812942804,0.38612759568622584,0.4100151691113136,-2.649200928323709,61.24570625483443,54.26152567258712,1.1287133101341402,10440.409194088235,0.8859645678149721,4.7256876303954645,192.29515656597863,0.5784313725490197,0.5900000000000001,0.8305084745762712,0.1111111111111111,47.23166100339796,46.93842846814283,47.44982015429694,47.0,0.3446795931112818,0.6553204068887181,35.97519979096711,49.6046368800337,0.5803506931453986,0.41964930685460167,41.33683814794979,35.15080340827268,0.44825836249928636,0.5517416375007137,38.74886571288118,42.989527679697964,0.6309107520552389,2.7465992802194252,1.3418847037700512,1.5086862504044256,-0.5438416417298679,-0.5411145901281016,-0.43926979161625324,0.005071771502079766,0.6747402559539023,0.7652875519464191,1.6029653979284828,6.199242376221589,1.0074937337095364,1.4023272894074106,1.2134242268274273,1.7073659244572055,1.6298274742217935,1.9418320036447296,2.6811130167980055,1.2429027597790039,Relax
77.28624716983161,778.3861386138614,54.821340789336716,,,,,,,75.16189193999841,75.46636885582099,0.07042949259985765,0.09656119014894794,781.0,47.4432,0.060746734955185656,66.0,0.7293768075063954,739.0,814.0,21.782178217821784,53.46534653465347,634.0,1002.9999999999999,11.222222222222221,218.75,,,0.06679324199381037,0.07711782731535839,0.04114942305192794,0.18506049236109667,0.8661193438538195,0.36092653348982234,0.4167168601544803,-2.5624208018547363,53.36278116947629,50.8854819445318,1.0486838117725779,8530.651907372845,0.9535762722509389,4.637952330924922,194.09275273743634,0.5643564356435643,0.5757575757575757,0.8245614035087719,0.11538461538461539,53.699177960453234,53.45757236290806,53.992595619572626,48.484848484848484,0.5541119180926519,0.4458880819073479,39.76160017510422,35.667941070406904,0.5412697523964829,0.45873024760351727,37.436976882907,34.46454750313661,0.5480021308370098,0.4519978691629905,38.61678447654699,35.07140612235258,0.6876355203964708,3.265153982868549,1.3342696546776194,1.7591251887269417,-1.7998730363807791,-1.5749662088430583,-0.36988193013915005,0.004102472431822231,0.7671589269144213,0.6983665598884832,1.7578579175523734,6.180343537142982,1.0409288381737085,1.3782025586173807,1.303508636513677,1.6741822884332958,1.739467231497359,1.9044293653003095,2.3011379042875744,1.1866119474211119,Relax
76.6017547115243,784.1089108910891,51.26341794888417,,,,,,,67.14372643814163,67.47852333232485,0.06537793058699794,0.08563061266812684,784.0,45.9606,0.058623214285714285,61.0,0.7634878292927677,745.0,823.0,18.81188118811881,53.46534653465347,634.0,922.0,10.1,156.25,,,0.07321481000112348,0.09530331552060567,0.04980079299938518,0.21831891852111435,0.7682294115496286,0.33535714860204674,0.4365325559790576,-2.3506906785745207,47.71452143274158,53.98756123105365,0.8838058312827841,8092.713293778102,1.1314702444863574,4.615064264572098,244.34127642128982,0.5544554455445545,0.5656565656565656,0.8035714285714286,0.12,50.829673011225,50.78449599474488,50.872398278872645,51.515151515151516,0.48576175392832727,0.5142382460716726,33.257109819335675,34.21803234222765,0.44441809736108356,0.5555819026389163,35.99064066047609,40.24090645754954,0.4625505356376198,0.5374494643623803,34.6508410337099,37.35106618223227,0.6749859180652095,3.015697912005482,1.3427562971578557,1.651791139786793,-1.3560348842992767,-1.267424295905409,-0.3975246023818662,0.003835053311120041,0.6856206324344446,0.7316049880154187,1.8718021769015913,6.172869403458194,1.0930861650400687,1.2369533106439123,1.236057326412172,1.6233086960724314,1.9354523035152553,1.8520446948376872,3.0663283513576527,0.9888432895175933,Relax
76.72656394042245,782.1782178217821,56.879591426029776,,,,,,,80.7370423040131,81.13862623107853,0.07271947764593681,0.10322077560386486,783.0,44.477999999999994,0.05680459770114942,60.0,0.7045042746531542,745.0,826.0,22.772277227722775,56.43564356435643,625.0,958.0,11.222222222222221,132.8125,,,0.05320762263172771,0.05219769043381859,0.015741463864392728,0.12114677692993903,1.019348216166568,0.4391996549978252,0.4308632202737452,-2.9527170296352256,57.373672824156316,54.29065948273888,1.0567871779564153,9785.604122807035,0.9462643196842825,4.697557752332161,205.49325584257977,0.5742574257425742,0.5858585858585859,0.8275862068965517,0.11538461538461539,49.06666666666667,49.0330628554774,49.081384129176236,49.494949494949495,0.41456967662657024,0.5854303233734297,36.94358243089431,43.90134716416209,0.5063579897909217,0.49364201020907816,38.63260118073722,38.144433841398246,0.45792861372730953,0.5420713862726905,37.79752741131476,41.12375296534286,0.6689541985445001,2.6022843529941984,1.3508206781930991,1.4804731571094472,-0.36375874791858465,-0.37334268600955334,-0.4501774359257975,0.004701432233216417,0.6148703213707787,0.6732479349009926,1.5324768712979722,6.200145517341001,1.0104592194108368,1.3493495944929363,1.175281687358566,1.4296083138559241,1.8032844508092316,1.8856013709203538,2.874220878343858,1.1206890614532723,Relax
76.3482640377107,786.2178217821782,56.80327525070998,,,,,,,79.31714820894659,79.71148669489932,0.07224877594602191,0.10088444450311815,783.0,50.4084,0.06437854406130268,68.0,0.7161537767478994,746.0,827.0,22.772277227722775,56.43564356435643,636.0,977.0,11.222222222222221,125.0,,,0.03866593345725516,0.03061183054420802,0.0032103372336110343,0.07248810123507422,1.2631042564219026,0.5334107639523352,0.4223014539301538,-3.4863687256499403,56.36453278042457,57.24827155434123,0.9845630488061495,10137.203457087067,1.0156789869501692,4.712888272980321,232.58346582784594,0.5643564356435643,0.5757575757575757,0.8070175438596491,0.12,49.056212404065555,49.09991155576787,49.00749922173078,48.484848484848484,0.41505052287238864,0.5849494771276113,36.31491053648249,43.11155367886966,0.5377733472843472,0.4622266527156528,41.98189287109865,38.921527037350316,0.4773624407793003,0.5226375592206995,39.250809267536965,41.07000929830216,0.7005121304575486,2.4271223163433806,1.3408295616137382,1.5679296040026358,-0.3417739613216,-0.6629410239503957,-0.40643238667466963,0.005391907180956816,0.5857795081294749,0.6954556966377532,1.6253112615903909,6.227421631223805,1.0820809266856712,1.3795017214349994,1.222991416433564,1.5359933160415065,1.8043497173864005,1.905618610467627,3.5255779838518144,1.0547661754854327,Relax
76.4327448420281,786.7722772277227,58.299207745580695,,,,,,,83.65022414793638,84.0715520172303,0.07409921451605318,0.10632075705906543,783.0,50.4084,0.06437854406130268,68.0,0.6969402454018279,746.0,827.0,22.772277227722775,53.46534653465347,636.0,977.0,10.1,164.0625,,,0.060561525045837374,0.08947678526453229,0.006160412331775363,0.15619872264214502,0.6768406449426091,0.38772100066775367,0.5728394173204971,-2.4137760698659836,59.4475645362611,54.73591142933495,1.0860797415058847,10222.480571236998,0.9207427058840705,4.7165264037724075,201.5907647939067,0.5841584158415841,0.5876288659793815,0.8070175438596491,0.16666666666666666,50.11942675159236,50.16125980089622,50.07439522172279,50.51546391752577,0.4628631369545086,0.5371368630454915,40.4446248192226,43.568939914261456,0.48077199893272565,0.5192280010672745,37.95263527401522,39.44131686135207,0.4710798258268647,0.5289201741731352,39.218428072846706,41.5564074542669,0.6656997664274031,2.795203525117275,1.3279818016856955,1.6660261517295654,-1.2047413062765635,-1.4218042393425057,-0.3790627061656675,0.004250235341746344,0.6371798374101351,0.6884658429455848,1.5945122622174246,6.168015690629749,1.0201863195028995,1.5200326891736673,1.2355049966583436,1.5486949427854628,1.7442900511513284,1.9040106511110961,2.7206700951030296,1.1866119474211119,Relax
76.34940878777594,787.53,57.122667050034444,,,,,,,76.93182079286211,77.29223152298904,0.07253395686517904,0.09768747957901555,784.5,48.1845,0.0614206500956023,66.5,0.7425102702799203,748.4,827.0,21.0,52.0,636.0,996.0,9.090909090909092,164.0625,,,0.06385457458036595,0.10279295193066892,0.010916136146507648,0.17756366265754253,0.6211960390381058,0.359615101562299,0.5789075894932408,-2.275038489297195,54.65386104294617,56.187319230414936,0.9727081090809777,9647.37217059497,1.0280576368843146,4.691379142763865,231.05521052353993,0.57,0.5729166666666667,0.7818181818181819,0.16666666666666666,52.38515901060069,52.14270599077827,52.65234828754725,51.041666666666664,0.5251872230907342,0.474812776909266,39.62348303926934,37.67530453000441,0.4813770322755526,0.5186229677244473,38.98351492152181,40.463568881946664,0.5026849475294727,0.4973150524705274,39.30480151202763,39.09430251387415,0.618625247757259,2.8044517929263804,1.3042736676866924,1.55367737505562,-0.930710155502533,-0.9893394293852632,-0.41106864165110835,0.004395440380132132,0.6548626953777011,0.6949276734427658,1.5869650565820417,6.153660689688185,1.0065449524994081,1.1728516523349164,1.330260276799396,1.7500084393692237,1.7781965475629053,1.8656431320687763,2.9600814512290627,1.063016990363956,Relax
76.18723107108721,788.54,54.87017183840194,,,,,,,71.3326961172332,71.67369771783451,0.0695845129459532,0.09046173449315596,787.0,48.925799999999995,0.062167471410419305,65.25,0.7692148877735452,749.0,827.0,19.0,50.0,636.0,977.0,9.090909090909092,164.0625,,,0.057466386216601585,0.1256227019119809,0.018172886356334437,0.20126197448491692,0.45745223866356666,0.28553027149650795,0.6241750446575063,-2.074472293574083,50.680957688995555,56.44440021294305,0.897891686292985,8987.016687634918,1.1137200792320252,4.660585658077382,251.45304750945235,0.57,0.5729166666666667,0.7818181818181819,0.16666666666666666,52.09882465819141,51.89872152737103,52.3141428258471,52.083333333333336,0.522242316083272,0.4777576839167281,36.63652131244929,35.041447761536475,0.4725750313979055,0.5274249686020945,38.80219094113661,40.99219795969061,0.4947517803400345,0.5052482196599655,37.734895757839155,38.13307851977698,0.7521643777304906,2.589629119584449,1.407732828116093,1.580577541022721,-0.591320673753085,-0.6489122537273614,-0.4332550319273657,0.004015025175909215,0.5743646401386107,0.6990629873595409,1.6796421711073486,6.181209564709819,1.036775092273926,1.2995978107485917,0.9832313493759803,1.2852619008093011,1.8320519626086724,1.8437155939259655,3.1047179931637254,1.063016990363956,Relax
76.41630077041518,786.7920792079208,59.220995741659586,,,,,,,82.04864410823618,82.45484592285413,0.07526892721299194,0.10428249886658261,787.0,56.3388,0.07158678526048284,75.0,0.7217790907493483,744.0,827.0,21.782178217821784,52.475247524752476,636.0,1010.9999999999999,10.1,164.0625,,,0.05406097114998077,0.12397744462151264,0.015502696798545863,0.19354111257003925,0.43605489139594733,0.27932551607306183,0.6405742065611373,-2.0876556281361944,58.30438069374211,60.03085738504688,0.9712401793592437,10995.768948026305,1.0296114403542593,4.7481957154828525,247.23383015167695,0.5742574257425742,0.5773195876288659,0.7857142857142857,0.16666666666666666,51.11570247933884,51.09186254693071,51.12759916799978,53.608247422680414,0.507443575292856,0.492556424707144,41.536767210545285,40.92293817270295,0.4422292989917109,0.5577707010082892,39.92071419980136,44.83347428163041,0.4738880049557688,0.5261119950442311,40.73675522501303,42.92276368576751,0.7244908361031984,2.907843539351684,1.4199301752551676,1.7165376498549354,-0.954440258217037,-1.02459390210175,-0.39799744360871026,0.005044061112797265,0.723113988776244,0.68632402303178,1.6964492894237302,6.212473363854232,1.050965332684899,1.4859523643014552,1.1271432774987822,1.6436218748911338,1.7939503120372633,1.876424233329798,2.839615441493622,0.9229204035497537,Relax
77.15252407660897,779.1287128712871,69.72828168918788,,,,,,,98.33946308578261,98.8331003114428,0.08949520218837971,0.1262172237541814,784.0,57.8214,0.07375178571428571,79.0,0.7090569696151698,739.0,827.0,27.722772277227726,55.44554455445545,543.0,1010.9999999999999,10.1,242.1875,,,0.051976533506041735,0.10339676645351523,0.01313597623542978,0.16850927619498673,0.5026901255118957,0.30844909360300293,0.6135968819536793,-2.2691815896065113,69.88555543591148,70.09747145975027,0.9969768378312981,15390.036377283788,1.0030323293922034,4.894209756332252,281.2401203311072,0.5841584158415841,0.5876288659793815,0.7719298245614035,0.23809523809523808,49.499066055357446,49.69832330274625,49.31251269324406,52.57731958762887,0.43239389286138974,0.5676061071386101,45.95523733356012,52.652472195356864,0.6116367115293075,0.3883632884706924,54.821274106837116,43.68390333238932,0.5222850387969387,0.4777149612030615,50.582882149403105,48.37647278707059,0.5592700131350121,2.6239116562167695,1.2279432419025098,1.4860145709613066,-0.4924839277648445,-0.7149183763818,-0.40164633460606236,0.005886570925924484,0.6695247422133336,0.6619287243029484,1.547562508716013,6.252077324250273,0.9790424536211664,1.5040920315113282,1.5108879607069856,2.112578159992905,1.6697368852549048,1.9225765847562175,2.927071491051666,1.0547661754854327,Relax
77.63768124546318,774.4411764705883,71.09351999121176,,,,,,,97.4727684743765,97.95678477353326,0.09179976756299418,0.12586206859324753,780.0,58.5627,0.07508038461538462,77.75,0.7293680184112215,727.2,826.4000000000001,26.47058823529412,55.88235294117647,543.0,1010.9999999999999,9.272727272727273,242.1875,,,0.04866192993694054,0.10164606410052547,0.041162933267276366,0.19147092730474236,0.4787389493882919,0.25414787833293834,0.5308694407623935,-2.286258459770307,69.2659067765965,72.98873166794343,0.9489945255072573,15882.732214401558,1.0537468585137297,4.9078953236430065,307.6465868079879,0.5588235294117647,0.5612244897959184,0.7454545454545455,0.17391304347826086,49.44812362030903,49.58890598037962,49.317288869242596,53.06122448979592,0.4354649617807512,0.5645350382192488,45.70940822194047,52.04445215390397,0.5976835463579862,0.40231645364201374,56.42758544825088,46.295599693441645,0.5208148697674612,0.4791851302325387,51.348916247179226,49.253972179791724,0.5690746070313556,2.744752223061062,1.2480193665438348,1.4632340569608409,-0.5540905552720066,-0.5662011690424056,-0.4215904850686342,0.00528374543576949,0.6793488862306543,0.5895351743021062,1.246532418744732,6.312083307636559,0.9388708210152669,1.6252560336190645,1.5043648196846644,1.6870895857873993,1.693225043629488,1.897674493235254,3.0871183604769024,1.1120708903285825,Relax
77.99546493899585,770.8529411764706,74.21888914633065,,,,,,,98.47339692013318,98.9620879503113,0.09628151516560121,0.1277460221788137,777.0,67.4583,0.08681891891891891,98.5,0.7536948197950951,706.2,827.0,27.450980392156865,56.86274509803921,543.0,1010.9999999999999,11.333333333333334,242.1875,,,0.03165215420007005,0.07543362356101742,0.041913063907088065,0.14899884166817554,0.41960272761478806,0.21243221655749686,0.5062698657014405,-2.5845021675455437,69.97676347004463,78.42602303514381,0.8922645923112416,17241.05817014362,1.1207437890252827,4.943534027097313,351.5819128583647,0.5294117647058824,0.5353535353535354,0.7169811320754716,0.23809523809523808,50.585088599130735,50.718368294141214,50.45485085411768,51.515151515151516,0.4474789615661864,0.5525210384338134,46.811323416455544,52.01624746173064,0.5953388206472292,0.40466117935277085,60.5121096328205,49.889133855925195,0.529798231404067,0.4702017685959328,54.09720608411532,50.963789482800536,0.6270996452785198,2.283703180624121,1.2680995214592343,1.3251506431873104,-0.03333412275182557,-0.10648721268916606,-0.475018153754778,0.004494939284752106,0.5059394246283851,0.595578137680917,1.339774345484998,6.429730366460088,0.9277710186028426,1.3379461773519572,1.4971330614116918,1.8376707000464918,1.742571181885825,1.8808776039398736,3.2503859020807293,1.1120708903285825,Relax
78.30686359009697,768.4368932038835,77.4436759152921,,,,,,,104.66819656681307,105.18352747252206,0.10078078837730213,0.1362092287506064,776.0,74.13,0.0955283505154639,107.0,0.7398969166900409,696.4,827.6,31.06796116504854,58.252427184466015,543.0,1010.9999999999999,12.875,242.1875,,,0.024565305953159623,0.05948891083889929,0.007433157208143065,0.09148737400020197,0.41293924542818455,0.26851034059744017,0.6502417572808239,-2.8219653562555314,74.37598554494186,80.75797612991717,0.9209738667211216,18869.831965600275,1.0858071397402724,4.982738142785043,350.7503482913542,0.5436893203883495,0.55,0.7454545454545455,0.22727272727272727,50.4389948531638,50.5654555507136,50.31340273141803,50.0,0.4490368283616148,0.5509631716383852,49.84023981634212,55.207798272517714,0.6183028585446357,0.38169714145536404,63.501802621098136,49.89360452474209,0.5406202019580563,0.45937979804194395,57.08120724493921,52.61783330093692,0.532518624295828,2.6497853478760742,1.2122789627163288,1.5107637728230427,-0.6318957757841037,-0.9377261619482948,-0.3873550982739175,0.006408517867418105,0.6924747938642216,0.59347583638767,1.3274538610969575,6.465579289298136,0.9572436386554981,1.1844348535285651,1.5139088457570529,1.944068329111116,1.7424089250140178,1.9022154361789536,3.497671131695008,1.2334321360823413,Relax
78.922098492645,762.3786407766991,83.02316195896066,,,,,,,111.02596410697072,111.56014907126884,0.1089001678672136,0.14563100035680335,774.0,90.4386,0.11684573643410852,124.0,0.7477814998207981,683.4,827.6,38.83495145631068,63.10679611650486,543.0,1010.9999999999999,17.166666666666668,234.375,,,0.01430596736870959,0.024725647491792322,0.010540122045396536,0.049571736905898445,0.5785881794787561,0.28859120663587945,0.49878517548676543,-3.6999142140794565,78.88493791847633,86.65704253419145,0.9103119101641559,21475.724497483614,1.0985245703526725,5.038917933918009,380.7795616716237,0.5533980582524272,0.5599999999999999,0.7857142857142857,0.21739130434782608,51.22382376937722,51.426599442974975,51.02088625364851,50.0,0.4647713806240209,0.5352286193759793,53.78592513450202,57.71897606524046,0.5932462152551291,0.4067537847448711,66.7454017198745,55.267480221421685,0.5350193098810998,0.4649806901189002,60.61301177685234,56.50652426067736,0.5737658714477993,2.9936710168883742,1.2147043664228816,1.6172352157450334,-1.2781954962082658,-1.3178075959600455,-0.3655393839031308,0.004714365987081993,0.7253417590813798,0.49802375955692657,1.166931532645587,6.4534908184453545,1.004909864552729,1.4505355061808836,1.0132251185530052,1.5538235700452472,1.7923501530484736,1.9265572790910706,2.8003623162201605,1.1035971743894633,Relax
79.1910070222299,759.9519230769231,81.54876792241515,,,,,,,106.78755790948607,107.30042458235204,0.10730779861999337,0.14051883371400709,762.5,90.4386,0.11860799999999999,123.0,0.763654207651574,685.2,827.4,37.5,62.5,543.0,1010.9999999999999,17.333333333333332,179.6875,,,0.01109245519391006,0.021682128843850283,0.009880838872710487,0.042655422910470836,0.5115943768158273,0.2600479478820767,0.5083088471390554,-3.831266913326864,75.87285784637683,86.42161041000976,0.8779384865245334,20599.594439575834,1.139031965620584,5.020828780117929,393.747907109639,0.5673076923076923,0.5742574257425742,0.7931034482758621,0.2727272727272727,51.018115433225674,51.05758194321414,50.9804784208144,50.495049504950494,0.46667415877653834,0.5333258412234615,51.835949747974226,55.41412717165252,0.5809055358390448,0.419094464160955,65.86809640001582,55.947194947537184,0.5311784981092244,0.46882150189077576,59.26875993993921,55.68129898221578,0.6415993421613966,2.306219436788549,1.2439967143608204,1.259525581981118,-0.013777260906661759,0.17332461913570785,-0.4932665264317077,0.0037256110082049617,0.4652333432237372,0.49398705641246066,1.1711829815029453,6.431208948910321,0.9917867935594985,1.3805967012409954,1.1775011841995064,1.4908020943773839,1.843370173392487,1.9069089943579989,3.583494328950217,0.9664095747318882,Relax
79.15527027924624,760.2211538461538,84.14192318630865,,,,,,,112.00489760442906,112.55247988029184,0.11068084959305996,0.14733199285203727,762.5,97.1103,0.12735777049180327,128.5,0.7512343208729596,683.6,831.2,37.5,62.5,543.0,1010.9999999999999,14.857142857142858,171.875,,,0.009856077542294922,0.023037580540130328,0.014884307606481417,0.04777796568890667,0.4278260698915896,0.20628918373105523,0.48218002185637865,-3.7706284599475826,79.58662176271682,88.4446796331806,0.8998463456795582,22113.71236150144,1.111300840194896,5.051631766279881,393.1545871484881,0.5673076923076923,0.5700000000000001,0.7894736842105263,0.2857142857142857,50.115067009611494,50.29529837717084,49.93286061739722,52.0,0.4354604165941129,0.5645395834058871,52.518810822371805,59.79814903030845,0.5840575720432241,0.41594242795677594,67.59266074542552,57.04115679726142,0.5175707586016948,0.4824292413983052,60.52682577519767,58.435914454300885,0.6282931480520919,2.3221311284585386,1.227621248512267,1.272984003923526,-0.04967339080381983,0.12333740932981052,-0.4804650328074403,0.004023974613748793,0.48091684890352243,0.46365722226931405,1.0793809267402221,6.366258107543366,0.9913532915296973,1.6310820784470461,1.040043775687475,1.5265148663325565,1.746796382622964,1.92244351863989,3.2930566392666853,1.09526418469614,Relax
79.31574869325117,759.2403846153846,85.67589585144542,,,,,,,113.99897802301238,114.51118270790309,0.11284422903142467,0.1501487280352742,762.5,96.369,0.1263855737704918,126.5,0.7515496834905877,683.6,828.0,38.46153846153847,61.53846153846154,543.0,1010.9999999999999,14.857142857142858,156.25,,,0.009485971014343984,0.01849627871009432,0.015879426676306298,0.043861676400744606,0.5128583518352277,0.21627014270213685,0.4216956629997919,-3.990185717937107,80.97163381444999,87.80610919364683,0.9221640106598488,22336.108392795606,1.0844057981447965,5.055977618456738,380.869815688503,0.5961538461538461,0.6,0.8166666666666667,0.2727272727272727,52.20058682315284,52.51673235305103,51.89343762692554,47.0,0.443031487474637,0.556968512525363,53.91651134929291,60.45327153443133,0.6316133506743088,0.3683866493256912,69.78312019694619,53.29379839442102,0.5449093290802295,0.45509067091977023,62.35653157649113,56.986081574893696,0.6180025942363028,3.217977559841743,1.313616874535103,1.8308817023950268,-1.6461470557878517,-1.8035333764108974,-0.3392577890178444,0.006786197642474809,0.8856512446035321,0.5181881748382176,1.0509842396788551,6.3662581075433655,0.9755647853111786,1.284755253874612,1.0920493757975034,1.3644317577474696,1.7567951375141095,1.9251443910577937,2.5505755770536522,1.09526418469614,Relax
78.93853345321537,762.2211538461538,83.11192088281001,,,,,,,107.39926415831522,107.91809685666387,0.10903911609305095,0.14090302219556688,768.5,85.9908,0.1118943396226415,120.0,0.7738593139734766,690.2,824.8,35.57692307692308,57.692307692307686,543.0,1010.9999999999999,11.555555555555555,281.25,,,0.010786851709738993,0.01474944528913517,0.013899062673137771,0.039435359672011935,0.7313394841828303,0.27353247946650877,0.37401574150224237,-4.216549804419748,76.30961810009366,87.07409904522906,0.8763756264702321,20874.599039988985,1.1410632265387028,5.02658825225431,397.4282096179986,0.5769230769230769,0.5757575757575757,0.7894736842105263,0.2727272727272727,50.87234661238732,50.972046691238106,50.79327123855618,48.484848484848484,0.41420075012793933,0.5857992498720608,49.11456195547743,58.40892860835978,0.6308371099976467,0.3691628900023532,69.1588250311023,52.90515707240397,0.5367239911032099,0.46327600889679016,59.97992695794591,55.725032911754326,0.6011488122642211,2.91772797742955,1.2799694339839818,1.6215961288523815,-1.0890513037545855,-1.1568789814011884,-0.3829134526895257,0.005576838652530083,0.731951054971812,0.5365671264086922,1.0326543208763124,6.308565799851059,0.961686910321521,1.0268685892091203,0.9803006336571126,1.2357363095541392,1.6701392125928978,1.9059996529278687,2.993935965100098,1.0308368797140142,Relax
79.45189471464631,757.7596153846154,84.7707926427937,,,,,,,118.5483801939189,119.12712312452348,0.11187029622813385,0.15644589364101624,760.5,93.40379999999999,0.12281893491124259,120.75,0.7150733945426117,685.2,824.8,39.42307692307692,60.57692307692307,543.0,1010.9999999999999,11.555555555555555,281.25,,,0.015199750560954791,0.02150190831426923,0.017511625575126907,0.054213284450350924,0.7069023985591009,0.2803694835142275,0.3966169644999261,-3.8396135889841294,84.23559658459531,84.55431188354696,0.9962306440457986,22375.9399706424,1.0037836177563195,5.056751398217391,339.4969323174517,0.6153846153846154,0.6161616161616161,0.819672131147541,0.3181818181818182,50.314062299705164,50.49401759809993,50.135651182907004,46.464646464646464,0.4223427030679093,0.5776572969320907,54.74338531086762,64.02274412039742,0.6392940780160001,0.3607059219840001,67.60613374689848,50.78230339297939,0.5312271712024558,0.46877282879754417,61.511899480903864,57.78301697991586,0.5146164201091883,2.383655393633777,1.129211036671562,1.1602840388697704,-0.09455164565584795,0.16103866312247384,-0.4869641382386071,0.003984921153301216,0.49565018483809326,0.5365214499634745,1.198242129616951,6.3662581075433655,0.9841025370045478,1.2717894054287204,1.0331044276692147,1.3114748714704405,1.6937879445523059,1.9573086070338235,3.3349384581680703,1.0308368797140142,Relax
79.46309504806489,757.7788461538462,83.47803114647952,,,,,,,114.41429573248776,114.94514703359724,0.1101614693656038,0.15098639439884692,759.0,88.2147,0.11622490118577074,115.5,0.7296118951923598,694.2,823.0,37.5,62.5,543.0,1010.9999999999999,11.555555555555555,156.25,,,0.01742005460662663,0.027959692377967544,0.030840295300670777,0.07622004228526495,0.623041712016609,0.2285495269266509,0.3668286127856529,-3.5769913638956665,81.27849293194137,83.60489352883836,0.9721738704673486,21348.00093464843,1.0286225852987334,5.036327323107424,343.99152690103625,0.625,0.6262626262626263,0.8387096774193549,0.38095238095238093,51.75872676207036,51.80050084471796,51.72916850924298,46.464646464646464,0.4450540852236277,0.5549459147763723,54.23632022337567,60.563246798244705,0.6366020827884465,0.36339791721155335,66.70612696247929,50.399115544163976,0.5435063301011919,0.45649366989880835,60.79179963493002,55.71345308980179,0.582310030179986,2.4987258427207277,1.1696965979482024,1.3241258805871625,-0.6735146795274218,-0.558981916658478,-0.43819678813950613,0.0029323280943548166,0.48103823496292736,0.5659895055928197,1.24842456689677,6.3205380354071785,0.9722966404168233,1.1710650658648551,1.0684191568720325,1.3295458698457658,1.7530003920430364,1.9266501256949369,3.251143026516439,0.9664095747318882,Relax
79.27629801701237,759.1538461538462,84.15228558708017,,,,,,,112.75615928325459,113.2961017107796,0.11085010767373009,0.14852873347677673,761.0,91.17989999999999,0.11981590013140603,118.5,0.7463209648324517,689.4,824.2,37.5,62.5,543.0,1010.9999999999999,11.555555555555555,156.25,,,0.016686750343795333,0.024181315578499413,0.029679547194750168,0.07054761311704491,0.6900679282574765,0.23653174936068347,0.34276589256649137,-3.722175027562575,80.11244180169305,85.85093764861062,0.9331574470344711,21607.02053100521,1.0716305197777194,5.041564994561173,368.0019397431408,0.6057692307692307,0.6138613861386139,0.8548387096774194,0.2608695652173913,51.12168592794018,51.169724591271134,51.092832751682046,45.54455445544555,0.4251762264067377,0.5748237735932624,52.2430218625735,60.74508775427449,0.6575848764363247,0.34241512356367537,69.61790516773443,50.23674725937145,0.5493952485977477,0.45060475140225226,61.54667356274017,55.739108628845486,0.6229849655443697,3.2523410790132017,1.3152447911459653,1.7980160142941828,-1.6439436674286263,-1.6819845368226494,-0.3515619329524024,0.005965507239216083,0.8649797476110156,0.6060498651679778,1.2404424841073274,6.378230343099487,1.0083304836137668,1.1506320630530247,1.1134150872447923,1.4131082316459882,1.7503276651398236,1.9030974762234774,3.465488900108337,0.9664095747318882,Relax
79.04710779195418,761.1730769230769,84.7046774086688,,,,,,,110.6549346532128,111.17436821716856,0.1112817570362239,0.1453742098978567,763.0,88.95599999999999,0.11658715596330274,122.5,0.7654848622352826,694.2,826.8,34.61538461538461,61.53846153846154,543.0,1010.9999999999999,11.555555555555555,156.25,,,0.01620619452829783,0.01818393778721032,0.021597525801219437,0.05598765811672759,0.8912368001883764,0.28946012520312686,0.3247847543345888,-4.007216613730625,78.61214966049006,88.05670310724155,0.8927446393802724,21747.130779591596,1.1201411421458463,5.044372076135725,394.543743968573,0.5769230769230769,0.5841584158415841,0.8305084745762712,0.20833333333333334,51.589656634167,51.598844439214005,51.60297585042978,43.56435643564357,0.42413048046083646,0.5758695195391635,51.20637789626309,59.66729652422509,0.6721008484996105,0.3278991515003895,72.19043238608756,50.42345123081722,0.562098463360327,0.437901536639673,62.58415001158513,55.2390745240016,0.5932368003824569,1.986068908520514,1.1967355534626363,1.1146901317856028,0.33825253124134136,0.3494113034300752,-0.5413104607423473,0.0039023630192430866,0.39847168063257954,0.6256416386868455,1.3564413979702095,6.378230343099486,0.9762476905605516,1.1882290970136073,0.9582402932971187,1.3966478648356626,1.7257032164512314,1.8978411234953774,3.7304815478179076,0.9664095747318882,Relax
79.06473699791245,761.6442307692307,86.99647557521705,,,,,,,117.73266574117937,118.29769065021272,0.11422193205265145,0.15457698093803457,761.0,94.8864,0.12468646517739815,124.75,0.7389323517609631,689.4,828.4,36.53846153846153,60.57692307692307,543.0,1010.9999999999999,11.555555555555555,156.25,,,0.013547977234303737,0.016890551984046723,0.013561384925285849,0.04399991414363631,0.8021038771912204,0.3079091743242225,0.38387693050736543,-4.0810008675805935,83.64909925747385,88.69792453098935,0.9430784282697444,23309.05138378475,1.060357198324098,5.074494709215065,376.2059310113686,0.5961538461538461,0.6039603960396039,0.8360655737704918,0.2,51.07932724142498,51.16161475945793,51.006427889486474,43.56435643564357,0.42435179847599014,0.5756482015240099,54.49586240814841,63.47154681352866,0.6759876899961776,0.3240123100038224,72.92607696102546,50.48870284706941,0.5575236506616958,0.4424763493383043,64.3739532751145,57.34869819830976,0.5026732053307528,2.061552436467501,1.116967438431994,0.9774230351080994,0.3565822065880404,0.6418073265881905,-0.5676889905177509,0.004104514080470704,0.4118863177231762,0.6095335024144077,1.1837700970084166,6.358999573868717,0.95010544979774,1.2536162659892838,1.0184161196366752,1.358903777078475,1.6577279496337878,1.9340619575522089,3.683462644180241,1.09526418469614,Relax
78.98638909694249,761.3009708737864,81.37047146538566,,,,,,,101.78904559883429,102.26460486347153,0.10688344633528099,0.13370407958629751,763.0,97.85159999999999,0.12824587155963302,128.5,0.7994030299299469,693.8,831.6,33.980582524271846,61.165048543689316,543.0,982.0,10.3,156.25,,,0.0105925116420515,0.017107247590031474,0.008962694901739978,0.03666245413382295,0.619182693551699,0.2889198743594029,0.4666149060176848,-4.068253069592136,72.31199557432349,88.24047006432686,0.8194878780859668,20046.014144479188,1.2202743039172776,5.0089981424221115,430.7103127403193,0.6019417475728155,0.61,0.8688524590163934,0.24,51.81693781359282,51.872862333336435,51.768604965926066,43.0,0.4223242681130144,0.5776757318869861,47.00547682435685,54.9752869771302,0.6425076951016345,0.35749230489836564,70.73054096338892,52.75955962856139,0.5540195029855449,0.4459804970144549,60.051329196191766,53.87881453046989,0.5823614639791965,2.269563211556739,1.163443761706643,1.2896243911704541,-0.2857879339417764,-0.345709805428974,-0.44440312178956176,0.003694287809562965,0.4559176076606385,0.660547734937516,1.1850447944404168,6.322327954325675,0.9653020169402056,1.1939747354901638,1.1130117739868237,1.3779234909610316,1.599899248740465,1.9408352591625244,3.149607253825947,1.1035971743894633,Relax
78.33293758787563,767.3495145631068,77.45583292227647,,,,,,,93.6814062786898,94.11458100834862,0.10093944343781364,0.12208440156768412,784.0,84.5082,0.10779107142857143,128.5,0.8268004932788434,696.0,832.6,30.097087378640776,57.28155339805825,582.0,982.0,11.444444444444445,117.1875,,,0.008014074828780884,0.012870371610107225,0.008290147049283166,0.029174593488171273,0.6226762576526815,0.2746936245068902,0.44114998947030637,-4.352827383656746,66.54905843953397,86.03518719818055,0.7735097767177442,17987.379435026563,1.2928084816759888,4.961938005947278,444.90807892955706,0.5825242718446602,0.5900000000000001,0.847457627118644,0.19230769230769232,52.04518226938216,52.208087141641116,51.872577492322726,44.0,0.4337027591314751,0.5662972408685246,43.8403381319619,50.09565108296071,0.6084795629651067,0.3915204370348934,67.1118338292074,53.833587993991515,0.5430276408112309,0.4569723591887694,56.68321395018061,51.99821849704358,0.6767911906442003,2.1861957212951815,1.2756084689129252,1.369507346932406,-0.014342904278774604,-0.16177245596793344,-0.4570491895557039,0.004396682060603037,0.47127040737386455,0.6390112312976015,1.041453874828161,6.322327954325675,0.9080411447220088,0.9741124217617055,0.9792608658820505,1.1706150960349773,1.5105949668444492,1.9052874024483275,2.588434333393117,1.0386796935430243,Relax
78.11952686834785,769.7864077669902,75.44685838980256,,,,,,,93.44669236375084,93.89668554221925,0.09801012024706972,0.1213930142451107,784.0,84.5082,0.10779107142857143,125.5,0.8073785864578055,696.4,834.8000000000001,31.06796116504854,56.310679611650485,582.0,982.0,11.444444444444445,117.1875,,,0.010869003224622836,0.012603487564786795,0.012202520720323145,0.035675011509732776,0.8623806044757025,0.304667125942134,0.3532861527276127,-4.373781712468132,66.39498307784407,83.283314730634,0.7972183058826078,17371.73274289836,1.2543615627251443,4.946813249257939,417.8695552577924,0.6019417475728155,0.6060606060606061,0.8833333333333333,0.18518518518518517,51.2772158409052,51.32028644850273,51.22336453398341,45.45454545454545,0.45104317649291054,0.5489568235070894,44.59615265561782,49.19913063709098,0.5809549143950836,0.4190450856049162,63.47887435231477,53.91236429136524,0.5304652924396305,0.4695347075603696,54.85610413035241,51.609579919480154,0.5968731421594624,1.794418747253179,1.1926288075483273,0.8895540346265264,0.7546494506385235,1.174320871085549,-0.6688985769825104,0.003933118377540461,0.340014217530306,0.6424610023856641,1.0626186860202045,6.295581473722148,0.9414005192508627,1.138864687694965,1.2036352524999132,1.2358788194287722,1.502504331536764,1.8966828089935728,3.2151737274005674,0.9088447318501461,Relax
77.35418228441014,777.0792079207921,74.05250612481888,,,,,,,96.88787333820471,97.35353464086809,0.09529595615221642,0.12468210750026981,794.0,71.1648,0.08962821158690176,112.0,0.7643114001101579,703.0,836.0,31.683168316831683,56.43564356435643,582.0,982.0,14.428571428571429,117.1875,,,0.022957207294430036,0.02518510724058834,0.02323144712432962,0.071373761659348,0.9115389930693717,0.3216477142398627,0.352862265559038,-3.681502441680095,68.83934451703729,78.1708902393217,0.8806263342567073,16905.64157118599,1.1355554122101628,4.935001766905562,355.06950995419334,0.6039603960396039,0.6082474226804123,0.8813559322033898,0.19230769230769232,51.74204355108879,51.82625936690612,51.647316648835826,43.29896907216495,0.4377496734936498,0.5622503265063499,45.55643630584913,51.62994785152814,0.6302014546064776,0.36979854539352236,62.05614004409005,47.53654976579982,0.5461206861501522,0.4538793138498478,54.43506868766037,49.62547268685648,0.6509076787152861,1.4893624313387526,1.1804191563965516,0.9704462724120584,0.7925120059264144,0.7436290127878817,-0.6409817245059375,0.003534206268670892,0.2642425967852894,0.6631553472490812,1.1517221139820581,6.306629552015886,0.9842410871289451,1.0321240491437984,1.050929266295282,1.4561105550223539,1.5074365849983942,1.906104501803911,2.9200340856288935,0.9888432895175933,Relax
76.77305842770436,782.4554455445544,72.30387607209937,,,,,,,98.12955721901531,98.62376780349437,0.09240638107103857,0.12541232574683084,802.0,57.8214,0.07209650872817955,98.0,0.7368205678409858,717.0,836.0,30.693069306930692,56.43564356435643,582.0,982.0,12.625,281.25,,,0.04003179083930319,0.04582902088534589,0.04346291779568843,0.1293237295203375,0.873503078746847,0.3095471417951009,0.35437441415682963,-3.0828377447446127,69.73753500001837,74.27245060715258,0.938942157286278,16272.123011481879,1.065028332405684,4.918414328665206,316.40905685527696,0.6138613861386139,0.6185567010309279,0.9,0.18518518518518517,49.85793080394452,50.00334452149059,49.70288523046314,45.36082474226804,0.40909775365261225,0.590902246347388,44.6047173299059,53.607439556068854,0.5878764551235633,0.41212354487643676,56.94699171957277,47.680573122424065,0.5041111860012739,0.49588881399872603,51.14949009516076,50.73063487203961,0.6280291267189301,2.3280603559845563,1.184345849650313,1.1965754779210966,-0.3270211162968142,0.09674827215768911,-0.4947468594448826,0.0024041737938496673,0.3993827729134143,0.6833548982038926,1.155182640156504,6.254697745106612,0.9431262325441376,1.044618830096955,1.129955204166823,1.4119143975570994,1.5152061836633097,1.8976657511451906,2.950175124399928,1.0547661754854327,Relax
76.09088700956897,789.65,70.35384951382646,,,,,,,99.839720036515,100.34738158173973,0.08909497817238836,0.12643540813843476,807.0,45.9606,0.056952416356877325,83.25,0.7046679366498174,731.0,837.2,26.0,53.0,582.0,989.0,11.11111111111111,281.25,,,0.0407779989803125,0.04260159775651959,0.04038420605710437,0.12376380279393646,0.9571941224686107,0.32948243395693666,0.3442169422302751,-3.155863520388559,70.95631399076221,66.77255582574912,1.062656852254257,14884.660020901429,0.9410375493073418,4.879709029379019,251.3419291810025,0.6,0.6041666666666666,0.8620689655172413,0.19230769230769232,50.25116923609908,50.516514574120684,49.987387174386896,45.83333333333333,0.39843478454727216,0.6015652154527277,44.78901787770055,55.03440482358025,0.6869318930119104,0.3130681069880894,55.341998728286754,37.36090721945988,0.5339271891103656,0.4660728108896341,50.34278968080073,47.03521607554707,0.6162558084644153,1.681332878000029,1.1670794871907406,1.0422898635448103,0.37582994334275277,0.24270426138345247,-0.5742206527206971,0.0031744282586729494,0.2897338237609044,0.7161456069888832,1.133098464739279,6.2087584397314535,0.901515197988106,0.9376277334487866,1.1699092958916377,1.4838604457288211,1.49417879525193,1.8893267221938002,2.4869731459714757,0.9301398665684615,Relax
75.36777521254598,798.5353535353536,66.73971878802269,,,,,,,98.09943934600238,98.5652027873171,0.08357766314609127,0.12284921251349358,810.0,41.5128,0.05125037037037037,55.0,0.6803272193292343,756.2,840.4,25.252525252525253,51.515151515151516,582.0,982.0,11.0,281.25,,,0.030722858000738023,0.032582774534260485,0.033949330717898865,0.09725496325289737,0.9429171836926663,0.3159001553560583,0.3350242850797622,-3.4239715187754998,69.69612327993913,61.09501736348247,1.1407824449133832,13377.17126227332,0.8765913294501367,4.833334397155464,214.22144997373715,0.5858585858585859,0.5894736842105264,0.8571428571428571,0.14814814814814814,52.383483962431335,52.40290414321818,52.36999920518347,45.26315789473684,0.4465408338219686,0.5534591661780314,46.59177839955231,51.87062613531962,0.65530795358753,0.34469204641247003,49.45708461854474,35.86917796212132,0.5372143625858098,0.46278563741419027,48.04579603565167,44.59349606920516,0.5599033959761054,2.104261838657564,1.1282996977573458,1.2042089261949376,-0.09252109262791564,-0.21205107635393317,-0.4639259587171819,0.003180938564907502,0.3986172645886494,0.7536862320057569,1.2327845015644816,6.18223881698375,0.9617870421093545,1.159114949319677,1.3239205193751815,1.4944385031051308,1.47587065087139,1.9280773299777527,2.912167549741513,1.0714111709219571,Relax
74.95937706784561,802.3469387755102,63.05178726356798,,,,,,,95.59315637843409,96.08551795753814,0.07858419371524433,0.11914192197744551,811.5,41.5128,0.051155637707948245,57.25,0.6595847407105027,763.8,841.0,24.489795918367346,53.06122448979592,582.0,982.0,10.88888888888889,289.0625,,,0.023850138502516445,0.03598228936936651,0.02628340588166092,0.08611583375354387,0.6628299344071542,0.27695416119146565,0.41783592866724995,-3.3247284235410586,67.94272132159699,57.62454295724112,1.1790587453684835,12299.863853954028,0.8481341611926865,4.796870414262674,195.4933736206065,0.5510204081632653,0.5578947368421052,0.8301886792452831,0.10714285714285714,50.80540640622105,50.89498848564576,50.71315040284768,46.31578947368421,0.43035635515252296,0.5696436448474769,44.5734412701854,51.28184985938007,0.6658594871677872,0.3341405128322127,47.021750181899726,33.30980277428764,0.5288807843914323,0.4711192156085676,45.81395342488822,43.239860579458046,0.4463013292245125,1.9218173387477278,1.0663003363670676,0.7938169237931211,0.5800927328785175,0.9604501382175661,-0.6417842409266111,0.003680270271052401,0.36623691004648967,0.7355339051050076,1.2055844082202776,6.109508058356768,0.9541555352792992,1.3329281598626266,1.2208030017375686,1.5104219764908011,1.460104791913572,1.9363135808639942,3.23508361714283,1.0799526276106464,Relax
75.07743287365807,799.5151515151515,61.70310143965802,,,,,,,91.52656578774251,91.99153870749393,0.07717564992073661,0.11447758759079378,810.0,44.477999999999994,0.054911111111111105,59.0,0.6741551035876566,760.6,841.0,25.252525252525253,54.54545454545454,582.0,971.0,11.0,273.4375,,,0.022270271673594716,0.04410271829834783,0.020795180698977553,0.0871681706709201,0.5049636968619461,0.2554862801660725,0.5059497974879585,-3.1212338590106494,65.04784083185373,55.591761824462246,1.1700985667129997,11360.38882760936,0.854628856446825,4.762363306019473,190.04129534361775,0.5353535353535354,0.5416666666666666,0.8269230769230769,0.10714285714285714,49.073207264557205,49.05036769228218,49.08271501854355,45.83333333333333,0.4102906729585106,0.5897093270414895,41.668240520104,49.954928138881606,0.6527298765572644,0.3472701234427356,44.91352935771216,32.76001928237629,0.5126160276725445,0.4873839723274556,43.32128453432163,42.24164833871006,0.5328154724432629,1.8433170050907957,1.0952122962303938,0.9791149273723427,0.24609099432932702,0.28267497348577497,-0.5629828556550057,0.0030272376064792543,0.3171920573467856,0.7114996480940334,1.2104036946562264,6.169661923066209,0.9789474507753897,1.2856212751527794,1.2895930525654318,1.6557475105446064,1.5336155145299555,1.92017985538819,3.042182784955203,1.2053375672872018,Relax
75.28306965512874,799.1212121212121,63.51333986945509,,,,,,,97.96745607077685,98.47049377519083,0.07947898129354283,0.12259398772650396,810.0,45.9606,0.05674148148148148,66.5,0.6483105963634466,755.0,843.4,29.292929292929294,57.57575757575758,582.0,971.0,11.0,273.4375,,,0.02686526994574067,0.03099654023363539,0.01871415928175164,0.0765759694611277,0.8667183415711752,0.35083160075927344,0.40478155812797356,-3.4738796860919336,69.62915389522514,57.08814989843343,1.219677884448938,12487.829462439493,0.8198886056311576,4.803457069200393,187.2236944731564,0.5656565656565656,0.5773195876288659,0.8392857142857143,0.15384615384615385,50.2948609941028,50.3654869143593,50.22317268525107,47.42268041237113,0.44466476072411637,0.5553352392758835,46.43124836510718,51.88856020754836,0.6461740336110946,0.35382596638890534,45.8902812830288,33.957899560934294,0.5256691528472193,0.4743308471527808,46.161557279720164,43.84952464396206,0.49044205512072436,1.7625689403072493,1.008265443953081,0.9932942368374167,0.09963146444693649,-0.08325676482910094,-0.5084939696673961,0.0027630393336705583,0.28820482613033777,0.6412719042409312,1.1676051601550612,6.169661923066208,1.0040239457219944,1.3244898091506958,1.1819235723696473,1.4044149584136274,1.5572574645593977,1.973961556984997,3.3097697849346948,1.0714111709219571,Relax
75.27223724328837,798.1938775510204,58.622267709527684,,,,,,,81.9893128564962,82.40134552291154,0.07344364490666061,0.10271854390571351,808.0,47.4432,0.05871683168316831,68.5,0.714998890308213,758.2,841.0,25.510204081632654,55.10204081632652,623.0,971.0,10.88888888888889,234.375,,,0.023884000192621022,0.06039632506171179,0.017991380197772924,0.10227170545210573,0.39545452754313803,0.23353477960535232,0.5905477452900758,-2.806827019241542,58.266550198146504,58.599620181321896,0.994316175051224,10726.646764957382,1.0057163154853466,4.737434089236599,235.73837639039928,0.5714285714285714,0.5833333333333334,0.8571428571428571,0.10714285714285714,51.46999597261376,51.60113886159211,51.336083533390074,45.83333333333333,0.414981489376712,0.5850185106232879,37.5410886008029,44.57355811838823,0.6347649257127028,0.36523507428729723,46.687569094894805,35.4144938888672,0.5254810678263677,0.4745189321736324,42.36190766079775,40.25536275291744,0.5105510663489279,2.1353096527233464,1.0821178717429953,1.2785692406863787,-0.26577528174003184,-0.6695252026501143,-0.4079986508313528,0.004022103808634052,0.4449886877124364,0.6587044915510778,1.3083328196501787,6.129916221622074,1.0559845975852324,1.0462719292973717,1.2639955602556383,1.4750942694973972,1.6715852264963431,1.934319028326571,2.8218592690246274,1.0799526276106464,Relax
75.11630559025912,800.3030303030303,57.467373981731704,,,,,,,84.01749089035094,84.44506541038943,0.07180701784919145,0.10498209766685275,810.0,44.477999999999994,0.054911111111111105,64.0,0.6839929801846962,763.0,841.0,27.27272727272727,54.54545454545454,623.0,971.0,11.0,234.375,,,0.020950842241219035,0.05259984211312423,0.02019849767867896,0.09374918203302222,0.3983061811509045,0.22347760041084205,0.5610698778640699,-2.9450421608946082,59.71167838942793,54.910810762993414,1.0874302812092151,10300.706370424909,0.9195991846833681,4.719837117410557,201.9837472318058,0.5757575757575758,0.5876288659793815,0.8596491228070176,0.10714285714285714,50.81237911025145,50.857872011000026,50.76963470354134,48.45360824742268,0.43132314506429825,0.5686768549357016,39.217803131667466,45.03131785356571,0.6303650592051867,0.3696349407948134,43.596730643707204,33.384460694001255,0.5225168533400806,0.4774831466599194,41.46511187308064,39.637998205372206,0.479389732890732,2.3403961020988016,1.088568884913451,1.3309964816729818,-0.39086274772768803,-0.7594694226095768,-0.3964159970433514,0.0046660699864740805,0.5315134906872399,0.6709928928945375,1.269237805698873,6.114007630093209,1.042005614690862,1.085339372285755,1.1720610110687975,1.4920234831894346,1.689114919479349,1.9612081119693638,3.6231966977854535,1.1383743691045793,Relax
75.20027136120316,798.6565656565657,54.05820023432825,,,,,,,76.47895535534529,76.87201199165857,0.06768641561205681,0.09575950244955776,803.0,41.5128,0.05169713574097136,55.5,0.7068375866688664,764.2,839.4,21.21212121212121,51.515151515151516,623.0,971.0,8.25,171.875,,,0.022858850287760465,0.059915760565882915,0.02050812616673363,0.103282737020377,0.381516483674192,0.22132304920667006,0.5801139889821271,-2.814815693846896,54.35672096275536,54.10994381217,1.0045606617416198,9240.175202758981,0.9954600434644605,4.672650315908095,215.45714807648906,0.5555555555555556,0.5670103092783505,0.8545454545454545,0.10344827586206896,49.83247710520437,49.96205022609721,49.70667709882417,48.45360824742268,0.40497378773737136,0.5950262122626285,34.59135521586431,41.92973995606824,0.6353708589753702,0.36462914102463,43.13111933511954,32.674035016444975,0.5196479091295587,0.4803520908704413,39.09511037694117,37.58786810288246,0.5254603875462579,2.269552002026245,1.1645511399509094,1.2461079023033106,-0.07557083143118604,-0.2457890412905619,-0.4640648188366746,0.0043865235123545345,0.501689046349513,0.653933828851271,1.3017369730918273,6.112998887970887,1.0341016508400875,0.8285795784002719,1.151561287475327,1.5663171251206804,1.656263546760242,1.9233085851317429,2.9601499227732866,1.0044479727393347,Relax
75.57206620048818,795.35,54.71881751188516,,,,,,,77.61078754551035,78.00152755799824,0.06879841266346283,0.09758067208840177,794.5,43.7367,0.05504933920704846,57.75,0.7050413897655462,759.4,838.2,22.0,54.0,623.0,971.0,8.333333333333334,171.875,,,0.030772959776244575,0.07881171243627388,0.02412130601993069,0.13370597823244915,0.3904617578399554,0.23015395559011942,0.5894404534347668,-2.5406936581852926,55.15540907916992,53.88312783865817,1.0236118668597216,9336.643589795423,0.9769327929616926,4.6771608906451085,210.56077829172904,0.57,0.5773195876288659,0.8571428571428571,0.10344827586206896,50.853606487409294,50.899585629033915,50.811059807219095,49.48453608247423,0.4237540246847331,0.5762459753152669,35.90612761075747,41.871218988606444,0.6313384640692671,0.368661535930733,42.81381445903236,32.716490599462695,0.5251188183189104,0.4748811816810898,39.51121808127692,37.57371246454473,0.5701230662858349,2.57375922583836,1.1935356065650833,1.4679656534134733,-0.8395375010759913,-1.0545786905138326,-0.39337384628160044,0.003970262651643887,0.5628901273272467,0.6413812505495726,1.4118276631250553,6.16511315996545,1.0809329774711935,1.1993903807388577,1.0961676067007788,1.4843485455178085,1.7136818226758777,1.9300245662154876,3.2938542190438507,1.063016990363956,Relax
75.97186782824873,790.989898989899,55.94430447374351,,,,,,,82.18564103197549,82.60785527416934,0.07072695181719119,0.10390226365333777,794.0,44.477999999999994,0.056017632241813595,58.5,0.6807065537394492,753.8,834.6,24.242424242424242,56.56565656565656,623.0,971.0,9.0,171.875,,,0.03697801383933322,0.08047794843941104,0.026249114699582864,0.14370507697832713,0.45948007567778193,0.257318771311817,0.5600216090594232,-2.519772064513637,58.41257464364203,52.79535705427639,1.1063960526602907,9688.39759186749,0.9038354733782128,4.693222063012868,190.87326614129466,0.5757575757575758,0.5833333333333334,0.8571428571428571,0.10714285714285714,50.23069207622869,50.30427031675612,50.159723335086916,52.083333333333336,0.4352938865968011,0.5647061134031988,38.53890790720999,43.89543573482915,0.5858528052679913,0.4141471947320086,40.41010587125795,33.976066134298975,0.5029875223803272,0.4970124776196729,39.48559281058529,39.25036527417785,0.5553907967588187,1.5410734887439312,0.998002280340327,0.8951675864035576,0.2140110865902045,0.11632731743763691,-0.5667292602772538,0.0015932871693881878,0.19699710273353238,0.7088136886967238,1.5793604571968223,6.133200908172906,1.083173824604773,1.1271758241310106,1.0964910614058598,1.39151155681157,1.7738566660537904,1.9537276261778438,3.0128239636865852,1.0714111709219571,Relax
76.42765224441986,785.7920792079208,53.62188300156628,,,,,,,75.96222745549264,76.34067716426799,0.0682392765470698,0.09666962732948726,787.0,45.9606,0.0583997458703939,61.0,0.7059019304427864,746.0,821.0,20.792079207920793,54.45544554455446,623.0,971.0,9.181818181818182,203.125,,,0.036504702446186525,0.0836626378140715,0.020988662332017318,0.14115600259227534,0.43633219558906466,0.25861246971996793,0.5926962812607296,-2.4809627832945607,53.98101050322691,51.95889984138686,1.038917503411598,8811.51996785467,0.962540333295184,4.652020939680831,200.05014708391838,0.5247524752475248,0.5306122448979592,0.8076923076923077,0.06896551724137931,49.12434325744308,49.33362444492201,48.91045076915667,52.04081632653062,0.40247406529341845,0.5975259347065816,34.24790784732977,41.729528338498326,0.5750268826256298,0.42497311737437,39.40070757709508,33.87198717452986,0.48545332196205015,0.5145466780379498,36.91432614510896,38.00437508041048,0.5257268928885368,2.3436738216337645,1.0797636285252872,1.30344980134144,-0.8196869951751538,-1.0272948982034658,-0.4045574641183549,0.002537166206354625,0.4250146638882874,0.7183849131195177,1.7090677533829413,6.223812443336674,1.0677699494126405,1.379092101333266,1.203699942197185,1.5102222639481984,1.75428502478677,1.9333560959386067,2.4824467548772473,1.1206890614532723,Relax
76.91827653687052,780.5049504950495,50.69785474009255,,,,,,,69.97728202781242,70.32263310821578,0.06495519946149798,0.08965642304181166,780.0,41.5128,0.05322153846153846,55.0,0.7244901955457876,745.0,816.0,18.81188118811881,52.475247524752476,623.0,971.0,8.416666666666666,171.875,,,0.01709892031809773,0.05836099394310174,0.012227302740509977,0.08768721700170945,0.2929854199324996,0.19499900786866559,0.66555874320842,-2.84110752423369,49.725610741713005,51.62462414567119,0.9632149689148406,8064.675576782657,1.0381898457481422,4.613557011377162,214.3846423144008,0.504950495049505,0.5102040816326531,0.76,0.06896551724137931,48.797498797498804,48.879564747173994,48.72240921477307,52.04081632653062,0.404587058540032,0.5954129414599677,31.632277978372187,38.373694167233936,0.5624663594257658,0.43753364057423394,38.71731030394179,34.14779203711568,0.4864758272921485,0.5135241727078516,35.35273063903782,36.32225285586306,0.5919969554967657,1.6782619435892723,1.0136312889779961,0.9713168687710146,-0.006307452869226182,-0.038434017901286754,-0.5252132394282172,0.0011283527127978006,0.2035525697786834,0.7784326020675243,1.8887517352153647,6.124802542346578,1.102722567896409,1.3224295891282332,1.2680572307228328,1.5303079814499794,1.7626911446043265,1.961302503733424,2.9899064722049657,1.0547661754854327,Relax
77.26751624927665,777.4257425742575,52.184163600589294,,,,,,,68.20813734445473,68.5195680964293,0.06712430621064083,0.08773588731265826,779.0,40.0302,0.051386649550706036,50.0,0.7650724038549314,743.0,810.0,19.801980198019802,54.45544554455446,622.0,971.0,8.416666666666666,187.5,,,0.011492609259720444,0.04780287575331679,0.007754009350371931,0.06704949436340917,0.2404166920631973,0.17140486097375093,0.7129490864498479,-3.0406694790911195,48.45065124495857,53.64875053851146,0.9031086606607649,8165.994883892385,1.1072864690150839,4.618979213457415,237.61814220343774,0.504950495049505,0.5151515151515151,0.7843137254901961,0.03225806451612903,52.51020898390583,52.76236680645682,52.27094630700082,51.515151515151516,0.46786247810246423,0.5321375218975357,33.156043677182474,35.36026703587637,0.5283953945603165,0.4716046054396834,38.99771164291359,36.8424608428861,0.5011887597926071,0.49881124020739265,36.19492192081004,36.10896983997245,0.6337326016709528,2.0239934721221537,1.041666263414652,1.1628683462478362,-0.7964427849760263,-0.735074692499015,-0.4401173548716519,0.0008033395076764421,0.24327280104343144,0.7821416672159076,1.9542783987258299,6.199156750310208,1.1065894770981313,1.4749618094328558,1.2265032426029354,1.5035060968244474,1.7734387254258188,1.963224203309435,2.1658639958560117,1.1206890614532723,Relax
77.61439366937027,772.7766990291262,56.02711739072795,,,,,,,71.19160834002288,71.51003299175471,0.07250104391231944,0.09212442407938033,776.0,44.477999999999994,0.05731701030927834,56.0,0.7869904711680791,736.6,809.6,19.41747572815534,55.33980582524271,589.0,971.0,8.583333333333334,226.5625,,,0.016536707768169755,0.04549773443967857,0.008568550826769208,0.07060299303461753,0.3634622244783268,0.23422105858970596,0.644416511030495,-3.0900927467994586,50.56522925134349,58.582132840136474,0.8631510462299121,9306.085376763282,1.1585457775528623,4.675737142522578,271.4803305679239,0.5145631067961165,0.5247524752475248,0.7924528301886793,0.06666666666666667,47.51629579680828,47.40109274822865,47.61415538482784,53.46534653465347,0.3594158940422971,0.6405841059577027,30.328563800124424,40.4893947733096,0.52224050513476,0.47775949486524,42.33508691206365,40.49205729828276,0.45268661853366526,0.5473133814663346,36.82445767441932,40.49072605768094,0.571507986712192,2.3171888032771326,1.0570516728141117,1.147306771050245,-0.8719740593995731,-0.5870966517638381,-0.46104974350450517,0.0011832100633387555,0.3291393143224094,0.8239267928915215,1.8993901334204202,6.249417517390461,1.062027221698031,1.3867570620751546,1.261752928151987,1.4900716292535094,1.771033462140653,1.9758233573365385,2.8501696516581934,1.0386796935430243,Relax
78.01182170750339,770.0392156862745,55.00421614238464,,,,,,,69.14062295477426,69.46653443162826,0.07143040902581017,0.08978844394717578,768.0,42.9954,0.05598359375,57.5,0.7955412287558298,732.6,808.6,19.607843137254903,55.88235294117647,597.0,971.0,7.846153846153846,156.25,,,0.02678124708073909,0.054152341279288606,0.008633756673659555,0.08956734503368725,0.4945538170291815,0.29900682074104545,0.6045991567453666,-2.915954069548522,49.120257562133126,59.5126586085134,0.8253749489710477,9183.745921638105,1.211570573163928,4.669989969950692,288.41514360330297,0.5196078431372549,0.53,0.7924528301886793,0.06896551724137931,51.8800461361015,52.07494095871185,51.68634144715444,52.0,0.42511023708481155,0.5748897629151883,32.03537107635871,37.253858860526115,0.533895626073405,0.4661043739265949,43.48480565057622,40.63038533148658,0.48980124999256186,0.510198750007438,38.19157840721162,38.978700672194556,0.5968773858322687,2.3781575095951144,1.1113368269159671,1.3547008761517452,-1.1827805220570866,-1.311952712293708,-0.3976669761132805,0.0016841145325741248,0.378440788828945,0.8090869672247383,1.9169226121820608,6.250665047769006,1.114020772560007,1.3894845445961788,1.258614639345522,1.4382331851354995,1.7613094067187436,1.9589028924537084,2.3117377520749685,0.9812390208781611,Relax
78.18479394988442,768.0291262135922,52.20819113681331,,,,,,,66.65737680371875,66.98638801564572,0.06797683753766129,0.0867901678837907,766.0,40.0302,0.05225874673629243,53.0,0.7832320088224755,733.2,797.2,17.475728155339805,55.33980582524271,597.0,971.0,7.357142857142857,156.25,,,0.034275761575652104,0.08701493547704461,0.021442679685891464,0.14273337673858819,0.3939066481833384,0.2401383779942873,0.6096327114604022,-2.4416755029115924,47.36652921305636,57.09687593983505,0.829581801690308,8496.37714556216,1.205426635399255,4.636203892018533,275.3043802238562,0.5436893203883495,0.5544554455445544,0.8035714285714286,0.06896551724137931,49.82018700551425,49.94070963553228,49.70448604432691,50.495049504950494,0.38659597049471867,0.6134040295052813,29.451083793871884,37.09761007487311,0.5478723435899941,0.4521276564100058,42.26219362469738,38.39218972808795,0.48212699951122245,0.5178730004887776,36.42430058769197,37.75044970185672,0.6102633833255784,2.4334777137285872,1.120860468880099,1.3575156695433295,-1.3060926807759632,-1.3269724276259394,-0.402750208342518,0.001509693092133553,0.3765898694379204,0.7991620600320255,1.9299098077088717,6.125583658146156,1.1153117989858212,1.2303825927217849,1.3871534300877333,1.6381262352841357,1.7089642505556715,1.9520563957337658,3.0108818398269643,1.0386796935430243,Relax
78.61049991628987,764.3106796116505,52.8825982583421,,,,,,,73.03833267001436,73.36729746827592,0.06918992455425584,0.09556105209353537,758.0,34.099799999999995,0.044986543535620045,48.0,0.7240389576972487,731.4,793.6,18.446601941747574,54.36893203883495,597.0,972.0,6.866666666666666,156.25,,,0.016922253666008507,0.03796965589967603,0.010203447948390752,0.0650953575140753,0.44567835196401906,0.2599609912634626,0.5832928391470314,-3.2709679672057206,51.878513557148516,52.119572754427466,0.9953748815552508,8494.508273526077,1.004646609564351,4.636108353640643,209.44700823871227,0.5728155339805825,0.5841584158415841,0.8305084745762712,0.10714285714285714,52.50859106529209,52.59422612664481,52.43266799204107,51.48514851485149,0.4905564673083038,0.5094435326916964,36.351283905581084,37.044460843801204,0.478827320988355,0.5211726790116449,36.06536303752018,37.62631330699209,0.4846672420410055,0.5153327579589945,36.20860569403554,37.33652054144742,0.5835499193782854,2.4293019423356226,1.1289675092622093,1.2876075749734572,-1.1088520844196648,-1.034623568036641,-0.43469726305050205,0.0017830579874848638,0.3873865049697142,0.7970249070700479,1.7346010553881062,6.164418609602467,1.065970886666345,1.1609482245804739,1.414906007155497,1.6565198374869912,1.6547926920123501,1.9572227184646815,2.284678600071683,1.2334321360823413,Relax
78.7607244956077,761.7980769230769,48.667762063064245,,,,,,,66.90182634974951,67.2072934521679,0.06388538319712575,0.08782094412730444,758.0,35.5824,0.04694248021108179,49.0,0.7274504257722175,730.2,793.4,16.346153846153847,52.88461538461539,597.0,938.0,7.428571428571429,156.25,,,0.023234237672910288,0.03505128494410648,0.008755141516225577,0.06704066413324235,0.6628640778778893,0.34656932435413496,0.5228361830432133,-3.3509430058566356,47.52273294522217,48.70514185717584,0.9757231194311886,7271.534909856016,1.0248809114853852,4.568596203423428,199.66788072242946,0.5673076923076923,0.5784313725490196,0.7966101694915254,0.10714285714285714,47.84429662478444,47.96599908771341,47.72661843217521,51.9607843137255,0.3456128135215276,0.6543871864784723,27.947078839948094,38.45553837059818,0.5754220290112333,0.42457797098876654,36.94605348707016,31.73609892627279,0.46330375326859957,0.5366962467314002,32.75706094841022,35.25626473714084,0.6223520935982398,1.848793350232059,1.1171260512521166,0.9906616963223787,-0.02361710798608918,0.18045578055253508,-0.5684037266327598,0.0017106384068992164,0.2548494076950614,0.7474294273659257,1.7764919970972666,6.1568885160932,1.0987827269623405,1.5044862269260193,1.2063435770746584,1.4979259175262427,1.7581222727377777,1.9616523792437675,2.542077404370927,1.09526418469614,Relax
78.95678835054184,760.5096153846154,45.505999858827465,,,,,,,61.393684251879016,61.68618498380707,0.05983619265065248,0.08072703225564105,757.5,34.099799999999995,0.04501623762376237,48.0,0.7412163060964159,730.6,792.0,14.423076923076922,50.0,597.0,913.0,8.0,156.25,,,0.03559279495853077,0.03744528911642293,0.0038364701649260123,0.07687455423987972,0.9505279782422701,0.4629983914764155,0.4870960161873391,-3.2848743682150623,43.618719707577746,46.424662477202936,0.9395592208989552,6361.675926530288,1.0643288658731018,4.510541651673656,197.6444334516118,0.5961538461538461,0.6078431372549019,0.8387096774193549,0.14285714285714285,51.33904659882161,51.3571800437103,51.323959365725734,50.98039215686274,0.4024537254073658,0.5975462745926341,27.674845235764725,33.72197456596293,0.6146408077456559,0.3853591922543441,36.39648557368427,28.81917979413725,0.5151398351388004,0.48486016486119965,32.33110902009809,31.366516324213144,0.6389235947925077,1.925157785614496,1.1602887333483194,0.9570544615505424,0.1345134855394967,0.5465499557846007,-0.6055675920781247,0.001865645947390745,0.28201898142925425,0.8026695246926239,1.7564201027827462,6.056020968057882,1.1066813230111168,1.530233814003365,1.3119403431292074,1.5718767912453089,1.7972087175146407,1.951619551308698,2.9440315914688027,1.0308368797140142,Relax
79.00263084805624,759.6730769230769,50.06179527124885,,,,,,,67.34514779877489,67.6727773721362,0.06589913054970357,0.08865017050695628,757.5,37.8063,0.04990930693069307,50.75,0.7433615770037637,728.6,792.4,11.538461538461538,47.11538461538461,597.0,976.0,7.428571428571429,156.25,,,0.030349163338465213,0.02917615134494135,0.0057030045642708,0.06522831924767736,1.0402044800102548,0.46527587539435,0.4472927047860466,-3.5344036381797332,47.85187978156506,51.01361691729179,0.9380217023064088,7668.933859439044,1.0660734155096827,4.591705102183826,217.53704329807917,0.5576923076923077,0.5686274509803921,0.7931034482758621,0.1,49.33586337760911,49.39910393308698,49.265965459988216,51.9607843137255,0.3787576823371001,0.6212423176628998,29.45035703368916,37.717279027720195,0.5333706755364997,0.46662932446350047,37.256382515408994,34.847540413201706,0.4610017586899878,0.5389982413100121,33.58095864881047,36.31077119880978,0.7575657082640134,2.168473883935598,1.3069699997791622,0.754690430496868,0.5320687613313453,2.0374996402937207,-0.7546858292247233,0.0021841174909535597,0.35066229999988846,0.8560341679752845,1.5270669150009728,6.0525158913598025,1.0197096695197605,1.1953985935881237,1.1756159839059457,1.4887278791236327,1.584601922367863,1.915141317354292,2.2498979735658975,0.9019822697497624,Relax
78.83901668216224,761.5288461538462,41.58415417280197,,,,,,,46.417480804884754,46.62330053798633,0.05460614444590721,0.060953017130367985,757.0,34.099799999999995,0.04504597093791281,47.0,0.8958727068278521,735.0,792.4,7.6923076923076925,43.269230769230774,597.0,939.0,6.117647058823529,156.25,,,0.013500553392238226,0.02383650344890265,0.005938692579804825,0.0432757494209457,0.5663814502483059,0.31196579083859577,0.5508050991109043,-3.7365371149535065,32.96765197170855,45.636081264636005,0.7224032182021644,4726.571526014209,1.3842684733446886,4.381516344310005,252.69035416652733,0.5480769230769231,0.5588235294117647,0.7894736842105263,0.0967741935483871,52.571428571428584,52.312935698732964,52.87289648946838,51.9607843137255,0.46538874018799387,0.5346112598120061,22.50054465571715,24.115937289944778,0.584980964889499,0.41501903511050114,34.904322450210756,29.399663050521077,0.54394688377018,0.45605311622982014,29.36482790271559,26.88790265953002,0.9714240172158385,2.2987216809915862,1.4433127340863248,1.4553537819948255,-0.5681848158355329,-0.07702672733056337,-0.49476185046320764,0.0011427350039731419,0.3271290151071757,0.829535801476962,1.6158688027643906,5.917900506744417,1.0906381666899974,1.2539492784198871,0.9286808841173926,1.4447585866903678,1.6481847456958796,1.848802051653911,2.3341454561866555,0.8375549647676365,Relax
79.12834082235123,759.75,43.16074043112684,,,,,,,56.096830293092665,56.34438820200275,0.05680913515120348,0.07383590693398179,756.0,35.5824,0.047066666666666666,47.75,0.7693971335924362,731.6,790.4,10.576923076923077,44.230769230769226,597.0,913.0,6.117647058823529,156.25,,,0.0527985974595002,0.05086343191643594,0.014004899562788184,0.11766692893872431,1.038046303014778,0.4487122927037159,0.43226616327280326,-2.9786110435526107,39.84149897944344,44.340247926023736,0.8985402843464948,5549.880852500219,1.112916156816827,4.451253769542642,197.3879132565425,0.5576923076923077,0.5686274509803921,0.8103448275862069,0.09375,52.77258566978193,52.660629031671505,52.89548695726769,50.0,0.4588030580700098,0.5411969419299901,26.999455332196874,29.323750662921285,0.5820475719643496,0.4179524280356504,33.82808070753654,28.665633462138008,0.5269639329022335,0.47303606709776636,30.604816880606396,28.99655923318164,0.8264536545602742,2.210066291698864,1.3272243190269788,1.1420408231145636,-0.26898066813344457,0.5644163117467369,-0.5837909236514647,0.0012583692622234485,0.3025745243187614,0.767022012633026,1.5314763709643884,5.96929452566698,1.0705185793588639,1.1676373576443695,0.9448299819588714,1.4773476770481542,1.646706220811254,1.8735179845980086,2.5564202044354127,0.9019822697497624,Relax
79.03797958944166,759.2788461538462,37.622668422617735,,,,,,,42.877450112563125,43.08643069673626,0.049550528917270235,0.056471282361888996,756.0,31.875899999999998,0.04216388888888888,42.5,0.8774464974910965,735.0,788.8,9.615384615384617,42.30769230769231,597.0,913.0,5.2,156.25,,,0.030574241643556967,0.03434330309407232,0.008279111486404336,0.07319665622403362,0.8902533795252241,0.41769997730467534,0.46919223999737747,-3.371348240192377,30.46670732278643,43.130740816156475,0.7063803390869144,4128.215032259697,1.4156679407196213,4.322732420889952,244.23522813167986,0.5384615384615384,0.5490196078431373,0.7857142857142857,0.1,50.46485682409817,50.51800308322626,50.4135182669282,49.01960784313725,0.36084662790513466,0.6391533720948653,18.301799975765803,24.357629557226186,0.5809745571793886,0.41902544282061155,32.87497827322036,27.919466450592413,0.5076975413244335,0.4923024586755669,26.605639240747927,26.1991481210059,0.9156756163191184,1.9080323786678757,1.3017650309013757,1.101405509586048,-0.2551729206145179,0.5623387442715226,-0.605008449309027,0.0006566613755760456,0.19691541870332477,0.7877210834395125,1.7419270954801795,5.8611684439570135,1.167551969349901,1.0215201052961582,1.1555289183170423,1.4239493517063637,1.6465712477698664,1.8680814167697346,2.2332358083106865,0.8375549647676365,Relax
79.30835673307976,757.4711538461538,40.29333143187609,,,,,,,51.12681738882912,51.363263591347426,0.0531945424288195,0.06749671869248929,754.0,32.6172,0.04325888594164456,44.0,0.7881056066024545,732.0,784.2,11.538461538461538,42.30769230769231,597.0,913.0,4.9523809523809526,156.25,,,0.048246800507961866,0.04056607231165682,0.009416903144496657,0.09822977596411535,1.1893387197384144,0.4911626849845109,0.41297123925515367,-3.204823219079048,36.31931198931386,42.79844540837541,0.8486128793408553,4883.323323947578,1.178393616623792,4.395685589756395,201.73365948260567,0.5192307692307693,0.5339805825242718,0.7636363636363637,0.1,51.96747967479677,51.93036166518771,52.00702981619357,46.601941747572816,0.40387465318659754,0.5961253468134022,23.087429734916483,28.049238918758004,0.6191009399290878,0.3808990600709122,33.675086958312,26.413925261570185,0.5289680890226384,0.47103191097736175,28.870754176281753,27.243854826780517,0.8573842713951146,2.281224838716715,1.3147408734921924,1.4851575133045885,-0.9719442769043631,-0.8954910728733756,-0.4252959914690993,0.0011441589430337066,0.3244097941786508,0.8399544181204637,1.504077396776274,5.9068885160932005,1.107990620764987,1.4217421231547855,1.175380009688427,1.5197423743792127,1.6432107439267942,1.8946432946055196,2.730456631045805,0.9019822697497624,Relax
79.13136915471686,758.4903846153846,41.14879351351173,,,,,,,49.15232910362112,49.37459622064029,0.05425090989700213,0.06480283745263994,755.0,34.099799999999995,0.04516529801324503,44.25,0.8371687418263205,732.0,786.0,12.5,40.38461538461539,597.0,913.0,5.473684210526316,156.25,,,0.03770879097032265,0.033221686287984345,0.01132315515567789,0.08225363241398488,1.1350655304923882,0.4584452973521367,0.4038932423163837,-3.404552414857591,34.91311180596243,44.961730453869706,0.776507297506775,4931.52739032155,1.287817903593205,4.399951559554136,231.61008582010095,0.5288461538461539,0.5392156862745098,0.7818181818181819,0.13793103448275862,52.29788661522979,52.22612592737992,52.37738644099722,44.11764705882353,0.3634299538263081,0.6365700461736917,21.055133042823083,27.865749586185547,0.6520502757396603,0.34794972426033965,36.30643101722838,26.521694368906218,0.5434345325845554,0.4565654674154447,29.67722662800336,27.202024485299543,0.8754960262239313,2.716766791034407,1.4682543357754338,1.5877038451741374,-1.1656910465897266,-0.7875500986100015,-0.4560324758853434,0.0019474472678220412,0.4764215329229747,0.8335420497694304,1.4816045409242158,5.940636352673267,1.0873440493075839,1.4332222185175119,1.1988645070187152,1.539689968981471,1.62973497025182,1.8797084109865445,2.7205195087399687,0.8375549647676365,Relax
79.185063309732,759.4807692307693,47.274242410841914,,,,,,,65.26019616798202,65.5568352530184,0.062245476549357595,0.08592738461841502,754.0,36.323699999999995,0.04817466843501326,46.5,0.7243962658211502,730.6,786.4,17.307692307692307,41.34615384615385,597.0,930.0,5.777777777777778,156.25,,,0.062053678888368304,0.06597470464117793,0.01912570774598514,0.14715409127553136,0.9405677407100914,0.4216918357518105,0.44833754922686364,-2.718483873432207,46.35568276053862,45.56915175699758,1.0172601633608478,6636.2662116455185,0.9830326950936294,4.528893909244452,179.1838642592477,0.5673076923076923,0.5784313725490196,0.8305084745762712,0.13793103448275862,52.34167110164981,52.19771502137439,52.50598852749886,43.13725490196079,0.43555005402743785,0.5644499459725624,30.6034888437865,34.83891502328969,0.6543956156368634,0.3456043843631368,36.86303893833789,26.789250681623393,0.5430629662762765,0.4569370337237235,33.878143169167195,31.07582623264311,0.7408490509661801,1.9935954749109819,1.3039116117888878,1.1668305621630304,-0.006188754607132196,0.1971616476856608,-0.5687607146740632,0.0024681334038463548,0.3236277089079613,0.8023642592080464,1.3958638121360414,6.010300895921695,0.998660732978753,1.0246220721518433,1.3378487617930361,1.5211935675431647,1.5332319706960622,1.9177795948056067,2.9453577675224505,0.8375549647676365,Relax
78.85015982202667,761.3653846153846,46.27651330152025,,,,,,,62.35367336832908,62.657805348593456,0.06078095253161205,0.08189717398280195,757.0,36.323699999999995,0.04798375165125495,49.0,0.74216178136227,730.6,789.4,19.230769230769234,44.230769230769226,597.0,914.0,6.5,156.25,,,0.05955450868464471,0.06252388633985893,0.017151717890567898,0.13923011291507154,0.9525081080361243,0.42774158145639185,0.4490687038226971,-2.772206613814762,44.30575905625716,48.49382198783683,0.9136371859361773,6749.886465887391,1.0945263780778902,4.536266577955291,212.311069358004,0.5865384615384616,0.5980392156862745,0.8524590163934426,0.21428571428571427,49.579831932773104,49.71517563803727,49.44603369176013,43.13725490196079,0.32224280955496404,0.6777571904450361,25.151111931136345,36.47561635168478,0.6583323366101127,0.34166766338988735,39.34676285230473,28.345776123304496,0.5054224590737749,0.49457754092622486,33.02079782749091,32.66461091355439,0.7497884036608776,1.6423228806851058,1.2503990726614844,1.0608176141409842,0.593802528529487,0.7033870460506488,-0.6154349493331147,0.002221500851382349,0.25561468962481,0.7968213008030869,1.3862943611198906,6.036790198827112,1.041975303694973,1.1174921042127595,1.4202208429628378,1.6414339929447004,1.6404408186783912,1.9445716328840552,3.1111075556769165,0.9019822697497624,Relax
79.81859076193578,752.5238095238095,56.36916356247093,,,,,,,66.63823111513274,66.96092514772539,0.07490681736454405,0.08855298699093764,754.0,40.0302,0.053090450928381966,52.0,0.8458982571893354,723.6,786.2,21.904761904761905,47.61904761904761,584.0,914.0,7.0,171.875,,,0.05152966730184433,0.06702647446929648,0.011998293212433012,0.13055443498357383,0.7687957289988311,0.3946987117544319,0.5133986790853152,-2.702667596306165,47.34852424648144,63.69366332940539,0.743378882159885,9474.418148477696,1.3452090501878438,4.683522658135977,342.7251694013349,0.5904761904761905,0.6019417475728155,0.8387096774193549,0.23076923076923078,49.95159728944821,50.12648570482118,49.77207860748578,42.71844660194174,0.3101327767047472,0.6898672232952526,26.368192076781796,39.326860308796235,0.6292042869484078,0.3707957130515922,50.52334130765459,38.784980745513906,0.5156390068701748,0.484360993129825,40.29819828657241,39.05686030121633,0.7781982219930054,2.322168987772756,1.4120417041521827,1.665579246726281,-0.729781819915976,-1.1823748816097712,-0.390818651050339,0.004547510439769792,0.49568044398253175,0.7036595068511797,1.0750817912579158,6.178391589032882,0.9153288192487854,1.1941615905365084,1.1261678331694491,1.3759841960104175,1.5802202958835556,1.8846362529299625,2.6005386273692683,1.0231231265015044,Relax
80.17163112926438,749.5428571428571,58.835335499142886,,,,,,,66.5371498314461,66.8568521962129,0.07849495854501796,0.08877030739119515,754.0,42.9954,0.05702307692307692,57.0,0.8842479073447889,704.8,786.2,21.904761904761905,45.714285714285715,584.0,914.0,7.5,171.875,,,0.053711119909877425,0.048873595713406576,0.0092492654306715,0.1118339810539555,1.0989803210886704,0.4802754887529571,0.4370191890944755,-3.0185179932959,47.27493355672887,67.83082016533278,0.6969535889658948,10074.137359852528,1.4348157694169428,4.710177978085557,389.2989217028169,0.580952380952381,0.5922330097087378,0.819672131147541,0.2222222222222222,49.266862170087975,49.355090024374284,49.168743682201516,42.71844660194174,0.30722718861580967,0.6927728113841904,26.204572342445992,39.349812794856994,0.6007424020624411,0.39925759793755905,52.57402310495498,42.86014767661652,0.5047766576834049,0.49522334231659504,41.53737784869686,41.142435670799,0.8053247175427322,1.7710625426727558,1.3151523810652932,1.3579874931620688,-0.10863657404298621,-0.4547217540556705,-0.4758138907776051,0.0025608313409900096,0.27945915249959036,0.6672630965833957,1.0855402071007572,6.2355344461757385,0.8831799129083284,1.0324634378885473,1.1640041156115954,1.38064956968138,1.5860347983165253,1.8732111605743227,2.712691714966001,1.0231231265015044,Relax
80.46640254684633,746.3018867924528,61.6463291783705,,,,,,,61.83950039840077,62.13316963772868,0.08260240295428115,0.08286124086350916,754.0,42.2541,0.056039920424403186,58.25,0.9968762486956433,694.0,786.0,20.754716981132077,47.16981132075472,584.0,914.0,8.153846153846153,218.75,,,0.04544401421903288,0.04644457799974864,0.010959790008692436,0.10284838222747394,0.9784568226516952,0.4418544388819117,0.4515829709117376,-3.0694955482050608,43.93478558745205,75.63670640179512,0.5808659271077055,10439.771501112591,1.721567668772174,4.725661103178616,520.8548332549751,0.5566037735849056,0.5631067961165048,0.7931034482758621,0.2222222222222222,50.81839438815277,51.001577839348435,50.61941240015817,42.71844660194174,0.31251229662319163,0.6874877033768082,24.561931144322948,36.43018877038868,0.5603423598147407,0.4396576401852591,56.61862740411597,50.15219223708215,0.4978145312695184,0.5021854687304816,43.64033358410871,43.831501457464334,0.942247661829562,2.0435605620194757,1.504853985020223,1.5415781215855038,-0.11167739066000237,-0.2565973021969503,-0.48202933779021967,0.002781081593982778,0.3657567269678737,0.6834364814233442,1.0447531189953805,6.239482364838507,0.8745634921870574,1.1004057494605652,1.2209191692474637,1.3532742966854447,1.556182203195464,1.8397837074726462,2.6518625450656237,0.8885932675838187,Relax
80.33180302478307,747.4285714285714,62.00416504974874,,,,,,,61.930249226293036,62.22901447651607,0.08295664284178922,0.08285774934710459,754.0,42.9954,0.05702307692307692,58.0,1.0011935334409139,693.2,786.2,20.952380952380953,44.761904761904766,584.0,914.0,8.076923076923077,226.5625,,,0.02863221033132357,0.01946801162748083,0.009244012482980296,0.0573442344417847,1.470731109021255,0.4993040819193551,0.3394937924796008,-3.9389825897499184,44.002558122900346,76.2635065597279,0.5769805259142984,10542.523263361669,1.7331607482165434,4.729914677973421,528.707664362701,0.5523809523809524,0.5544554455445544,0.7857142857142857,0.18518518518518517,49.48207171314742,49.655240320425285,49.30520270006624,42.57425742574257,0.30380543375526786,0.696194566244732,24.254015781997794,36.71564836621378,0.5613218365300581,0.4386781634699418,57.13769793625672,50.51144333050426,0.49700281047918016,0.5029971895208198,43.89176350414912,44.1556606919328,0.984077334821133,1.896154264718667,1.4358819345343377,1.7080993224397203,-0.6407324916846218,-1.2020238896509485,-0.35643710906307957,0.0022699547687984535,0.30150656937058884,0.6739157876216955,1.0018826622095587,6.20929742234561,0.8765055509917508,1.030453235226867,1.235727480418431,1.4585104500752415,1.5330450324056886,1.7819554974253418,2.7415230718127583,0.8312875402824722,Relax
80.19210706911174,748.4666666666667,62.847046724975726,,,,,,,62.10614363267999,62.40455595095121,0.08396772965838031,0.08297783508418988,754.0,45.9606,0.06095570291777188,60.0,1.0119296264259736,693.2,790.0,20.0,46.666666666666664,584.0,914.0,10.5,156.25,,,0.01701375654188359,0.010906859822203062,0.003990220453091826,0.031910836817178476,1.5599133773818874,0.5331654772752503,0.3417917206211152,-4.5183633462128245,44.12668468985291,77.41390939737647,0.5700097699929406,10731.740730837617,1.7543558946584101,4.7376402819260335,543.246193119358,0.5428571428571428,0.54,0.7777777777777778,0.17857142857142858,50.734908136482936,50.87396484470901,50.58116292279139,43.0,0.30968525175372563,0.6903147482462744,24.55714556006566,36.66411435659394,0.5534162527401743,0.4465837472598259,57.58971834639891,51.733332668287055,0.49364212315436723,0.5063578768456327,44.26979250728316,44.83634123409857,0.9342322817170364,1.9790951368406144,1.3747331242993215,1.6433907240516463,-0.6515970573878302,-1.0881445423972846,-0.3642523066469639,0.0019945387560142028,0.3117849857911151,0.6523883816876062,1.0732944806838198,6.247392660440849,0.8928388932833886,1.171575424278548,1.3516777189725502,1.5883242281408048,1.5935862115879065,1.7900480632890736,3.0377233744443153,0.8952327356888163,Relax
80.00292693038507,750.6761904761905,65.00746928062237,,,,,,,63.909641742794236,64.21065499654932,0.08659854955488193,0.08513609803216649,761.0,45.9606,0.06039500657030223,65.0,1.017177807728079,690.0,794.2,21.904761904761905,45.714285714285715,584.0,914.0,10.5,242.1875,,,0.017051839576673288,0.011223120961412376,0.0033828487887876627,0.03165780932687333,1.5193491752696386,0.538629802226982,0.35451350551553856,-4.489779257013374,45.4037895724899,79.84002395380395,0.5686845685161728,11388.397924178787,1.7584440573255349,4.763432743467954,561.5768626331796,0.5523809523809524,0.5544554455445544,0.8214285714285714,0.13793103448275862,51.35883241066934,51.60238763321856,51.102667160977624,42.57425742574257,0.3377096957969028,0.6622903042030972,26.388895134275078,36.955036967665905,0.5517500778413293,0.44824992215867077,59.305075089800745,53.45406900823437,0.4994342109918703,0.5005657890081299,45.89915967539423,45.951127574949865,0.9798210369787573,2.4611191585871666,1.5410321125344741,1.7550577430362093,-0.957095646571327,-1.0200083007300509,-0.4130372742193438,0.0023590501153968233,0.44296936416368876,0.6582279113818719,1.0986122886681098,6.337961946196344,0.8834189073472817,1.2119901480845543,1.2896520111074443,1.650563934955885,1.600348904300438,1.813499958158169,2.4076470467623836,0.8952327356888163,Relax
79.88953958989299,751.6476190476191,62.93341734178288,,,,,,,57.90725343167296,58.171500327360235,0.08372728888774124,0.0770404268758874,762.0,41.5128,0.05447874015748031,56.0,1.0867967933592375,702.0,791.2,19.047619047619047,42.857142857142854,584.0,914.0,8.75,226.5625,,,0.021121911412701866,0.012555423346809837,0.006097954925918662,0.03977528968543037,1.6822938446013178,0.5310309888312087,0.3156588788191496,-4.377602567561557,41.13346235327189,78.33225585729232,0.5251152530090524,10122.453110024935,1.9043438450315993,4.71225588363592,596.6861972371004,0.5428571428571428,0.54,0.8148148148148148,0.13793103448275862,51.98656966983771,51.98109225099896,51.98244464619628,43.0,0.34414374114664875,0.6558562588533511,24.137148583616348,33.32117901386123,0.5427771032414456,0.45722289675855404,57.71004237934557,52.96690774687951,0.49982479191441437,0.5001752080855857,44.232628981179914,44.2481315263155,0.991951862773972,2.03727545855687,1.4642092684330952,1.7205484386233962,-0.8065250133746051,-1.2376274349127119,-0.37417549791137117,0.0018805585398782134,0.31463988895008577,0.6299038588998256,1.038508364598404,6.2355344461757385,0.8850330022060418,1.1072637742424851,1.225518057692467,1.7727681549781917,1.631210510364461,1.7748396671124644,2.873574303745296,0.8312875402824722,Relax
79.84791100651917,752.1142857142858,65.74635326033655,,,,,,,69.069780768326,69.40419382851306,0.08741537623886107,0.09183415616515005,762.0,41.5128,0.05447874015748031,62.0,0.9518830453634,690.0,792.2,24.761904761904763,48.57142857142857,584.0,914.0,9.545454545454545,226.5625,,,0.01751409861027921,0.010109985941844458,0.006402089238311275,0.034026173790434946,1.732356376262572,0.5147243036536355,0.2971237966428792,-4.5942316364705595,49.076176098927114,79.34035831188001,0.6185524888356687,12232.486533634024,1.616677675781967,4.794484856292671,513.0711442854346,0.5523809523809524,0.55,0.8363636363636363,0.13793103448275862,49.88489871086557,50.052414095583174,49.71375845862395,43.0,0.3341214078114103,0.6658785921885897,28.3676453194634,40.0468778706214,0.5468809121787265,0.4531190878212737,58.67330337540739,53.40726474998427,0.48800415420430665,0.511995845795693,46.082967731871754,47.202162849065395,0.8339983702820841,1.0993595870028827,1.586591773740273,1.2059096753111969,0.7473583295101758,0.08292278668493647,-0.8462762347549148,0.00263001118841831,0.16398745373703746,0.607428277603371,1.0239213960665206,6.2808190890534865,0.9195180513423258,1.1348061820011013,1.2577470594842877,1.6958213518940806,1.5902615092455192,1.8370568867789783,2.8844025950789836,0.8952327356888163,Relax
77.03262355658185,779.4509803921569,43.51615779372445,,,,,,,51.51852497734755,51.77079148984637,0.0558292424904394,0.06609591401299872,779.0,34.8411,0.044725417201540434,49.25,0.8446701028971287,741.4,805.8,14.705882352941178,51.9607843137255,656.0,920.0,7.846153846153846,156.25,,,0.06416466200829896,0.11349392982395318,0.05271724532178387,0.230375837154036,0.5653576548792378,0.27852166616500057,0.49264684710865675,-2.176005925218163,36.60747772986517,49.559228491905245,0.7386611705596758,5699.597882672068,1.353800686778094,4.462814326424291,268.3732702741352,0.49019607843137253,0.504950495049505,0.6862745098039216,0.03333333333333333,51.01626016260161,51.06348070164455,50.968491293723396,50.495049504950494,0.48143768418696603,0.5185623158130339,25.402657341309787,26.36389576674889,0.5224229944058301,0.4775770055941697,35.82083283500857,34.24886952469005,0.5079530520385223,0.49204694796147785,31.05178791143618,30.561741309349856,0.9273409092535697,1.9758746191547636,1.3336756022956207,1.6072646469258676,-0.6488430256215274,-1.0017485570140061,-0.36153521990819315,0.0017410154419750662,0.2978321783306415,0.6775482682449039,2.068012845856213,5.993168356528905,1.2689061554272043,1.0676927293003824,1.070951527336336,1.8074674422776813,1.8255132616781544,1.898196251250111,2.6867152609807707,1.1120708903285825,Stress
77.30550614242613,776.6930693069307,42.657178194122835,,,,,,,51.665559127914214,51.9166883116838,0.05492153835257892,0.06651991780230139,777.0,31.1346,0.04007027027027027,42.0,0.8256405023801577,746.0,805.0,14.85148514851485,53.46534653465347,656.0,920.0,6.733333333333333,140.625,,,0.04861859552430359,0.10596933044603389,0.04148362790545858,0.19607155387579606,0.4587987422366811,0.24796353455280737,0.5404625421246035,-2.2446055621504115,36.71064236193998,47.65144649992647,0.7703993280035398,5495.635814081724,1.2980281311919903,4.446988055051277,247.41167219557866,0.49504950495049505,0.5050505050505051,0.7,0.06896551724137931,48.58394160583942,48.64603762444687,48.52635548669194,52.52525252525253,0.4650829983553927,0.5349170016446074,25.03996805109783,26.854170339939095,0.5140968063733518,0.4859031936266482,34.16634654321575,33.21627789840762,0.49583725417336133,0.5041627458266386,29.952789820909096,30.203208290434205,0.7616049308295285,1.6954760741585053,1.1086193143662495,1.1514870447067698,-0.4144343174102616,-0.4269519492177074,-0.4747164050298992,0.0005453047653790789,0.16833240921261067,0.6755608654306489,2.0476928433652555,5.972229180621655,1.3036885554556492,1.3709373713602544,1.1444074607729948,1.7082151703710997,1.8087891965117289,1.9544945422611093,2.679626083631548,1.0547661754854327,Stress
77.46291047265353,775.7352941176471,46.02386950022808,,,,,,,57.9620053087015,58.21942957637097,0.05932934836048359,0.07471879357330241,775.0,31.875899999999998,0.041130193548387095,47.75,0.7940351486306977,741.2,798.0,16.666666666666664,55.88235294117647,656.0,935.0,6.8,140.625,,,0.04367127999599026,0.09114589765328616,0.032639050241128856,0.16745622789040526,0.47913599098133125,0.2607922114701623,0.5442968517894613,-2.395293785416794,41.167353450264564,48.92842924230056,0.8413790119114177,6327.965381574816,1.1885250117283437,4.508234204561374,232.61064775621884,0.5196078431372549,0.53,0.7358490566037735,0.10714285714285714,52.526839486776645,52.55910654680521,52.49649888819343,50.0,0.492215290036809,0.5077847099631909,28.89792380085462,29.35140541779899,0.565850749427889,0.434149250572111,36.805457583363804,32.23894353414857,0.5353100038035896,0.46468999619641044,33.08875721389965,30.828999985387295,0.7732648826315769,1.8677602673211073,1.1733104313011364,1.293558476691746,-0.6698688630507839,-0.8298769811740501,-0.4356191222746809,0.0008937779192509822,0.2181904431103183,0.7311018362972264,2.052290552613885,5.993168356528903,1.2511937160458315,1.4456017874739608,1.2580862789832863,1.6109344209089675,1.8100399456888094,1.956046683266184,2.464409886038224,1.1120708903285825,Stress
77.41053787899781,775.5490196078431,40.80735408653894,,,,,,,50.96232349335717,51.21336072580751,0.05261737563303634,0.0657112860759289,775.0,30.3933,0.03921716129032258,40.5,0.8007357453366132,746.2,798.0,13.725490196078432,52.94117647058824,656.0,920.0,6.8,140.625,,,0.05391142135396967,0.06085994652449531,0.01752447917786739,0.13229584705633238,0.8858276162347767,0.40750652838719764,0.4600291534365457,-2.799180013177922,36.2133146565713,45.089802583618656,0.8031375739428891,5129.753361855884,1.245116692885682,4.417066594730531,224.56826350313418,0.5196078431372549,0.53,0.7358490566037735,0.10714285714285714,50.84145261293178,50.857386295560644,50.82386415616895,50.0,0.47004151528898674,0.5299584847110133,24.829216661022553,26.36427507063299,0.5711866250333834,0.42881337496661664,34.07747034550122,29.52653572434782,0.5315238275009381,0.4684761724990619,29.814124045060545,27.990099248494886,0.8461088328801589,1.7028107161687929,1.1979049511122164,1.2863733199871445,-0.44614720255053086,-0.6086062343852436,-0.4480456823328103,0.0006428401852033116,0.17836107353628367,0.7335267965691323,2.1972245773362196,5.973560513391648,1.356761208059717,1.4865520664793166,1.254358047661375,1.628801538149002,1.8165577337001526,1.9387062388460021,2.9417687960776857,1.1120708903285825,Stress
77.44522458826108,775.0196078431372,42.55386345438208,,,,,,,51.689284945893974,51.9403637466914,0.05490682174197961,0.06669416415120662,774.5,29.651999999999997,0.038285345384118784,39.75,0.8232627613039252,746.2,797.8,12.745098039215685,50.98039215686274,657.0,920.0,6.8,132.8125,,,0.06903925247456918,0.04905364179455699,0.011765484597731841,0.129858378866858,1.4074235866872946,0.5316503492266308,0.37774722141611683,-3.0148408491508203,36.727383422581404,46.33957208039431,0.7925706210420596,5346.774653591195,1.2617172191989852,4.4350619905715405,233.86974409658416,0.5294117647058824,0.54,0.7407407407407407,0.14285714285714285,48.75813128326434,48.95595234783198,48.553812385075034,49.0,0.3592699647952566,0.6407300352047434,22.016925307590068,29.402465882983353,0.6264159956299281,0.3735840043700719,36.67612451580821,28.323450197583462,0.5233312362296617,0.4766687637703382,30.24800083889073,28.867999853600793,0.9298769570213908,2.4130755463307265,1.3339264743481434,1.5954720940203608,-1.1514831352895136,-0.8773587114149963,-0.3916131655845096,0.0013640349958630267,0.3540664411629181,0.7645173505258751,2.178532444324067,6.027577915394854,1.2665637767118725,1.3988567571243766,1.1679195714941477,1.6757444393253504,1.7944339988610294,1.9054444870632425,2.348229791070182,1.0466549556033717,Stress
77.31117970427573,776.4019607843137,39.243908477022295,,,,,,,45.00165013476156,45.2231387370196,0.05054586471855182,0.057961793513892385,779.0,28.1694,0.0361609756097561,38.5,0.8720548770879027,747.0,798.0,10.784313725490197,49.01960784313725,667.0,920.0,6.8,125.0,,,0.08053548979968682,0.062188107815872674,0.01752807465868161,0.1602516722742411,1.2950303945271546,0.502556314431872,0.38806526592402246,-2.7775914901875094,31.9775880674866,45.524518472777046,0.702425618990538,4573.418426132693,1.4236382799321994,4.3672110471499055,259.2417886933038,0.5196078431372549,0.53,0.7358490566037735,0.14814814814814814,50.842514581983146,50.86852209838252,50.814943494116136,47.0,0.42955412144323857,0.5704458785567615,20.95960400389282,24.153571164529687,0.6083417167395962,0.39165828326040364,35.50742352356525,28.490430970702825,0.5492672950812638,0.4507327049187363,29.155463684203642,26.41116863086886,0.9434674752022624,2.1660083610784953,1.2445247012087224,1.3659799646977013,-0.9691077490205835,-0.2921012995647172,-0.44392668760128695,0.0004853964942947982,0.2273436087156701,0.6921773525892143,2.0689702418125404,5.9883622291203435,1.3154684289487406,1.0682908932676627,1.3644184625017468,1.6412214257372442,1.805895301885396,1.8702896858313356,2.7980709248659323,1.0466549556033717,Stress
77.27775585709306,776.7920792079208,39.62810034096592,,,,,,,44.91247042860145,45.13854206548966,0.05101506748288924,0.05781787898043166,779.0,29.651999999999997,0.03806418485237484,39.0,0.8823406943059114,747.0,802.0,10.891089108910892,47.524752475247524,667.0,920.0,6.733333333333333,125.0,,,0.06249909684860083,0.05758201072978799,0.017505157102033805,0.13758626468042262,1.0853927477782426,0.45425389659185894,0.4185156916901272,-2.8545450737793363,31.91776918738197,46.25839754503332,0.6899886481434964,4638.451144329291,1.4492992061400274,4.373343096601882,268.16903535730637,0.5148514851485149,0.5252525252525253,0.7115384615384616,0.14814814814814814,50.2151605428666,50.25902365542537,50.17188759595612,48.484848484848484,0.42829663928452794,0.571703360715472,20.888472486715795,24.133467269007213,0.6028840151291449,0.39711598487085525,35.917613159855286,29.150718830473686,0.5465736916010666,0.4534263083989335,29.38029286723749,26.75993881492982,0.9748820635958557,1.8368093699325687,1.3032109880924336,1.5158605101509766,-0.7093858648416305,-0.9052149768545528,-0.3842288560046111,0.0007392747474559884,0.20899567811953365,0.6571493177200649,1.9252908618525775,6.0540575222700745,1.2979052858345084,0.9556027116846146,1.1423809712041926,1.6775203595044212,1.840407196426603,1.8686389249191033,2.621619128565903,1.1206890614532723,Stress
77.52884951883792,774.3823529411765,40.51379037130983,,,,,,,44.907385443006284,45.1313594295629,0.05231755374775093,0.057991230394705974,774.5,34.099799999999995,0.044028147191736595,43.75,0.9021631959118943,743.8,801.2,10.784313725490197,47.05882352941176,667.0,920.0,7.846153846153846,125.0,,,0.0599048264275541,0.05563423060035517,0.019500824545039378,0.13503988157294863,1.0767620182954711,0.44360840464150936,0.4119837040163688,-2.8889566088856404,31.912690296811363,47.6785565267579,0.6693300431379775,4780.093469540881,1.4940312484880607,4.386406498814276,284.9330133351227,0.5196078431372549,0.53,0.7358490566037735,0.18518518518518517,50.03280839895014,50.07064473540854,49.995875217506644,49.0,0.4263025078062095,0.5736974921937905,20.836386442951184,24.17157421435352,0.5986964079936191,0.4013035920063809,36.89150942693013,30.203663431411307,0.545358839003084,0.45464116099691604,29.95945983990094,27.354398957735963,0.9494740225019547,2.1563002627328194,1.319107571981363,1.6806811323662871,-1.2315798842427892,-1.5214707876347746,-0.33231761984452085,0.0012208076385624652,0.3019956318417056,0.7838535633552013,2.0883304890970815,6.027577915394854,1.2719072548881654,1.2331783959406126,1.1266147669367703,1.5931217950059957,1.8299152587148546,1.8484651257907312,2.5762982703925634,1.1120708903285825,Stress
77.49707576131188,774.4607843137255,40.03999771728944,,,,,,,43.22803912204015,43.44153462635809,0.051700484425134786,0.05581695031898342,774.0,32.6172,0.042141085271317824,43.0,0.9262506125769359,745.4,801.2,8.823529411764707,44.11764705882353,667.0,920.0,8.5,125.0,,,0.07392175866255501,0.05275439103379994,0.012139965735124141,0.1388161154314791,1.4012437109774059,0.532515684024046,0.3800307397294948,-2.9421082677434947,30.717803719448014,47.25560891849164,0.6500350841406215,4560.299828586168,1.538378503557311,4.365963507367404,290.7880517308747,0.5098039215686274,0.52,0.7307692307692307,0.18518518518518517,49.25113200975271,49.23286879463816,49.26894237286532,49.0,0.4130341484091451,0.5869658515908549,19.74259354796122,23.535186423735844,0.5713224807923771,0.428677519207623,35.71856645168991,30.93988663349686,0.5243021248581967,0.47569787514180306,28.858153001914275,27.488011795086578,0.9575953307089903,2.836670372177065,1.3654165900085975,1.6726383593448761,-1.943966893792389,-1.2277300420995196,-0.3916963450002495,0.0009389049082754809,0.41148453814366,0.7422745883024797,2.0522905526138846,6.054586616396458,1.2593184923776284,1.2895123853820405,1.0836963109164384,1.712732169486939,1.90089320909192,1.8540827881416826,2.539281348667012,0.9812390208781611,Stress
77.88984999290331,770.6990291262136,41.77151552017337,,,,,,,42.87624690921079,43.08696897843243,0.05419951750494894,0.055632932297607914,769.0,32.6172,0.0424150845253576,46.0,0.9742344195522369,741.0,797.6,8.737864077669903,43.689320388349515,667.0,920.0,9.363636363636363,156.25,,,0.06103527301772117,0.044906107366943476,0.007549639648552989,0.11349102003321763,1.3591753237255826,0.5377982592795164,0.3956798287106762,-3.1031814719485293,30.467087945423984,50.833837291549536,0.5993466078644577,4865.569869453463,1.6684836234630867,4.3941038233565095,339.2617001549502,0.47572815533980584,0.4851485148514852,0.6938775510204082,0.18518518518518517,50.52155771905424,50.5510358094685,50.49128135386315,47.524752475247524,0.420304617255245,0.5796953827447551,19.7525534130814,23.197494743532925,0.5854508469616266,0.41454915303837325,38.89538850860665,32.72961604645372,0.5418041674377986,0.45819583256220153,30.84651206840154,28.36680744218953,0.9818895836120985,2.613257191190101,1.3708136839836529,1.655142481378082,-1.6329837662491151,-1.0963699153300817,-0.3911975452117887,0.0009238689547243338,0.36183354915819615,0.6982098379842081,1.7819071727850433,6.125583658146157,1.2251489993447682,1.1226620192321508,1.133341010669206,1.7520101560532613,1.9124018161991316,1.855727739843103,2.8243231960612643,1.1035971743894633,Stress
77.87693134637772,770.6372549019608,39.83525211670824,,,,,,,37.05708734874177,37.24189060509126,0.05169131373200484,0.04808629107018205,773.5,34.8411,0.045043438914027144,46.75,1.07496986316872,741.0,798.0,6.862745098039216,41.17647058823529,667.0,881.0,8.5,156.25,,,0.05969926175070593,0.040861541473987024,0.011430046240954693,0.11199084946564766,1.461013451700329,0.5330726754512048,0.36486500164034374,-3.1975659645581254,26.333993391067597,49.851426784749584,0.5282495424809711,4124.242445699247,1.8930447063018943,4.322314297546702,377.48391830586667,0.47058823529411764,0.48,0.6666666666666666,0.14285714285714285,50.07812499999999,50.1199849399744,50.036239985039025,47.0,0.3793764780527196,0.6206235219472803,16.22004932174992,20.745842957084196,0.5951617118620192,0.40483828813798073,38.45874293762498,31.718919340559633,0.5480841817839743,0.4519158182160258,29.514106020192443,26.799998546016077,1.170435243046995,2.00293683893559,1.4404370989672373,1.6545803039160984,-0.9916981806162042,-0.6752972809092879,-0.39308539301585654,0.0005951648696212523,0.20710735664230856,0.6868798777380989,2.174751721484161,6.081595317398061,1.2085686015297836,1.0301654676348686,1.1649702183615134,1.6642959723481425,1.8751844112298737,1.767900886383574,2.7234089163048876,1.0466549556033717,Stress
77.78563307071394,771.4117647058823,40.23085681935367,,,,,,,37.0,37.18134313372397,0.052152246906284304,0.047964007930456,774.0,34.099799999999995,0.044056589147286815,46.0,1.0873204545771262,741.0,801.0,6.862745098039216,42.15686274509804,667.0,881.0,7.846153846153846,148.4375,,,0.06275310711553335,0.037099879575380086,0.010546372695348338,0.11039935938626178,1.6914639032191643,0.5684191236651543,0.3360515838282739,-3.294141555320644,26.2911798634801,50.26732300785709,0.5230272529008682,4151.888734276206,1.9119462598816714,4.325215816377975,384.43368087654494,0.46078431372549017,0.4646464646464647,0.6304347826086957,0.14814814814814814,50.96570752857708,50.95737702359152,50.97446971856054,47.474747474747474,0.38600843283744013,0.6139915671625601,16.336003183153462,20.60291241548146,0.5962837745946624,0.40371622540533775,38.816131763606954,31.939187173228753,0.551110969705492,0.44888903029450805,29.778827084773646,26.87556210841496,1.1554893554775687,2.218291617558032,1.469768830679157,1.5992052411230384,-1.0040159895249339,-0.2697307732216139,-0.44165040817024354,0.000527519824983699,0.24086173606994016,0.6611339012288613,1.6677068205580758,6.096397033126755,1.1906245967990012,1.4707423062358396,1.08308427227607,1.3982649943292218,1.8765273840746033,1.7694769920930247,2.89047602098156,0.9812390208781611,Stress
77.8504362948498,770.4368932038835,40.25206605412618,,,,,,,39.26793333287728,39.44137809900007,0.052245766537395204,0.05096839686581008,773.0,34.099799999999995,0.044113583441138415,46.5,1.0250619942971364,740.4,801.6,8.737864077669903,41.74757281553398,667.0,881.0,8.583333333333334,125.0,,,0.07066272800223483,0.02673375100744149,0.007388795200257394,0.10478527420993372,2.6432028929485227,0.6743574279403466,0.25512889295762425,-3.6218284291800704,27.889265913145525,49.10721721662336,0.5679260095337817,4302.6129525183105,1.7607927497825182,4.340702390242393,345.87052814810266,0.47572815533980584,0.48,0.6458333333333334,0.15384615384615385,47.58155230596175,47.63632554855658,47.52863678740869,49.0,0.34930474755374136,0.6506952524462585,16.491672065765574,22.508744175462915,0.5892845651367201,0.4107154348632798,37.69709268919991,31.47138359752394,0.5307125459373718,0.4692874540626281,29.09506869508029,27.359564597220242,1.1651977745767945,2.6129027387891544,1.4693955731232469,1.7650582715020962,-1.8598864382369875,-0.9688084581088869,-0.3868451190357501,0.0007535845216728414,0.3186543378509741,0.6219826714084378,1.562917896799207,6.108735721315966,1.180043430397703,1.4555062400414724,1.09543028591021,1.4514273538636038,1.8747817141131957,1.7843789412762028,2.4783340370815385,1.1035971743894633,Stress
77.79781659375381,771.5294117647059,39.50578498366164,,,,,,,35.96161319744119,36.14036990172711,0.05120450935668252,0.04661081307994055,774.0,34.099799999999995,0.044056589147286815,43.5,1.0985543047460573,741.4,804.4000000000001,5.88235294117647,38.23529411764706,667.0,881.0,9.272727272727273,164.0625,,,0.06076716388356916,0.02180212636313534,0.005014770576195736,0.08758406082290024,2.7872127182199447,0.6938153279561186,0.24892801450734775,-3.8257477743504062,25.555100632101443,49.81502020097717,0.5129999050286475,3999.334954652013,1.9493180996674007,4.3089578889053115,388.421282052248,0.4803921568627451,0.48484848484848486,0.6666666666666666,0.14814814814814814,50.4384133611691,50.469251182368524,50.40681960853156,47.474747474747474,0.3794758722065275,0.6205241277934724,15.742617317333227,20.13094632648947,0.5939970848700581,0.4060029151299418,38.39303701386394,31.74131292930139,0.5493025027971801,0.45069749720282004,29.341568560217826,26.577866228083806,1.1404447144135488,1.813181666894081,1.4474797251709275,1.4167981606906468,-0.2420806413174308,0.3302203203598739,-0.5169213957103577,0.00040941149847349543,0.1732483070919425,0.6674600609201833,1.992430164690206,6.022771787986296,1.156070258369807,1.1183845334337787,1.3946562526705724,1.7540146990905974,1.8200341025925577,1.769590836058929,2.8175286437765443,0.9812390208781611,Stress
77.72614814980942,772.1470588235294,38.981182832569466,,,,,,,35.59828119112461,35.7732711768587,0.050484143385798264,0.04610298101162674,774.0,31.875899999999998,0.04118333333333333,42.0,1.0950299151602938,745.4,802.8,5.88235294117647,38.23529411764706,667.0,881.0,9.272727272727273,156.25,,,0.04731544604199087,0.02900113448139927,0.009977240846916573,0.08629382137030672,1.6315032804091862,0.5483063015479331,0.3360742869057647,-3.5404203297125814,25.29552263438205,49.19336568809632,0.5142059763660976,3909.3096043714427,1.9447459694401399,4.299070176440489,382.6743985804808,0.49019607843137253,0.494949494949495,0.7142857142857143,0.14285714285714285,49.088596863077576,49.136951100738216,49.042934328201305,47.474747474747474,0.3659319795923151,0.6340680204076848,15.302940893828218,20.143857624596137,0.6025828870903257,0.3974171129096743,38.1869465970101,31.012003116855748,0.5530898181899377,0.44691018181006215,29.08971373529569,26.148798608347867,1.1634909362154768,2.008710166522063,1.5161941439279687,1.56449783793776,-0.6058310506209565,-0.20298190958826945,-0.47595288020400384,0.0005444483990815616,0.21992217527308522,0.6422224353639328,1.8718021769015913,6.0079700722576,1.1350631695537632,1.2533494046630969,1.513657354480102,1.8215795128504033,1.873309564957847,1.7388943832454595,2.7779978068091555,1.0466549556033717,Stress
78.0691568180757,768.9803921568628,40.93558823326112,,,,,,,35.70644892802286,35.88294225052421,0.053233591715444874,0.04643349725455571,770.0,34.099799999999995,0.04428545454545454,46.0,1.1464480356413815,741.0,801.8,5.88235294117647,39.21568627450981,667.0,881.0,10.2,101.5625,,,0.036963850825000116,0.023890371654162114,0.006833483925371299,0.06768770640453353,1.5472279527539445,0.5460940071463904,0.35294993615800824,-3.734279760872914,25.373071794270942,51.87243015225902,0.4891436880785111,4134.847679963752,2.0443890504409263,4.323429625550559,424.1897128921604,0.5,0.5050505050505051,0.74,0.13793103448275862,49.28631402183038,49.29032902762812,49.281568833316406,47.474747474747474,0.3673837073852606,0.6326162926147395,15.379856956421929,20.181922604152458,0.5598736723174821,0.4401263276825178,38.81339368643119,34.41321665353435,0.5227073852905779,0.4772926147094221,29.521344222933823,28.209745483104715,1.1631243221833125,2.5146591451706652,1.4482461254854366,1.7286583694185589,-1.8429409170153015,-1.007325632099175,-0.38848896500678975,0.0005701457464850891,0.28486367553358743,0.6810611734728318,1.6956156086751526,6.034978773259204,1.0949122900139965,1.2913078813874639,1.4298102526793073,1.8282498148951312,1.8711400662609983,1.7081001665054756,2.57073712656246,0.9158230861529503,Stress
78.01417987512986,769.3203883495146,41.962685009196434,,,,,,,36.07413390859026,36.251891950172705,0.05454513573885957,0.046890911062402785,770.0,40.0302,0.05198727272727273,54.0,1.163234718691443,739.2,804.2,6.796116504854369,37.86407766990291,667.0,881.0,10.3,164.0625,,,0.03395894196873378,0.018051557334540346,0.003936521032849101,0.055947020336123233,1.8812195169308636,0.606983924518453,0.3226544903747988,-4.014523319003157,25.633958628809133,53.828630863876526,0.4762142045491193,4334.898023912884,2.0998953631523913,4.3439489953558335,452.1379694235841,0.49514563106796117,0.494949494949495,0.7142857142857143,0.13793103448275862,50.349650349650354,50.39229732779496,50.30571586952303,47.474747474747474,0.388829037871882,0.611170962128118,15.984522216664766,20.04018240663216,0.5778337128440189,0.4221662871559813,40.91803522632773,34.97478940460518,0.5428940976259895,0.4571059023740105,31.062763538343194,28.5030244429216,1.1736961786897746,2.216321184183185,1.4437376275240816,1.6918380101161903,-1.4357913027168543,-0.8697206087866975,-0.38805756838734323,0.0004890643971394526,0.22981444278494387,0.6398349328465449,1.547562508716013,6.060002226086318,1.0892248789618932,1.342859729525064,1.3532863787077034,1.8108720018792,1.9096842593363115,1.703579194975482,2.9386420085850773,0.8439272510037072,Stress
77.98297635975142,769.7450980392157,41.365716487029964,,,,,,,35.82327358984755,36.00127885517292,0.05373949972841858,0.04653913832137517,771.5,42.9954,0.055729617627997406,57.5,1.154716259620482,738.2,804.6,6.862745098039216,37.254901960784316,668.0,881.0,11.333333333333334,179.6875,,,0.027615817029986108,0.012596373393559115,0.0007232732255647411,0.040935463649109965,2.192362529051962,0.6746184009714165,0.30771297722513985,-4.3743463323625384,25.456748409880635,52.9241929368772,0.48100399830835316,4232.598241111972,2.0789847974588738,4.33357715709189,440.11437013419203,0.4803921568627451,0.47959183673469385,0.723404255319149,0.1,50.46218487394958,50.519538604993194,50.40401889955057,46.93877551020408,0.3856142083416914,0.6143857916583086,15.80838385161494,19.95407226608143,0.5845526311655328,0.4154473688344671,40.46374301851867,34.11239802404813,0.5471723699109764,0.4528276300890235,30.71823154959216,27.944773204940162,1.1507135851493273,2.14214832669467,1.557866368852397,1.5007400318089381,-0.5118746457590753,0.19343927727917531,-0.5266677784780687,0.0006394926849717399,0.2515047345940926,0.6360032432607152,1.6635051337043762,6.079000586942272,1.0824551639289868,1.3496268615671627,1.2706743294196232,1.8188105259001197,1.9394925942356507,1.7274460340662625,2.611073482790531,0.9158230861529503,Stress
78.71497252533493,762.3076923076923,42.63529622206513,,,,,,,33.855059423130385,34.015405072109374,0.055929248323597046,0.0444112787588996,765.5,43.7367,0.05713481384715872,60.75,1.259347847811956,719.8,801.0,4.807692307692308,37.5,666.0,881.0,13.0,195.3125,,,0.030134499298154253,0.013732039229137762,0.00025415708721264794,0.04412069561450466,2.1944664441543695,0.6830014549509403,0.3112380491259381,-4.288023546622802,24.05252359129582,55.43753934911193,0.43386708489761144,4189.039614899044,2.304853340593907,4.329084577377368,511.10159105242724,0.49038461538461536,0.48484848484848486,0.7291666666666666,0.0967741935483871,48.664038545773096,48.697961273709346,48.63347699179387,49.494949494949495,0.3803566134428867,0.6196433865571132,14.83619712386025,18.936426148936278,0.5281003928969178,0.4718996071030821,40.28674602957769,38.08278959625514,0.5046888483109234,0.4953111516890767,30.357327375361397,30.073967968383855,1.188337984009365,2.1725411032222555,1.5666151989812285,1.4757314881665518,-0.5469052226990261,0.3594198804708202,-0.5418329074096138,0.00048664017255922607,0.24114125076951226,0.644566426722669,1.8827312474337816,6.1568885160932,1.0079200732115525,1.5041233671453984,1.2804969966672037,1.7571110695997258,1.9297549380167753,1.7106578081120007,2.744107376605496,0.7731276597855106,Stress
79.2946846093004,756.7692307692307,44.248466764996785,,,,,,,22.781997662095574,22.884067896410613,0.058470224430266136,0.030104286400410903,761.0,50.4084,0.06623968462549278,71.25,1.9422557855238864,712.6,799.8,2.8846153846153846,34.61538461538461,644.0,834.0,13.0,179.6875,,,0.01288546646546012,0.007917700972845932,8.723350288592151e-05,0.020890400941191975,1.6274252475120412,0.6168127888848884,0.37901144143354865,-4.838654396501869,16.181479590685317,60.21585166023107,0.2687245823905237,3061.1099967946334,3.7212821808268775,4.19284904561683,896.3207031461297,0.49038461538461536,0.48484848484848486,0.7291666666666666,0.1,48.23032223983096,48.12479209631681,48.334373954507384,49.494949494949495,0.4619802091322323,0.5380197908677681,11.002896231910762,11.873929260292542,0.5329304334755077,0.46706956652449233,43.95882688421742,41.15301119153197,0.5281483420267474,0.47185165797325257,32.042488874358625,30.286635057470374,1.3332016938098006,1.5433606892259961,1.5006566788371172,2.019161181434226,-1.4247069835521895,-2.1972165545390014,-0.16404191436472212,0.0008024809344940129,0.16000842711300256,0.6637601167173774,1.7619065060783736,6.1833778189986175,0.9713408092059422,1.2193939048038995,1.2747027094198822,1.6799067897196343,1.9328720781609083,1.6615709295895011,2.75232764839049,0.7087003548033847,Stress
80.02915712806943,750.0571428571428,48.93221932338741,,,,,,,23.000418056401294,23.074416094844057,0.06523798858443393,0.030664887702805323,756.0,60.7866,0.08040555555555555,79.0,2.127449127376577,702.0,795.8,2.857142857142857,36.19047619047619,645.0,834.0,13.125,179.6875,,,0.02824105423902032,0.009625272930315223,0.00044836647780834655,0.03831469364714389,2.934052306202546,0.7370815619486365,0.25121623100939827,-4.643363042813937,16.316076092584247,66.91987450811773,0.24381510294979739,3430.2100310833484,4.10146864530334,4.24229082258413,1097.8790681707167,0.5047619047619047,0.494949494949495,0.7551020408163265,0.0967741935483871,46.487603305785115,46.49272517803482,46.48685940425318,51.515151515151516,0.4549420189756081,0.5450579810243921,11.02292403897133,12.065356005273138,0.5089829301384129,0.49101706986158716,47.74267258005629,46.892502802641765,0.5059413991820563,0.49405860081794384,34.64727723397173,34.23798792737204,1.3848769486869092,1.2925756150102936,1.5332316022343018,2.0037460675283163,-0.9814612412568238,-1.9266238639293443,-0.13598689327721264,0.0008004040711364499,0.12826911958744386,0.7365973858226256,1.7090677533829417,6.183060398515483,0.9113365275076478,1.2572302866467768,1.3429898996290943,1.7648633389983897,1.9709527202051922,1.6567687365787223,2.0942611094156756,0.7033971494697843,Stress
