PPG_Rate_Mean,HRV_MeanNN,HRV_SDNN,HRV_SDANN1,HRV_SDNNI1,HRV_SDANN2,HRV_SDNNI2,HRV_SDANN5,HRV_SDNNI5,HRV_RMSSD,HRV_SDSD,HRV_CVNN,HRV_CVSD,HRV_MedianNN,HRV_MadNN,HRV_MCVNN,HRV_IQRNN,HRV_SDRMSSD,HRV_Prc20NN,HRV_Prc80NN,HRV_pNN50,HRV_pNN20,HRV_MinNN,HRV_MaxNN,HRV_HTI,HRV_TINN,HRV_ULF,HRV_VLF,HRV_LF,HRV_HF,HRV_VHF,HRV_TP,HRV_LFHF,HRV_LFn,HRV_HFn,HRV_LnHF,HRV_SD1,HRV_SD2,HRV_SD1SD2,HRV_S,HRV_CSI,HRV_CVI,HRV_CSI_Modified,HRV_PIP,HRV_IALS,HRV_PSS,HRV_PAS,HRV_GI,HRV_SI,HRV_AI,HRV_PI,HRV_C1d,HRV_C1a,HRV_SD1d,HRV_SD1a,HRV_C2d,HRV_C2a,HRV_SD2d,HRV_SD2a,HRV_Cd,HRV_Ca,HRV_SDNNd,HRV_SDNNa,HRV_DFA_alpha1,HRV_MFDFA_alpha1_Width,HRV_MFDFA_alpha1_Peak,HRV_MFDFA_alpha1_Mean,HRV_MFDFA_alpha1_Max,HRV_MFDFA_alpha1_Delta,HRV_MFDFA_alpha1_Asymmetry,HRV_MFDFA_alpha1_Fluctuation,HRV_MFDFA_alpha1_Increment,HRV_ApEn,HRV_SampEn,HRV_ShanEn,HRV_FuzzyEn,HRV_MSEn,HRV_CMSEn,HRV_RCMSEn,HRV_CD,HRV_HFD,HRV_KFD,HRV_LZC,Labels
70.19658180512987,857.3152173913044,89.42243607495043,,,,,,,132.76799561393045,133.5033366756835,0.10430520100535594,0.1548648535808401,863.0,59.303999999999995,0.06871842410196986,79.5,0.673524034624862,815.2,909.6,54.347826086956516,81.52173913043478,597.0,1143.0,11.5,289.0625,,,0.031939229764809215,0.08302574924830208,0.03272890557941252,0.1476938845925238,0.38469065385112905,0.21625289261587993,0.5621475085265975,-2.488604487390253,94.40111467440653,85.03329090221405,1.110166543865334,25218.310187724383,0.9007657504415864,5.108686092249062,306.38030436820225,0.6739130434782609,0.6888888888888889,0.9193548387096774,0.34782608695652173,49.867469879518076,50.07979266382995,49.662897682706905,41.11111111111111,0.4115964959528406,0.5884035040471596,60.56387812329502,72.41282114837583,0.7703511399547274,0.22964886004527274,74.63342151007751,40.749392085768086,0.5722947479596318,0.42770525204036824,67.96370700467358,58.754274831821064,0.4737551532030679,2.2095453931614717,0.8575231774378852,1.1692150586199626,-0.7107166202652717,-0.7355567871705211,-0.3589339317731323,0.0024068913849137714,0.3632729292934594,0.5988026771296067,1.8152899666382492,6.14579143972915,1.3535804728818546,1.313225461488807,1.4902310495808895,1.7780040172140037,1.8085484939217211,1.9442848669038604,3.736752110719515,1.2054407962279263,Relax
70.16443137094878,857.9782608695652,91.78965182174717,,,,,,,135.45304526856336,136.20328572664846,0.10698365682216458,0.15787468219915154,867.0,63.751799999999996,0.07353148788927336,82.5,0.6776492299582886,810.2,910.8,58.69565217391305,84.78260869565217,597.0,1143.0,11.5,281.25,,,0.034245746161735,0.07594556827857578,0.01924739788333625,0.129438712323647,0.4509248786725547,0.2645711282734901,0.5867299428063096,-2.5777384021553105,96.31026695720202,88.04577494666331,1.09386585574998,26639.801205139844,0.9141888785936888,5.132501089625485,321.96187305360974,0.6847826086956522,0.7,0.9365079365079365,0.34782608695652173,49.8801780212256,50.07900145619121,49.68897973226802,42.22222222222222,0.4162186119637642,0.5837813880362356,62.13466557942246,73.58653258428323,0.7462698025325183,0.25373019746748177,76.06002337323314,44.350099553684366,0.566477788445054,0.4335222115549461,69.4472599250807,60.753226697021994,0.5188508640296372,1.3955442138025327,0.7759182998022485,0.8778577013051432,-0.21529890229033466,-0.4078861469477897,-0.42695365686398884,0.0003748754199097695,0.11411064574833113,0.5497095820372824,1.7303905228517629,6.202803532096938,1.4385927872343407,1.3083618148820022,1.2353628688111995,1.4888964457117277,1.8594324196711856,1.9597107468164037,4.091679842715731,1.2763490783589808,Relax
71.10677927067994,851.7282608695652,112.92768309909223,,,,,,,150.11570628926634,150.91382852006518,0.13258651648332018,0.17624835664840674,867.0,63.751799999999996,0.07353148788927336,83.0,0.7522709374692983,797.0,915.0,58.69565217391305,83.69565217391305,301.0,1143.0,10.222222222222221,578.125,,,0.02663630132568462,0.06808177843010646,0.03204193004090779,0.12676000979669888,0.39123979925156854,0.21013173924808493,0.5370919309591239,-2.6870456724068212,106.71219152136187,117.03960800203424,0.911761354493832,39237.08815467574,1.0967782249941425,5.300666880196735,513.4659740739253,0.6739130434782609,0.6888888888888889,0.9354838709677419,0.2916666666666667,48.490566037735846,48.80025249959964,48.333097971131735,43.333333333333336,0.3919401558522621,0.608059844147738,66.82215201563027,83.23073684376197,0.6885996162515847,0.3114003837484151,97.1216935396468,65.31191687020655,0.5539006045519527,0.44609939544804766,83.36013242554581,74.80976554172699,0.5459290758026177,2.0809278672798683,0.9139889499054319,1.0136514606016709,-0.4536409154557077,-0.04151259554093478,-0.452106696121805,0.00111045446044398,0.26673034685910185,0.655973136680331,1.6010696627635836,6.181064401662155,1.2654845790718219,1.3073589713098772,1.1079303268411753,1.2418690633326905,1.6590721350117297,1.961829314384368,2.6057502319352706,1.4181656426210898,Relax
70.83267256771106,851.5978260869565,103.87895108605329,,,,,,,145.17734512816227,145.9507142463201,0.12198123093311682,0.17047641583967388,865.5,63.751799999999996,0.07365892547660312,87.5,0.715531414315017,779.2,910.8,57.608695652173914,84.78260869565217,540.0,1143.0,10.222222222222221,335.9375,,,0.033064431653662636,0.0732302058916354,0.03754555221671028,0.1438401897620083,0.4515135694496165,0.22986921602626917,0.5091081012392913,-2.6141472943381365,103.202739762593,101.66574971063098,1.01511807129084,32962.16789225649,0.9851070809215171,5.2249858770852535,400.606599708549,0.6956521739130435,0.7111111111111111,0.953125,0.4090909090909091,48.56115107913669,48.51895523160077,48.57658494533993,44.44444444444444,0.4045344058629021,0.5954655941370978,65.65397508486782,79.65474108788364,0.646324860552799,0.3536751394472009,81.73350027552497,60.461223911986934,0.523590121691626,0.47640987830837417,74.13099726745111,70.71222445487484,0.6429296807278447,1.6278524753809087,0.9616325262821446,1.1635722849072607,-0.2614622938926825,-0.5769556297898459,-0.37594713791379447,0.0012592793613450763,0.19958966690544144,0.5917561711679036,1.7491998548092589,6.232747961468281,1.3880367414845194,1.314033122723016,1.1948448429000988,1.4317691990078696,1.7445770357771295,1.9669326619829146,4.113230321423926,1.2763490783589808,Relax
72.1341004306092,836.2553191489362,128.13542367104972,,,,,,,163.8930939257635,164.7813744200895,0.15322524202471344,0.1959845159401304,860.5,66.717,0.07753282975014526,116.5,0.7818232031734634,756.6,908.8,60.63829787234043,86.17021276595744,346.0,1143.0,10.444444444444445,531.25,,,0.031955925565822135,0.06555113840887737,0.029836003235676874,0.1273430672103764,0.4874961189307805,0.25094358307727527,0.5147601659427913,-2.724924701892305,116.51802726568478,139.75262657260183,0.8337448112658791,51156.75340361672,1.1994077642074856,5.415873084712221,670.481541518272,0.7021276595744681,0.717391304347826,0.9545454545454546,0.34782608695652173,49.954271081031635,50.281193513582636,49.68397337336793,44.565217391304344,0.42107020305291926,0.5789297969470808,75.60847376020644,88.65559890605502,0.6994249222562199,0.30057507774378006,116.87739694781148,76.61899710022836,0.5852786134363915,0.4147213865636085,98.43009504629191,82.85615829265832,0.5667170078091417,2.0814738078993105,0.9663380810783964,1.2405741142601399,-0.629002852193743,-0.7861688393751978,-0.3682491068871478,0.0019966772887005644,0.3258182160381057,0.6168099656851251,1.491654876777717,6.2486857931439825,1.259313216332895,1.1825681174974125,1.0475309395850045,1.185135497299055,1.6194112055528378,1.9884232785604286,2.9105014382175276,1.1156746981578958,Relax
72.26417407331148,834.7473684210527,122.88854736218649,,,,,,,149.02227450241236,149.8004224035312,0.14721645375730086,0.1785238026976857,862.0,68.19959999999999,0.07911786542923432,108.5,0.8246320744500325,766.8000000000001,905.6,57.89473684210527,84.21052631578947,346.0,1062.0,10.555555555555555,539.0625,,,0.029100596082072855,0.04136416460423434,0.026381221970164695,0.09684598265647189,0.7035219098585133,0.3004832547912421,0.4271128597141671,-3.185340362259282,105.9248945061461,137.5673691576835,0.7699856089036062,45778.68830973721,1.2987255715388168,5.367633454700398,714.6490405376156,0.6631578947368421,0.6774193548387096,0.9206349206349206,0.2916666666666667,51.172814755412986,51.49862331429092,50.8835511645856,43.01075268817204,0.4285093589612163,0.5714906410387839,69.34877567896959,80.08721724215043,0.6973788944261716,0.30262110557382826,114.88142970369302,75.67719713494814,0.597286649261834,0.40271335073816605,94.88676298340198,77.91341518568288,0.7167877574277537,1.421430607291141,0.9814469952305016,1.3366618700758668,-0.4242431838380458,-1.2117003497574719,-0.2501004459709026,0.0015327766141487705,0.182003145343068,0.6353119444153075,1.548350220454262,6.288225213571333,1.2603387116400582,0.9920131332644394,1.0793025880125218,1.2272079329111183,1.6388628814421229,1.9176511986921305,3.379998927723654,1.175658372017117,Relax
72.27928253648611,834.436170212766,125.40176796533184,,,,,,,153.85260366959665,154.68649318361813,0.15028323608426117,0.18437911629641732,863.5,65.2344,0.07554649681528662,95.75,0.8150773205933916,778.6,903.8,59.57446808510638,85.1063829787234,346.0,1062.0,10.444444444444445,531.25,,,0.031374586344648014,0.04211603755869103,0.014064551085655762,0.08755517498899482,0.7449557974423826,0.35834074169335645,0.4810228243388786,-3.1673266711965167,109.37986828810304,140.63895133641347,0.7777352379886738,48327.339617946156,1.285784610436493,5.391162998188882,723.3255970251491,0.6808510638297872,0.6956521739130435,0.9375,0.28,50.01937233630376,50.31593942962619,49.78464609511162,44.565217391304344,0.4232413662776965,0.5767586337223036,71.15926717123938,83.06813599323932,0.6787306960578691,0.32126930394213105,115.86555997537754,79.7150339935841,0.5824374306802294,0.4175625693197706,96.14694299028866,81.40885044634143,0.5830720168380912,1.934782650228238,0.9662817710985965,1.2041394044965363,-0.34656063734462705,-0.5231343363938497,-0.3770623494221014,0.0023259787288777843,0.304554800297273,0.6364679893595242,1.5230532982352798,6.269962388888663,1.2258642863359845,1.3512729654924467,1.146820922051868,1.2684483082095552,1.6486684968234102,1.936737402249716,2.885593077760439,1.1156746981578958,Relax
72.11834563994321,835.7127659574468,120.99236822465829,,,,,,,142.06923194930937,142.83924047981654,0.14477745602706163,0.16999768070617616,863.5,63.01049999999999,0.07297104806022002,92.75,0.8516437131709746,779.0,902.4,55.319148936170215,82.97872340425532,346.0,1062.0,8.545454545454545,531.25,,,0.02427057631751153,0.04353526213431722,0.01265427887504646,0.0804601173268752,0.5574923665931011,0.30164728966166565,0.5410787801545452,-3.1341840454880967,101.00259556281428,139.26027021785526,0.7252793306002376,44188.53878343201,1.3787791238617055,5.352279750610199,768.0366134388754,0.648936170212766,0.6630434782608696,0.9180327868852459,0.23076923076923078,50.03758994737409,50.298389078634095,49.848372012403786,45.65217391304348,0.43348102719062204,0.566518972809378,66.49938705176815,76.02209347059691,0.6686537750058527,0.3313462249941474,113.8748673166858,80.16194517822825,0.5875885535894124,0.4124114464105876,93.24605590761912,78.11944748399544,0.74040695268405,2.3387959482823497,1.1958302629949185,1.539350405926216,-0.4886207482886711,-0.6106300722402724,-0.35312094320003234,0.005536914148226427,0.5173579941328039,0.6400416905826996,1.500704712297635,6.227409197399302,1.2089889301540069,1.186245851505618,1.102558859055273,1.3026537670660718,1.613514912410238,1.9008011611004767,2.8396486038193114,0.9762153608881589,Relax
72.22577348530154,834.2659574468086,119.45253032349855,,,,,,,140.54999493158587,141.3115509006688,0.14318279351715565,0.16847144927467222,865.5,60.0453,0.06937642980935875,87.75,0.8498935228111767,779.0,898.2,53.191489361702125,80.85106382978722,346.0,1062.0,7.833333333333333,531.25,,,0.02192396712173083,0.047721680791904975,0.015183417567000212,0.08482906548063603,0.4594131379683046,0.2584487639644624,0.5625628494374776,-3.04236946041325,99.92235590185089,137.29865320890087,0.7277737513551449,43100.15329798204,1.374053403462214,5.341448924817402,754.6227269298739,0.6276595744680851,0.6413043478260869,0.8983050847457628,0.19230769230769232,49.86702127659575,50.14663529693612,49.665011549448785,45.65217391304348,0.43493998856925115,0.5650600114307487,65.89888499419592,75.11223486281683,0.663734583043291,0.33626541695670925,111.85708578804442,79.61728789643675,0.5845125276471552,0.415487472352845,91.80051929175616,77.39754633730662,0.7682448668430073,2.372923882295742,1.217406547446178,1.6437099848479828,-0.6526102136068026,-0.9132617918710921,-0.32034677109433135,0.0059522806538693344,0.5475221014675201,0.6446854869529539,1.4683593141741949,6.219378479291181,1.1648419748143795,1.318699955002384,1.0979080680095716,1.3154037372619511,1.5165826488148297,1.895957116231135,2.6968416723507245,1.0459450295230273,Relax
72.00895196005422,836.9468085106383,124.37865935795966,,,,,,,146.6864478351515,147.43595847462856,0.14860999300456584,0.1752637638898255,867.0,66.717,0.0769515570934256,101.75,0.8479219532109628,779.0,908.8,54.25531914893617,80.85106382978722,346.0,1062.0,8.545454545454545,539.0625,,,0.02645090777721467,0.04669123467362614,0.020971408140786567,0.09411355059162738,0.5665069249529965,0.28105312796017096,0.4961159618366362,-3.064198826278976,104.25296602814808,140.46009267549485,0.7422248130577833,46003.539021574325,1.3473006862708437,5.36976135291337,756.9679170214421,0.6276595744680851,0.6413043478260869,0.8813559322033898,0.2916666666666667,51.78477413920186,52.037979237531516,51.56792217680607,43.47826086956522,0.4527530979629429,0.5472469020370572,70.1702897615322,77.14614166575697,0.6683718147855411,0.331628185214459,114.8317581842319,80.8869887356841,0.5917509218388822,0.40824907816111755,95.15829510058306,79.03869976359597,0.7645901799623288,1.258434229444767,1.031344885548483,1.1698243054669664,0.018718582575596443,-0.4026534389273575,-0.3899589532147566,0.0009443790714309027,0.12193074032590717,0.629970356820301,1.6094379124341005,6.25390095267242,1.0963987393374468,1.1025595090900215,1.2079415160061193,1.2255869440070173,1.538208601532429,1.891393633125714,3.0983381029922716,1.0459450295230273,Relax
70.62976083627485,852.0217391304348,101.35000591041467,,,,,,,126.53197484960337,127.23258484810661,0.11895237087947018,0.1485079183293383,872.0,54.856199999999994,0.0629084862385321,84.75,0.8009833564273368,781.2,914.8,46.73913043478261,75.0,510.0,1062.0,6.571428571428571,367.1875,,,0.03322824873078314,0.031138782566409867,0.017502449867800647,0.08186948116499365,1.067101729488526,0.40586856369368457,0.38034664594557627,-3.469301208831546,89.96702353398896,112.4271230511481,0.8002252578593421,31776.372850578424,1.2496481336705982,5.20907443263555,561.9773779792877,0.5978260869565217,0.611111111111111,0.8545454545454545,0.25,49.811761651304685,50.082955018061035,49.57711435274728,46.666666666666664,0.41784327574006075,0.582156724259939,58.155586337188815,68.64433293757355,0.5909420821963816,0.4090579178036185,86.42582949410152,71.90572990947584,0.5233678733431363,0.47663212665686366,73.6596776600527,70.29394866650661,0.7103489571089634,1.633212988387033,1.1235671145156112,1.0994796678473238,0.28883043502051287,0.28340938801301885,-0.5147485030057692,0.0015903026512233017,0.2206857635630118,0.6695638984097605,1.5246966839790097,6.151119972290814,1.1230750265673044,1.1672470064452798,1.1177219746998521,1.1970505975123291,1.5385740559877605,1.9063852042965506,2.928406710397448,1.0636242319658173,Relax
70.45374968796584,853.741935483871,103.1336093350468,,,,,,,127.70346084990601,128.3958266234319,0.12080185480943288,0.14958086927934278,875.0,60.7866,0.0694704,93.0,0.8076023049701296,779.4,916.6,48.38709677419355,74.19354838709677,510.0,1062.0,7.153846153846154,375.0,,,0.02099745152280985,0.035790161788725225,0.013201358981434375,0.06998897229296945,0.5866822186153001,0.30001085649487513,0.5113685858810707,-3.3300822337135756,90.78955968148094,114.73639057225051,0.7912882672068192,32725.55089125442,1.2637619454790043,5.221857076017837,579.9979366673048,0.5913978494623656,0.6043956043956044,0.8363636363636363,0.20833333333333334,49.20834380497613,49.474484173024116,48.992658060411486,46.15384615384615,0.4134376466322568,0.5865623533677429,58.38024278172151,69.53732494451855,0.593046349274955,0.4069536507250449,88.35792369615596,73.19369263572032,0.5238838970809545,0.4761161029190455,74.88449581571764,71.38892141674316,0.5830047025848335,2.5797589705176422,1.161739651848064,1.4543355632608663,-0.41583571711286815,-0.4176334797255201,-0.38658013606825775,0.007281432328302304,0.6564761561558231,0.6563842169889318,1.5766480896111095,6.2218494024593545,1.1771549080535275,1.3045190192345537,1.2254932338604902,1.4849516549140465,1.5272207915633667,1.9304000440202154,3.033743189471487,1.0547030340496826,Relax
71.1364450802239,845.8064516129032,101.50511424944965,,,,,,,114.82079610153949,115.44719910493865,0.12000986047799159,0.13575303886909704,870.0,69.6822,0.08009448275862069,114.0,0.8840307478767663,779.0,915.6,49.46236559139785,75.26881720430107,510.0,1057.0,7.153846153846154,375.0,,,0.020860636614564748,0.0472405559245074,0.010885512045015465,0.07898670458408762,0.44158321608028944,0.2641031389321597,0.5980823756764795,-3.052502519633578,81.63349735609563,118.85843654686855,0.6868128147042024,30482.339024795743,1.4560007888476592,5.19101839896094,692.2319094937603,0.5698924731182796,0.5824175824175823,0.8301886792452831,0.2,49.499520087755386,49.79107964197239,49.248727729080976,45.05494505494506,0.3852467328600368,0.6147532671399631,50.669690964299186,64.0072540531819,0.585714073754476,0.4142859262455238,90.9646898419698,76.50328842814679,0.5214583651310883,0.47854163486891155,73.62741466486294,70.53255174651201,0.731217483956058,2.8049932125091814,1.323223495256507,1.6502365326568342,-0.6780415498338979,-0.5092879592543746,-0.3834175298742343,0.007070235037053826,0.7198048740265534,0.6138440521379298,1.5187835441659694,6.243354778803441,1.1958386966116779,1.1733740770047028,1.2151272901574155,1.626893085434012,1.577012821796665,1.8835499929806696,3.05074778284653,0.9843894984463702,Relax
71.10554485181241,846.4731182795699,101.9656369437496,,,,,,,116.23000061721699,116.86217232123013,0.12045939172999559,0.13731091762659967,875.0,68.19959999999999,0.07794239999999998,118.0,0.8772746829758303,779.0,915.6,52.68817204301075,76.34408602150538,510.0,1057.0,8.454545454545455,375.0,,,0.026787260572330676,0.03679148879987715,0.011495874762139209,0.07507462413434704,0.728083082422588,0.35680845400430533,0.49006557440818205,-3.3024887431692336,82.63403451253268,118.91551482271703,0.694897000073759,30870.76205437814,1.4390621917980022,5.196517460270787,684.5072855982679,0.5698924731182796,0.5824175824175823,0.8113207547169812,0.20833333333333334,50.636435958631665,50.86320461160751,50.43004203661463,42.857142857142854,0.3936152409028809,0.606384759097119,51.84566064264711,64.35030332843458,0.5865597267712951,0.413440273228705,91.07404813736119,76.46186906834971,0.5237263638914272,0.4762736361085729,74.10281631489761,70.66604191507754,0.7827275819493114,2.948294353895743,1.3424351691202898,1.795071348711706,-1.0582415141947639,-0.9252209092475989,-0.34647524118705336,0.007517675066405113,0.7747141682445076,0.597369964639126,1.550597412411167,6.200344026115269,1.249371845045735,1.2919087461202081,1.1469020498213205,1.4175659602606614,1.5934087631008946,1.8946350922893462,3.503525947699129,1.0547030340496826,Relax
72.45430618611306,831.4315789473684,121.48501813169857,,,,,,,129.55036809033166,130.23459817004263,0.14611547264719527,0.15581603029120994,866.0,77.09519999999999,0.089024480369515,122.0,0.9377435195474755,774.2,910.2,53.68421052631579,80.0,346.0,1057.0,9.5,531.25,,,0.03528528645265823,0.051553108486739024,0.017379588358076403,0.10421798329747366,0.6844453707720581,0.3385719559736825,0.49466614931118824,-2.9651427699154578,92.08976751114227,145.61442962128697,0.6324219910804768,42127.49761202599,1.5812226869143584,5.331535772611891,920.9953586370925,0.5789473684210527,0.5957446808510638,0.8214285714285714,0.15384615384615385,49.096880131362894,49.478365236020075,48.80796447408418,44.680851063829785,0.414173158471885,0.5858268415281148,59.27029392482784,70.49052403333815,0.6331969059871927,0.3668030940128073,115.87074663800811,88.1903179917346,0.5706162846309528,0.4293837153690471,92.02988011614748,79.832468851896,0.8174537466847409,3.1447496822842522,1.4049822320723706,1.8230382982263706,-1.4065071637149913,-1.0662890227726183,-0.36706221213437357,0.005765502410082979,0.7705355326383396,0.6918463605215592,1.7083778602890034,6.309277845150281,1.1749245042024241,0.9135720023360792,1.5198124832777857,1.7423403195333373,1.5441570464861556,1.878935402254143,2.417548235076243,0.9681892475435081,Relax
72.91243040454805,827.1263157894737,122.92881888669534,,,,,,,141.9623114504002,142.7223403601765,0.14862157876014684,0.1716331698561668,865.0,77.09519999999999,0.08912739884393063,117.0,0.8659257350120358,769.4,902.4,56.84210526315789,78.94736842105263,346.0,1136.0,9.5,531.25,,,0.038513991978584995,0.057122293247731167,0.010929806610535768,0.10656609183685192,0.6742374962355827,0.36140944379895484,0.5360269130933593,-2.86256081386226,100.91993469549529,141.9565443704181,0.7109213255583142,45007.2266344529,1.4066254085354115,5.360252362303464,798.7187288772584,0.5789473684210527,0.5957446808510638,0.8392857142857143,0.15384615384615385,49.70967741935483,50.08200673241395,49.39338324433448,44.680851063829785,0.41064130784782604,0.5893586921521741,64.67133615776086,77.4765660026946,0.6317303061357851,0.3682696938642147,112.82913918945496,86.14665309434301,0.5575035649183223,0.4424964350816776,91.95867650924384,81.92638195028195,0.8260743454500482,3.0836174605994597,1.4020379180847058,1.8801200939976306,-1.3993722229148702,-1.2388523634150017,-0.3449606081099356,0.006449048391890693,0.7833399123136521,0.7179908045514494,1.7255100836868542,6.30927784515028,1.204269645504704,1.4378820516081419,1.3503262315866709,1.8666464299090693,1.525925814940747,1.9091830489057489,2.513659651891719,1.1065019971925807,Relax
72.8454254920162,826.8333333333334,122.01506953234284,,,,,,,142.20030350104557,142.94587421932468,0.1475691225950528,0.17198182241610024,865.5,76.3539,0.08821941074523397,117.5,0.858050696997603,771.0,902.0,55.208333333333336,79.16666666666666,346.0,1136.0,10.666666666666666,429.6875,,,0.031875107660338894,0.049342398348154126,0.01264113221764913,0.09385863822614215,0.6459983447791067,0.3396076084498403,0.5257097192191197,-3.008971560465729,101.07799700312374,140.5251421116859,0.7192876341145377,44623.18171615694,1.390264412415524,5.3565306430209105,781.468416510044,0.5833333333333334,0.6,0.8421052631578947,0.15384615384615385,49.19991465756346,49.598953682896884,48.872559768859965,44.21052631578947,0.3993559564140952,0.6006440435859048,63.87979069764136,78.34151911356632,0.6434911456043431,0.35650885439565677,112.7263177605842,83.90526115595684,0.5602423381353591,0.43975766186464094,91.61836708715853,81.17107387077799,0.845393748834181,2.672768135116142,1.2324982791629315,1.9231784080643894,-1.6188790700590996,-2.0280926544191518,-0.2415862154943548,0.005704542845417545,0.6248981118946302,0.7580468953945747,1.6739764335716714,6.2775690110927505,1.2107867578853275,1.461753785229536,1.2220567454967308,1.712431898185449,1.5000714690024557,1.9034644681829,2.586238164441962,1.0289003907376806,Relax
72.71446847596778,828.9894736842106,126.06081736706278,,,,,,,153.06173139299474,153.88143858257402,0.15206564301331948,0.18463651982546284,865.0,84.5082,0.09769734104046243,121.0,0.8235946125775516,769.4,905.6,57.89473684210527,81.05263157894737,346.0,1136.0,10.555555555555555,429.6875,,,0.02939096295238286,0.045775615207167934,0.010701703947640286,0.08586828210719108,0.6420659300670758,0.34227961979830385,0.5330910795446604,-3.0840037487048213,108.81060872047932,142.36338239516346,0.7643159841373365,48665.300608916295,1.3083593968385652,5.394189520348424,745.0498764897363,0.6,0.6170212765957447,0.8448275862068966,0.16,49.744998038446454,50.07436153029452,49.476511090567485,43.61702127659575,0.412941111295773,0.5870588887042268,69.92269156503434,83.37098074334695,0.6463411400095591,0.35365885999044105,114.45353156634992,84.66239873156248,0.5602722624574767,0.43972773754252314,94.8387939708967,84.01917099415347,0.8263583663826793,2.172772102556888,1.184867158251163,1.6881990656979171,-0.8142865968594748,-1.304629013798515,-0.2683457428165429,0.0046766928105811635,0.4438447778199436,0.7020923919484474,1.589235205116581,6.259226397759085,1.1870643026606251,1.2541354012883754,1.580026795328083,1.842707813625207,1.5336970714365195,1.9255991368191476,2.8986688425971634,1.1065019971925807,Relax
72.58681583147546,830.9052631578948,126.24908457087206,,,,,,,153.27009951146806,154.09021266744796,0.15194161135898507,0.18446158221330528,869.0,90.4386,0.10407203682393555,126.5,0.8237032857242047,760.2,915.2,56.84210526315789,81.05263157894737,346.0,1136.0,11.875,531.25,,,0.03289558414777988,0.056046819996570185,0.022755290450565468,0.11169769459491553,0.5869304297691277,0.29450548882928584,0.5017723973608442,-2.881567866192642,108.9582342916297,142.21663417609108,0.7661426873365517,48681.09354850007,1.3052398939895113,5.394330435410225,742.507298062185,0.6,0.6170212765957447,0.8448275862068966,0.12,50.33438237608182,50.59883651450844,50.118418667303075,43.61702127659575,0.4208734447895186,0.5791265552104814,70.68718002123751,82.918537559268,0.6413478528599733,0.35865214714002663,113.89304876526349,85.17009146014479,0.559799794998465,0.44020020500153506,94.78476664633808,84.05185408513356,0.740886166979806,2.640228975741454,1.1452762856114282,1.9415038955235275,-1.7029425775024531,-2.47504964948068,-0.1984247892028019,0.006686318129787972,0.6821822639527104,0.7052268160618471,1.595548800273433,6.259226397759087,1.1494948243157204,1.338173281702972,1.4805442170163123,1.8131131999317134,1.553392540976862,1.966995407627279,2.9007112879747226,1.0373456223680444,Relax
70.85477756384412,849.5806451612904,116.40113575015954,,,,,,,153.9253065613319,154.66436079690976,0.13701010776682787,0.1811779816760181,878.0,85.9908,0.09793940774487471,128.0,0.7562183136129031,775.4,919.8000000000001,54.83870967741935,80.64516129032258,303.0,1136.0,11.625,578.125,,,0.035077524600338084,0.06421185078785727,0.032423150852840574,0.1317125262410359,0.5462780494558085,0.26631882024755704,0.48751514089365056,-2.745567493610003,109.3642183273777,110.04179807879692,0.9938425238114155,37807.92162791329,1.0061956256057252,5.284552914001458,442.8943034426958,0.6129032258064516,0.6304347826086957,0.8620689655172413,0.16666666666666666,47.237569060773474,46.79094291044961,47.415908762645884,43.47826086956522,0.31784750219749375,0.6821524978025064,61.698932257845776,90.38762679107731,0.5714915658481763,0.4285084341518239,83.18836541304505,72.03397243190469,0.4453672851551692,0.5546327148448309,73.23613309648643,81.72764606069198,0.7092123681099507,2.9803083115792637,1.15274638909735,1.8536701240059617,-1.9692667941366881,-2.1833742540649492,-0.264815025282672,0.005294300671671773,0.707104947135857,0.7032322506279791,1.7122952978738082,6.208461096031006,1.163230385594177,1.5692698632197242,1.483257650907381,1.8118175056894423,1.584884744083217,1.9682603406078267,2.781138783351761,1.1953301052563066,Relax
70.7147128964819,851.8924731182796,110.45119543565399,,,,,,,136.95135601023992,137.698421311665,0.1296539163344839,0.16076131710489375,878.0,85.9908,0.09793940774487471,123.0,0.8064994656014615,776.8,919.8000000000001,54.83870967741935,81.72043010752688,457.0,1136.0,11.625,484.375,,,0.035516812067317674,0.05430574018064853,0.03142986948472503,0.12125242173269124,0.6540157992354156,0.29291631094690024,0.44787344784229566,-2.9131253452786026,97.36748746816053,122.44931671853121,0.795165625072248,37455.89700029726,1.2575996351818415,5.280490312052699,615.9688641339624,0.6129032258064516,0.6304347826086957,0.8620689655172413,0.16666666666666666,50.49796287913082,50.539133396893334,50.448253760770655,44.565217391304344,0.45290874297748746,0.5470912570225126,65.52845200352304,72.02021999349967,0.653689904788708,0.34631009521129197,99.00160948852641,72.05911797625949,0.5759123563218392,0.42408764367816093,83.95027308858711,72.0396716102613,0.8045044618849961,2.134478347304741,1.1550134734508646,1.765011701252038,-1.00211535374617,-1.7886514851755129,-0.21421671783579652,0.00461935784492355,0.45687596899162997,0.6819773810530632,1.7227665977411035,6.229966472375092,1.2219346561220255,1.388456042399035,1.29768241892888,1.6562929472667847,1.6114149054759417,1.968551611102487,3.0026417812962864,1.1953301052563066,Relax
70.77192967908725,851.2150537634409,110.5749646818811,,,,,,,134.11298773146794,134.8158070830898,0.12990250136319925,0.15755476496629128,876.0,85.9908,0.09816301369863013,123.0,0.8244910992758091,775.4,919.8000000000001,54.83870967741935,81.72043010752688,457.0,1136.0,10.333333333333334,421.875,,,0.040841267542865455,0.05298363153125983,0.02756621096390621,0.12139111003803149,0.7708280154177333,0.3364436450912262,0.4364704426432892,-2.937772252163444,95.32917139959018,120.4126076049934,0.7916876255376183,36061.820908761176,1.263124454321136,5.264017762205663,608.3844370977695,0.6236559139784946,0.6413043478260869,0.864406779661017,0.18181818181818182,51.547934169639774,51.99604857387614,51.15419605038933,45.65217391304348,0.47510634607632984,0.5248936539236702,65.72407356634132,69.08197073997441,0.6737084722087333,0.3262915277912665,98.83436261104887,68.78200954829552,0.5971677503188911,0.4028322496811089,83.92819871439558,68.93215330606064,0.8983162077304933,2.4281663561301867,1.199955832436289,2.068060769003195,-1.9352344661603667,-2.8465572325755835,-0.14248539463728466,0.005801233017096404,0.5788114448588949,0.6488706914159192,1.6956156086751528,6.221849402459356,1.2088276943812801,1.4759778989824706,1.2091260677369962,1.4231831662728585,1.6355040076215621,1.9271824684801555,2.4434566978691743,1.0547030340496826,Relax
71.29034013912897,845.741935483871,124.58984040039456,,,,,,,147.39513589992217,148.196590162802,0.14731425175117216,0.17427909119298143,874.0,80.0604,0.09160228832951946,119.0,0.8452778284691032,775.4,919.8000000000001,55.91397849462365,81.72043010752688,312.0,1136.0,13.285714285714286,593.75,,,0.057129327034030564,0.09098380329065521,0.03264899854401301,0.18076212886869877,0.6279065610340144,0.31604699165458444,0.5033344310563174,-2.397073774123618,104.79081385284091,142.1349306444998,0.7372629189578882,46792.24776120919,1.356368229414667,5.377144017877689,771.1492168650269,0.6236559139784946,0.6413043478260869,0.864406779661017,0.17391304347826086,49.33376316355039,49.022634852543575,49.44261314385045,46.73913043478261,0.4835675654040316,0.5164324345959684,72.87355449719017,75.3092160494187,0.49548547594000614,0.5045145240599938,100.04981414970212,100.95728402610104,0.49128840926179884,0.508711590738201,87.52291201863909,89.06135868013934,0.7097292359257228,2.344203803850152,1.1978058635058717,1.6147700305954324,-1.2535633604828327,-1.718736079118127,-0.3221297284797794,0.0025417891734849157,0.4260399242202365,0.7008685116683187,1.7824570765657413,6.221849402459356,1.166033071437471,1.3025994155380054,1.6185574861299894,1.6264538585336503,1.727591839444009,1.936590833725843,2.7522284251166322,1.1250165696529946,Relax
71.60047649155,842.516129032258,126.179014732109,,,,,,,149.94611350922617,150.75964161979238,0.14976450940712838,0.1779741756178119,872.0,85.9908,0.09861330275229357,139.0,0.8414957332278253,766.2,925.2,59.13978494623656,82.79569892473118,312.0,1136.0,13.285714285714286,593.75,,,0.059815696829478154,0.10953620328507699,0.04595864399042371,0.21531054410497885,0.5460815240583323,0.27781127523561433,0.508735899304915,-2.2115001607615135,106.60316491860885,143.92425705969904,0.7406893535284355,48200.769052659896,1.3500936596918554,5.390024077508981,777.2449077286418,0.6559139784946236,0.6739130434782609,0.8870967741935484,0.17391304347826086,49.25975773889636,49.01915698685506,49.3091076981738,47.82608695652174,0.48579148402741507,0.5142085159725852,74.30505876615507,76.44746095008182,0.49511965032540106,0.5048803496745987,101.27192792688386,102.26528435475244,0.491814786611039,0.5081852133889608,88.81791808038994,90.28400376000351,0.8509318118855138,2.273722879869956,1.267053501827403,1.6377229128305606,-1.140235970936164,-1.3268170606761043,-0.3369768742335223,0.0020684986140437444,0.36869435777703646,0.7269284946343744,1.690290009063195,6.264860155147527,1.1968762788921123,1.4014409335492288,1.4881044476920584,1.6900101677299255,1.7476006298563271,1.9236740605749076,2.581855553729705,1.1250165696529946,Relax
72.0223970616191,836.8210526315789,121.96284566327743,,,,,,,139.14778612316735,139.8912755583804,0.14574543180974814,0.16628141188081333,867.0,90.4386,0.10431211072664359,134.5,0.8764986426397141,753.8,917.0,58.94736842105262,82.10526315789474,312.0,1034.0,10.555555555555555,593.75,,,0.045323343914274,0.05396724387559629,0.024827852161601598,0.1241184399514719,0.839830620565913,0.3651620495068631,0.4348044005120957,-2.919378011367346,98.9180695761667,142.28785578989104,0.6951968530767221,44217.41400372739,1.4384414940521024,5.352563449815707,818.6910234715237,0.6631578947368421,0.6808510638297872,0.90625,0.20833333333333334,49.572375454351075,49.25226586888961,49.70616773505697,47.87234042553192,0.5118338188543317,0.48816618114566823,70.76984504534354,69.11425012175472,0.488933774296228,0.5110662257037722,99.49307506095813,101.7200173033773,0.4963954139153185,0.5036045860846815,86.33435860892054,86.95901761776018,0.9000568166417481,2.888403503195468,1.2359170253294405,1.9555330924123746,-2.149064108412727,-2.198763828233364,-0.2508602706350355,0.005226442735078814,0.6266010024102805,0.6879842699512406,1.5314763709643882,6.2802790293380335,1.2298975404470402,1.2917424176000767,1.5564854995820743,1.606429170481735,1.7737017604807075,1.9001799087252293,2.579896052580556,1.0373456223680444,Relax
73.32054197577105,822.6354166666666,125.61638510218462,,,,,,,146.32177950631524,147.0954683860412,0.15269994770123618,0.17786953557046412,844.0,95.62769999999999,0.11330296208530805,130.0,0.8584941047464709,739.0,908.0,63.541666666666664,86.45833333333334,312.0,1034.0,13.714285714285714,625.0,,,0.04600706534258519,0.06458890821894156,0.029927241030280747,0.1405232145918075,0.7123059765406129,0.3273983268616985,0.45963158761034417,-2.7397125823327992,104.01220317758116,144.86361504976173,0.7180008806341895,47336.21045277483,1.3927559519380097,5.382163597071452,807.0386483192493,0.6979166666666666,0.7157894736842105,0.9411764705882353,0.20833333333333334,49.59709119496855,49.408829175620504,49.649394382099324,46.31578947368421,0.49306622168817826,0.506933778311822,73.03726096563112,74.05723060076794,0.525917098007788,0.4740829019922119,105.05529918438803,99.7439275272649,0.5147421964907786,0.4852578035092215,90.47391164331015,87.8445344993631,0.9673146397720924,3.0455443626819956,1.222498561282578,2.1955424772023653,-2.561783494435687,-2.808791752942971,-0.1805024652266446,0.009824493973321033,0.82184318789194,0.7306572129850157,1.7346010553881062,6.327099089240288,1.24842409932224,1.1789037843274661,1.4461906195097982,1.8155898538211346,1.726018780318163,1.8750751869424793,2.637868722916174,1.0974937501201927,Relax
73.52764639364023,820.1237113402062,124.362395318745,,,,,,,146.4620613560613,147.22679090616055,0.15163858037407313,0.1785853272266938,839.0,94.8864,0.11309463647199046,128.0,0.8491099617696204,741.8000000000001,904.8,68.04123711340206,88.65979381443299,312.0,1032.0,16.166666666666668,515.625,,,0.06027272285253626,0.06697000225702347,0.03927696204813258,0.1665196871576923,0.8999958312860168,0.36195553739816155,0.4021746821659809,-2.703510487358171,104.10506222208004,142.53197990644986,0.7303979239635123,46615.89627231891,1.3691167063749154,5.375504148671617,780.571659530457,0.711340206185567,0.7291666666666666,0.9571428571428572,0.25,49.49890235754509,49.323007664391525,49.54503961452609,46.875,0.4933596657908064,0.5066403342091934,73.12498313090224,74.10266704483648,0.523355770954366,0.476644229045634,103.1123836730351,98.40326025756175,0.5129200781429446,0.48707992185705545,89.38519682987203,87.10455468135787,0.9397982396334679,0.811370644522508,1.0670649665597418,1.0889489072252652,0.34251957717221426,-0.023219161470135585,-0.4730284293457498,7.413388267756678e-05,0.0336162514547897,0.6962570376623263,1.7206635475443246,6.31630691430747,1.238012198561188,1.1801202102587443,1.4177986619307317,1.7276397443849163,1.7843568929730704,1.8877390621371448,2.6599706204670253,1.0886454172679798,Relax
73.66804369452647,818.2916666666666,122.5946608837146,,,,,,,145.1061317577042,145.8754335221087,0.14981780443042672,0.17732813087147517,841.5,90.4386,0.10747308377896612,122.5,0.8448620289073733,739.0,901.0,62.5,88.54166666666666,312.0,1004.0,13.714285714285714,609.375,,,0.06671750985941986,0.059283681877861504,0.037026009989424125,0.16302720172670548,1.125394168278445,0.4092415814832137,0.36364288443865406,-2.8254211899726185,103.14950825201046,139.93296187313774,0.7371351743810375,45345.79927287383,1.3566032862828539,5.363507171212147,759.3340637455678,0.71875,0.7368421052631579,0.9571428571428572,0.22727272727272727,49.820931157978514,49.61007229724484,49.88919364338538,47.368421052631575,0.49669349597560375,0.5033065040243963,72.69639576654959,73.17873775608915,0.5166855145721518,0.48331448542784794,100.58498830101485,97.28254698081116,0.5096469634290817,0.49035303657091817,87.75564320589902,86.0785153410774,0.9012261592657982,0.6407793096902907,1.2010304010106818,0.933295641905966,0.8420173998975242,0.5516667906697794,-0.9178267853781368,0.00012956921821539663,0.026853174567620854,0.6689692079066187,1.53018854077996,6.264599089240288,1.1602476822680792,1.2466558292494982,1.2823969408621008,1.4436286210477576,1.7825787509607947,1.885354107383774,2.604410698962794,1.0974937501201927,Relax
72.26944347042189,834.1684210526316,114.65820183257888,,,,,,,135.47328385441122,136.19768803651843,0.1374521007255255,0.16240519352609678,855.0,71.1648,0.08323368421052632,112.0,0.8463528643462895,771.0,903.4,57.89473684210527,86.31578947368422,312.0,1004.0,10.555555555555555,601.5625,,,0.026940157847793276,0.07754853954882301,0.023974138738501932,0.12846283613511822,0.3473973591834349,0.20971168517140168,0.6036651679343032,-2.556851221918313,96.30630879255209,131.38114870205442,0.7330298885645695,39750.048696616876,1.364200854017311,5.306307774996017,716.9211010444718,0.7157894736842105,0.7340425531914894,0.9565217391304348,0.22727272727272727,50.38354641467483,49.97405341571015,50.57854954277481,47.87234042553192,0.5266061629403954,0.4733938370596048,69.88823643073167,66.26320115989711,0.49093139161724003,0.5090686083827599,92.054167810614,93.73919363300844,0.5034007744695842,0.49659922553041586,81.7261751298277,81.17218812784228,0.8017457494289965,1.0605338993953444,1.000466768147678,1.0140578496231965,0.18036727046502854,-0.06864457746969777,-0.48718467982657854,0.0001624279624174263,0.0623514967250216,0.677481449722869,1.4046434997880872,6.196068503022243,1.15968622199968,0.9912927990505566,0.9781301184335623,1.4299083925030784,1.7082421241914933,1.9047437014036839,2.705716763562157,1.175658372017117,Relax
72.56634095924309,830.8421052631579,114.9738467753829,,,,,,,135.19241606577688,135.91398030912168,0.13838230639378404,0.16271733848028383,850.0,87.4734,0.10290988235294117,119.0,0.8504459800425729,762.6,901.4,56.84210526315789,83.15789473684211,312.0,1004.0,11.875,585.9375,,,0.019739133904477745,0.06085664477956728,0.019070610340289493,0.09966638902433451,0.32435462020583156,0.19805206246268484,0.6106034880496025,-2.7992342661748797,96.10569713463482,131.88704953240423,0.7286969984950793,39819.99111087389,1.3723125003468128,5.3070712687044415,723.9609868287104,0.7157894736842105,0.7340425531914894,0.9565217391304348,0.2727272727272727,50.50118256560423,50.122070547353715,50.65937863566783,48.93617021276596,0.5272889931939766,0.47271100680602346,69.78854390381743,66.07811441242157,0.4888193604404935,0.5111806395595065,92.20964540378202,94.29514902088877,0.5021622815618999,0.49783771843810004,81.77120387308197,81.4183404804246,0.7642645495149084,1.4068599166867841,0.9706970711533565,1.1498399924554468,-0.33655104157446125,-0.6007542757038387,-0.37266470586213046,0.0004573261285090145,0.11562425264679789,0.7044243666249423,1.4906543764441336,6.182962055676596,1.1576166225169027,1.0294776598840842,1.0402830297348031,1.2757786145806154,1.6823494258742495,1.8913465694537546,3.011527673513077,1.0373456223680444,Relax
72.03200704198798,837.2553191489362,120.27780890708163,,,,,,,147.51391405121646,148.31344977071095,0.1436572645836913,0.17618749105250625,857.5,75.6126,0.08817795918367347,115.0,0.8153658567104489,766.2,909.0,57.446808510638306,82.97872340425532,312.0,1136.0,15.666666666666666,625.0,,,0.023146409632040503,0.05656547644408501,0.014603102383486104,0.09431498845961162,0.4091967589969959,0.24541602570361826,0.5997506585955632,-2.872356436690625,104.8734460740401,134.99533522666377,0.7768671850620057,44476.86554405682,1.2872213155974466,5.355104283210118,695.0754920399378,0.7127659574468085,0.7311827956989247,0.9411764705882353,0.2857142857142857,49.98416552306554,49.69216754780859,50.06107982629145,50.53763440860215,0.49651753978948604,0.5034824602105141,73.89802756678198,74.41452639861679,0.49746767861487334,0.5025323213851269,95.21408456006415,95.69753724285844,0.4971100720023304,0.5028899279976696,85.22511477514101,85.71913547592135,0.8780932474018498,1.7483840660541157,1.1055958043996519,1.4838749663996031,-0.6819245632310089,-1.0427107528162236,-0.283640694659452,0.0018874830061819247,0.2310158346378649,0.7250748294871778,1.575536360758419,6.235439915507425,1.1202633735286427,1.2210135341330406,1.1794629353231492,1.3601380946375878,1.6371841949021972,1.936864007007442,2.6566718013677346,1.1156746981578958,Relax
72.27789059084883,833.7894736842105,116.13417540297324,,,,,,,138.4050484874324,139.14713092565364,0.13928477039871806,0.16599519765567577,850.0,78.5778,0.0924444705882353,114.0,0.8390891565889562,761.8,905.0,55.78947368421052,81.05263157894737,312.0,1062.0,15.833333333333334,546.875,,,0.03875725440591349,0.08050973305086158,0.023017582848250957,0.14228457030502603,0.4813983718146079,0.272392532252982,0.5658360065203617,-2.5193771944022187,98.39187986018204,132.22313247108735,0.7441351450488208,40871.12317121194,1.3438419172291514,5.318386682597708,710.7479513679602,0.7052631578947368,0.723404255319149,0.9264705882352942,0.35,49.94407158836688,49.58462424293484,50.09410871752083,52.12765957446809,0.5149772861062054,0.4850227138937944,70.60792090568633,68.52364006174678,0.4836413874238774,0.5163586125761227,91.9536919536338,95.01302698347703,0.4948092076069054,0.5051907923930945,81.97853364914327,82.8340646831808,0.8726571360525022,1.3916226808513565,1.0987349082422002,1.3088949499482712,-0.15310700363790186,-0.5410625740839832,-0.3489820232180315,0.0009190245231360676,0.14014809415463417,0.7691191839492602,1.640936579493471,6.211960871488843,1.1501018409699006,1.0630965780675967,1.0568663063287052,1.1794731054054208,1.644863585543954,1.9224588056016294,2.8863650318796514,1.0373456223680444,Relax
72.52185599410583,831.3263157894737,116.8394463141862,,,,,,,132.98328162400475,133.6955056005965,0.14054582911071326,0.15996520150780555,848.0,83.0256,0.09790754716981132,121.0,0.8786025197102338,762.0,903.2,55.78947368421052,78.94736842105263,312.0,1062.0,13.571428571428571,546.875,,,0.04926507151800347,0.10236499529187842,0.021059283129640012,0.1726893499395219,0.48126873231939793,0.2852814695014878,0.5927695907577856,-2.2792104676710663,94.53699862434583,133.57353164106834,0.707752482568033,39670.90349719628,1.412923337791153,5.3054422015218625,754.9166406674019,0.6842105263157895,0.7021276595744681,0.9090909090909091,0.3333333333333333,50.25900635742878,49.82204376369932,50.48500865431572,51.06382978723404,0.5216940135278534,0.4783059864721468,68.28297383776597,65.38188069014721,0.4890845929639235,0.5109154070360767,93.41409264048946,95.47615226443482,0.49996772213063106,0.5000322778693689,81.81918240845168,81.82446447671438,0.8886388896913334,1.3794920065872756,1.1362792038401763,1.2706405236618528,-0.10415515360254357,-0.44647988541506756,-0.4026008710597223,0.0005540992955054507,0.12454394209299904,0.7623472386753289,1.775759127881614,6.275118766225684,1.1345726794770679,1.065314108253638,1.2014866618859754,1.2696648986399433,1.661147374539616,1.894406155512467,2.2349153626016878,1.0373456223680444,Relax
73.21304886842135,824.9375,124.97964571123276,,,,,,,135.5231966937958,136.2034189460264,0.15150195707096933,0.16428298712786824,848.0,82.2843,0.09703337264150944,120.5,0.9222011342723462,762.0,903.0,55.208333333333336,77.08333333333334,312.0,1062.0,13.714285714285714,546.875,,,0.025269767197772644,0.09330530652532668,0.023840909969439897,0.14241598369253922,0.27082883212985803,0.17743631397671875,0.6551603556435266,-2.3718782968048777,96.31036115752757,146.80208393515525,0.6560558173007226,44417.60163964539,1.5242605486136864,5.354525214764342,895.0584999865289,0.6979166666666666,0.7157894736842105,0.9117647058823529,0.3333333333333333,48.1405208964264,48.03037704944559,48.17802351839623,50.526315789473685,0.4406755764631445,0.5593244235368557,63.9522760894503,72.04907458764595,0.5395133064288115,0.46048669357118854,107.82843473181109,99.61867551313821,0.5097612693470679,0.4902387306529323,88.64780018064103,86.93373815708172,0.9312000947319775,1.7463341007595725,1.2512524359375,1.437840716155197,-0.4855533151418143,-0.7346351134314104,-0.39315430527495293,0.0008704683407009493,0.1983310234721256,0.8315908085488424,1.8533173622274883,6.376629167387824,1.0749036578350868,1.0080158595596151,1.2441843273850977,1.4813922457914697,1.6781986641735909,1.86837372345879,2.441726356920657,1.0974937501201927,Relax
73.52936546473879,819.46875,141.27620972481716,,,,,,,140.80041865966464,141.53455887161695,0.17239975255287912,0.17181914338974444,845.5,90.4386,0.10696463630987581,124.5,1.0033791878581169,754.0,904.0,56.25,77.08333333333334,312.0,1185.0,13.714285714285714,546.875,,,0.04167783071722528,0.06908400652926097,0.020306904290833712,0.13106874153731995,0.6032920325715673,0.3179845188744573,0.5270822449271041,-2.672432028988556,100.08004635036697,168.87911484588915,0.5926135179101047,53097.407196541564,1.687440413992873,5.4320434244947275,1139.8937738811885,0.65625,0.6736842105263158,0.890625,0.2727272727272727,51.03806228373703,50.68021363026053,51.363398462272905,49.473684210526315,0.48331326273580294,0.5166867372641971,69.58268462771467,71.94497749832189,0.5253272493419865,0.47467275065801345,122.40267482143507,116.3517968391079,0.5144058437698213,0.48559415623017865,99.55944154986501,96.73112326165524,0.9493389259860456,1.3336489511458691,1.248414228962396,1.2828794727616994,0.17723494807280904,-0.14483677278049267,-0.4741571844901983,0.0006729444614182119,0.12652872606582138,0.8034537114713993,1.519825753744413,6.397462500721157,1.0604134762939514,1.0528032352678938,1.2875899699114544,1.568094222207636,1.6119934769714481,1.8908416982336564,2.2462958026343,1.0289003907376806,Relax
74.05109102622876,814.3814432989691,137.9317798843394,,,,,,,143.7812284919929,144.5262800117511,0.16936999365505312,0.17655268262198,842.0,87.4734,0.10388764845605701,115.0,0.9593170216376385,754.0,899.6000000000001,54.63917525773196,77.31958762886599,312.0,1178.0,13.857142857142858,554.6875,,,0.056994786230091674,0.04636499932850549,0.015807035688607904,0.11916682124720507,1.2292631738495663,0.478277305994922,0.38907641274011856,-3.0712104292127367,102.19551265597498,166.47787838397048,0.6138684229280459,53448.83356059359,1.6290135844260785,5.434908341794235,1084.778901575682,0.6494845360824743,0.6666666666666666,0.890625,0.2727272727272727,50.89746466232893,50.7493044512766,50.903458533500256,47.91666666666667,0.4632154799023689,0.5367845200976311,69.55887320899659,74.87916581856538,0.5155034500773731,0.4844965499226271,119.52873426909623,115.87823641761142,0.5011910312915744,0.49880896870842567,97.7894553571025,97.55679153431619,1.0012558183095055,1.0396490810380312,1.256197741457815,1.137509517536988,0.5527956109795786,0.35958539341255813,-0.6141618129478106,0.00048537028521563236,0.07691773160144406,0.8117205555967457,1.6658792233390523,6.41434583187785,1.054309678148653,1.107400628053892,1.334741984120452,1.6296694990889724,1.59875093757538,1.8517422129861465,2.6857775979250906,1.1566857558472285,Relax
72.5370136716625,831.7894736842105,123.85027806742956,,,,,,,148.54628908188855,149.34263644748077,0.14889618345236405,0.1785864017056367,845.0,90.4386,0.10702792899408284,119.0,0.8337487178771265,762.0,906.6,54.736842105263165,76.84210526315789,312.0,1178.0,10.555555555555555,554.6875,,,0.06280340965778451,0.07689934753388687,0.018460791558464217,0.1581635487501356,0.8166962616959687,0.3970789107482685,0.4862014550228087,-2.565257887111385,105.6011909522909,140.90337198921756,0.7494582241819727,46745.5286093868,1.334297186599682,5.376710185210072,752.0278913104858,0.6631578947368421,0.6808510638297872,0.921875,0.25,49.889233495790876,49.930021449272836,49.722337368415964,47.87234042553192,0.4427365871437911,0.5572634128562088,70.26547202673433,78.83145215878218,0.5140997374450185,0.4859002625549815,101.02877276111542,98.21887452172685,0.4884327278333741,0.5115672721666259,87.0173818405176,89.05432376301863,0.8853597486855499,1.7956875088464153,1.2338797795056673,1.3311674030297425,-0.3116024277016205,-0.28907494512732823,-0.4458215179173493,0.0007882163260086363,0.20415148854335688,0.7645196625034676,1.824549292051046,6.380381924120424,1.0634799004937383,1.1493668864551316,1.1252489443405993,1.2475777381204918,1.617759789673113,1.9312413972792677,2.654022910564439,1.0373456223680444,Relax
72.40093870069065,832.8631578947368,123.74111707008063,,,,,,,148.6778611057434,149.47506561752542,0.14857316702886253,0.17851415289104958,845.0,90.4386,0.10702792899408284,120.0,0.8322766829559975,765.2,906.6,54.736842105263165,77.89473684210526,312.0,1178.0,13.571428571428571,554.6875,,,0.043033084281134996,0.023000667106877367,0.013793707605260653,0.07982745899327301,1.8709493981706204,0.5390762129201853,0.288129766335361,-3.772232058826772,105.69483251645639,140.6463020928087,0.7514938604408612,46701.61999044862,1.330682860686784,5.376302055639465,748.6224944555051,0.6736842105263158,0.6914893617021277,0.9384615384615385,0.30434782608695654,50.01106929377905,50.04378303113734,49.84765779189064,47.87234042553192,0.44508056288139825,0.5549194371186018,70.51363019311054,78.73516245269082,0.5130310527815534,0.4869689472184466,100.73958200694955,98.14743455356687,0.48850653662300947,0.5114934633769905,86.95008748111086,88.97231231090464,0.8314206952467564,1.9374997769727282,1.212180147904528,1.3675782100410798,-0.5250125192523907,-0.5757110821249838,-0.4197945393421642,0.000988168092972476,0.2452289396093328,0.7398396825053006,1.717651497074333,6.338276660962528,1.0451301205748864,0.9545743145653516,1.0077014419786658,1.1346700823831586,1.6627146778264073,1.9287396906185708,2.68179315235781,0.9681892475435081,Relax
70.85992545114811,849.6129032258065,110.08870260109667,,,,,,,144.00841611879315,144.77549839492622,0.12957513025415737,0.16949885715250163,848.0,91.9212,0.10839764150943396,125.0,0.7644602000919448,769.4,911.0,53.76344086021505,77.41935483870968,401.0,1178.0,11.625,445.3125,,,0.04273547107060194,0.025200675378079546,0.01115700013264237,0.07909314658132385,1.6958065777782603,0.5403182566097705,0.31862021511772987,-3.68088448410645,102.37173666471445,117.17063274852993,0.8736979076013298,37683.28186214309,1.1445603695508701,5.2831188287257405,536.4354508766668,0.6774193548387096,0.6956521739130435,0.9375,0.30434782608695654,51.32834962622195,51.76337245796188,50.98845624578744,46.73913043478261,0.4243839543799973,0.5756160456200029,66.6999596355546,77.68059426442825,0.6583026360140323,0.34169736398596784,95.06739031053694,68.49195922321759,0.5570224852115709,0.442977514788429,82.11788269262848,73.23053735809134,0.7940420237275305,1.3097719587195478,1.158520798909143,1.0248483007793703,0.5453094316638287,0.4573993500724485,-0.6020578408629644,0.0009368098420667678,0.14079598583089772,0.7125325785366727,1.8111775550851563,6.281094294978999,1.1005547963775806,1.2171694306781606,1.1071969834234803,1.118272219029486,1.6949962878189375,1.9118780730389209,2.9142669643644346,1.1250165696529946,Relax
70.25561492571198,856.6304347826087,109.38677395504634,,,,,,,143.6344949232883,144.42365521476108,0.12769424189651393,0.16767381719252025,855.0,80.8017,0.09450491228070175,112.25,0.7615633975213766,775.0,911.8,53.2608695652174,78.26086956521739,401.0,1178.0,11.5,445.3125,,,0.06623132421455868,0.0815791528589528,0.01525005013343914,0.1630605272069506,0.8118658001888066,0.4061763159302205,0.5002998227487357,-2.5061815293222622,102.12294596610543,116.70013700943962,0.8750884838965094,37440.752874294456,1.1427415837393915,5.280314683090471,533.432397555084,0.6956521739130435,0.7142857142857143,0.9384615384615385,0.3333333333333333,49.26754951365288,49.6787086231284,48.99681394386918,47.25274725274725,0.40615230884692677,0.5938476911530733,65.08601146858584,78.70108710247344,0.6791804817254863,0.32081951827451366,96.1753918090006,66.1000452980722,0.5607680399323614,0.4392319600676385,82.11545189093118,72.6741945243231,0.8931340272351761,1.6737314739338092,1.2487707551779486,1.3676084375378343,-0.17677054538249237,-0.3669944729574226,-0.42899835833248756,0.0009501791874541881,0.1979649743990125,0.7196489759667326,1.9993988340062996,6.2626923908396215,1.106051870741249,1.2271691832537985,1.1254048018339522,1.1800004263845458,1.6909485508953874,1.9088270221345063,2.813398639016142,1.2763490783589808,Relax
70.06849782736386,860.1195652173913,114.70332897928361,,,,,,,161.851885892729,162.74826362759546,0.13335742333717623,0.1881737056543083,860.5,75.6126,0.08787054038349797,105.5,0.7086931878897342,780.6,917.6,53.2608695652174,77.17391304347827,401.0,1178.0,13.142857142857142,453.125,,,0.0661430904983275,0.08556894366387731,0.022701521351803824,0.1744135555140086,0.7729800984588948,0.3792313636597759,0.4906094793589857,-2.4584328693300495,115.0804008374087,115.50854801366287,0.996293372364065,41760.46859532414,1.0037204178395163,5.327735473213222,463.7531523052381,0.7065217391304348,0.7252747252747253,0.9393939393939394,0.35,49.8456954347132,50.34914422328413,49.46666591468888,47.25274725274725,0.41741661244740097,0.5825833875525989,74.35104422789082,87.83776079922701,0.6864871104319397,0.31351288956806045,95.70405036610177,64.67580233555142,0.5524511969184502,0.44754880308154993,85.69522458764877,77.13115981874492,0.7223471413422489,1.8933939126877928,1.1824937082609777,1.356287101730604,-0.34398834088693064,-0.718283570681788,-0.4082106516213969,0.0018929332299710173,0.293598133119839,0.7098529846167865,1.5373346185327568,6.284431521274405,1.0232879837511921,1.0386647731831344,1.0889422193880252,1.3218187790386562,1.6567711874543385,1.93093313400694,2.8598218841413763,1.0636242319658173,Relax
69.63251371903834,866.5934065934066,119.36693921796848,,,,,,,167.33270252205136,168.23096045297765,0.1377427272233722,0.19309251749311024,869.0,80.0604,0.09212934407364787,105.5,0.713350931520622,783.0,937.0,54.94505494505495,79.12087912087912,401.0,1178.0,15.166666666666666,453.125,,,0.06062606938944311,0.09599529764562656,0.026022147409279026,0.1826435144443487,0.6315524913860733,0.331936612005546,0.525588318521303,-2.343456071572057,118.9572529418264,117.95706941391472,1.0084792164885175,44082.35355418933,0.9915920761182945,5.351234883380632,467.8611814118938,0.7032967032967034,0.7222222222222222,0.9384615384615385,0.4,51.641911690411234,51.97043208829268,51.42245659243311,46.666666666666664,0.4378205578445577,0.5621794421554425,78.72998229619736,89.21329069121403,0.696567522610713,0.30343247738928686,98.44770242295931,64.97630423746452,0.5660715747038854,0.43392842529611436,89.1357398149561,78.04143562337447,0.7695706119064716,1.7950474720160994,1.2706830763686143,1.2392335862761046,0.12455030771593023,0.028887913406518972,-0.5175201439420359,0.0021741496334935053,0.27964675332336264,0.6349304561385223,1.4759065198095775,6.2880144204184765,1.047883410428657,0.8936515593540632,1.1451624916011776,1.2314811650286157,1.6827277322435723,1.922455696500331,3.5401340292722034,1.001199175415184,Relax
70.24955517333228,858.5434782608696,134.46396739806576,,,,,,,170.08230069877644,171.02236428095912,0.15661870458843402,0.19810563472371598,866.5,89.6973,0.10351679169070975,126.25,0.7905817762672885,770.4,941.0,56.52173913043478,80.43478260869566,401.0,1178.0,18.4,421.875,,,0.054239017665720944,0.04735553727766136,0.016520956478747618,0.11811551142212992,1.1453574551947205,0.4592031733400158,0.40092564225894645,-3.050071522625401,120.93107351762218,147.93907682478775,0.817438340924943,56204.44777922389,1.2233338588797853,5.45674079509563,723.9155269247225,0.6739130434782609,0.6923076923076923,0.9206349206349206,0.35,50.381605641966964,50.921745961222264,49.94525397956377,45.05494505494506,0.3960508986505711,0.6039491013494287,76.10602983849425,93.98179492741015,0.5677779243319034,0.4322220756680965,111.47363309364057,97.26047283801807,0.4989909978445144,0.5010090021554854,95.44238747242595,95.63518535155518,0.9259615065333879,1.2928030813434235,1.3087449399897568,1.426185440051471,0.44696389577495577,-0.2680268634171572,-0.40915824555455466,0.0025612679617356094,0.20542025789314672,0.6567900549252652,1.5740359853831847,6.327909782143969,1.0775830122705508,1.2536574497624313,1.2322481973513282,1.5048091621091968,1.6781618467623358,1.8820778034122818,3.3014179151206644,0.9927159498347627,Relax
70.79196859027887,852.0,137.3693185188369,,,,,,,173.5480425614852,174.5049883659231,0.16123159450567712,0.20369488563554602,857.5,109.71239999999999,0.12794448979591835,149.25,0.791534819357984,762.0,941.0,60.86956521739131,80.43478260869566,401.0,1178.0,18.4,421.875,,,0.06349907997642945,0.054310793475469445,0.023694175920381668,0.14150404937228056,1.1691797507084862,0.44874390703386036,0.38381087832040844,-2.9130322969248303,123.39366062442382,151.09126247758206,0.8166829676383978,58570.92341363759,1.224465355132482,5.474652181015293,740.0240654681102,0.6739130434782609,0.6923076923076923,0.9206349206349206,0.3,49.47475119793586,49.984104604901724,49.08582108808567,45.05494505494506,0.3933203250703623,0.6066796749296379,77.38866554964982,96.11338789853019,0.5811158875406498,0.41888411245935014,115.17831602643179,97.78816449031551,0.5059747379687622,0.4940252620312379,98.1199521968905,96.95439249388944,1.0471895042647905,2.7545344518727286,1.1498902457199431,2.423149538816407,-2.262746096110863,-3.260131713341368,-0.03775880630906184,0.008911551096675475,0.799459254405485,0.5936024104854991,1.6885752329928243,6.32790978214397,1.144936344216034,1.2885894815320464,1.2577012332883957,1.573284630091587,1.7881637092610028,1.8851011411683196,3.289026998976613,0.9218076677037084,Relax
71.61349073871679,843.3404255319149,158.00745546528074,,,,,,,210.61014792407832,211.74007646475354,0.18735904349138924,0.24973325308251587,852.5,120.83189999999999,0.14173829912023458,158.5,0.7502366672390353,755.2,947.2,61.702127659574465,81.91489361702128,394.0,1228.0,15.666666666666666,515.625,,,0.05995659453839527,0.05299087124386771,0.02341778614815087,0.13636525193041385,1.1314513826819492,0.4396764842189465,0.38859511857836443,-2.937635620946886,149.72284391718532,164.37461383867733,0.9108635477259782,77316.58902201305,1.0978592814440273,5.595242795959875,721.840781746279,0.6702127659574468,0.6881720430107527,0.90625,0.2857142857142857,49.20227255039303,49.208172759498,49.19743628087521,45.16129032258064,0.43634015301683554,0.5636598469831646,98.90641162669671,112.41400094603719,0.4812105021947005,0.5187894978052996,114.02558107357589,118.39417441516147,0.46086264139023164,0.5391373586097683,106.73404189862809,115.44281732559918,0.9521673861653027,2.1760257972719366,0.9500210714690769,1.9851756508222849,-1.5058082806328148,-2.3957990126748427,-0.02429121904208502,0.004039179732115429,0.4398356942263577,0.6275863267429305,1.6376087894007967,6.341822894230829,1.1435563906633794,0.935435735917751,1.3201029014281769,1.6369410587406021,1.7431448172927553,1.9180791784067688,3.6767136818158557,1.1156746981578958,Relax
71.24624105269248,849.1827956989247,158.47300869045003,,,,,,,215.23972984639204,216.41911210226849,0.18661825168044993,0.25346689892514573,864.0,115.6428,0.13384583333333333,155.0,0.7362628117194993,756.8,950.2,63.44086021505376,83.87096774193549,395.0,1226.0,15.5,515.625,,,0.0534981262299998,0.05214316509420695,0.020526510316889762,0.1261678016410965,1.0259854025612913,0.42402360613513224,0.413284248563957,-2.953762168556101,153.03142174588567,165.18085525467538,0.9264476897758052,79412.74280821111,1.0793917573932255,5.606860306183026,713.1794145642401,0.6881720430107527,0.7065217391304347,0.9230769230769231,0.35,49.96613740687789,50.14502835901165,49.81025142980955,46.73913043478261,0.4548451511652814,0.5451548488347184,103.20778145976277,112.99015322263584,0.4833076492501165,0.5166923507498834,114.83427815508506,118.73417159043382,0.4701615230412952,0.5298384769587046,109.17590758323377,115.89775284392124,0.9332274859140505,2.0553766188949054,1.003658035596823,1.9552216079176976,-1.4005752556594988,-2.389186880771888,-0.037036879969719286,0.004589060867256335,0.43105885299207986,0.6378733169662594,1.7600107709134747,6.345610424011257,1.1971765530571878,1.5927512425513386,1.4415024593897476,1.8729814538196234,1.8011467045039957,1.932291412217331,3.5461127269451356,0.9843894984463702,Relax
71.14006212016803,849.3010752688172,152.44170553292741,,,,,,,193.3310126047619,194.389901249002,0.1794907718498734,0.22763542662838332,855.0,109.71239999999999,0.12831859649122807,155.0,0.7885010453267168,759.6,950.2,65.59139784946237,86.02150537634408,395.0,1178.0,18.6,460.9375,,,0.046226802467210226,0.06495934292580799,0.025132967472266746,0.13631911286528497,0.7116266942540851,0.33910727186798134,0.47652410260330075,-2.7339936982382467,137.45441736735265,167.56291025740794,0.8203152902763325,72357.98572876019,1.21904347249597,5.566456578610314,817.0658879268847,0.6774193548387096,0.6956521739130435,0.921875,0.3684210526315789,49.84634780553148,50.14935578935956,49.57961428420876,46.73913043478261,0.44299414338030974,0.5570058566196903,91.48686328564419,102.5863613667116,0.4848613019896325,0.5151386980103678,116.67737674417894,120.2652013261903,0.4680205333628068,0.5319794666371931,104.84144313616925,111.77584754429425,0.9263058762843861,2.0036879074318215,1.2413455327216656,1.8787527649290574,-1.2825777336456294,-2.18378360350315,-0.1818829769630277,0.0036626326842720187,0.3857185823416532,0.6038299457775462,1.7525387560747734,6.367115800355344,1.25092930014424,1.7607085441083843,1.1091342175209697,1.2433953270048486,1.850694323887565,1.9191768356071428,3.55026164029266,1.1250165696529946,Relax
72.28584866561468,839.031914893617,178.2078315578522,,,,,,,226.14725433920546,227.35614926107806,0.2123969641613068,0.26953355447495614,857.5,131.21009999999998,0.153014693877551,177.0,0.7880167817140623,728.0,960.2,70.2127659574468,89.36170212765957,345.0,1178.0,18.8,500.0,,,0.035895504337526765,0.060482191292698946,0.051542826892354496,0.1479205225225802,0.5934888199373136,0.24266750634312614,0.40888302894864564,-2.8054063160757607,160.76507488696916,194.9349221911458,0.8247115143859601,98453.51566005155,1.2125452143645055,5.700201338861521,945.4696280615643,0.6808510638297872,0.6989247311827956,0.9230769230769231,0.4,50.84365937252835,51.469447991326845,50.39497830209621,41.935483870967744,0.4332408236723813,0.5667591763276189,105.82507100008917,121.03839671055161,0.5845219990524407,0.41547800094755916,149.03562030343505,125.65033931684546,0.5232757513768762,0.47672424862312357,129.24891057839437,123.36592164917197,0.7346761188202142,1.6200939022977092,1.0865590004519063,1.348941042906246,-0.12443133131911388,-0.7031801857073638,-0.33804516387462813,0.002206532135852465,0.24754078290568376,0.6615880367819131,1.957744606702316,6.426929277209552,1.3270977260761347,1.1144894714411542,1.027306779496633,1.632192286352496,2.005167519776554,1.9697839962835617,4.241197840487089,0.9762153608881589,Relax
71.73143882363807,844.6989247311828,179.25818063597038,,,,,,,227.0762417454045,228.32041001042634,0.2122154715575346,0.26882506310478527,872.0,123.05579999999999,0.1411190366972477,160.0,0.7894184757424019,734.0,962.6,68.81720430107528,90.32258064516128,345.0,1178.0,18.6,500.0,,,0.016894640656176067,0.05729622905177367,0.04973982095771366,0.12393069066566341,0.2948647919029686,0.13632329946222874,0.4623247780192379,-2.859520468041827,161.44691020166536,196.32432357269963,0.8223479763671819,99575.78075329783,1.2160302314083835,5.70512383027057,954.9452505008171,0.6989247311827957,0.717391304347826,0.9393939393939394,0.42857142857142855,50.062876431266126,50.695178283547435,49.64004438043715,43.47826086956522,0.4282468280530615,0.5717531719469385,105.65182294834146,122.07710137990122,0.5854030536869982,0.41459694631300165,150.21095303064325,126.41166724596248,0.5220010964823233,0.47799890351767677,129.85691761065678,124.26328560202853,0.7358411749684506,1.8447888718319563,1.092914162979059,1.426230577531841,-0.6074132757280744,-1.0924548780573158,-0.31932002103753804,0.002083074408269621,0.2806293178619201,0.6885540526290153,2.12389330425067,6.453137305731688,1.3525258275744,1.463139473764362,1.1546066143858937,1.781104301837806,1.9071932949718375,2.0031481386952197,3.4120753451105115,1.1250165696529946,Relax
69.5824458897021,869.7362637362637,149.98435734471596,,,,,,,201.6346255538027,202.72543900673742,0.1724480898386419,0.2318342168321336,874.0,93.40379999999999,0.10686933638443935,120.0,0.7438422688205168,797.0,962.0,67.03296703296702,91.20879120879121,345.0,1178.0,15.166666666666666,507.8125,,,0.019566407008038487,0.05518271963910819,0.04812501250931451,0.12287413915646117,0.3545748947496909,0.15923942289535556,0.449099542165187,-2.8971054247256283,143.34853264068383,155.31430599092664,0.9229576871628178,69944.66344991348,1.0834732880052294,5.551724694798691,673.1156071449583,0.6813186813186813,0.7,0.9206349206349206,0.35,51.312190433946945,51.785260860883675,50.92459431981089,43.333333333333336,0.44902430578994174,0.5509756942100585,96.07519877796099,106.42473734569948,0.5842545032345421,0.41574549676545774,118.7168855377235,100.14406988766859,0.5220357927508554,0.4779642072491444,107.99107076976702,103.33213307768153,0.6062340149783543,1.3463025497050811,0.9014612004611742,1.1163379967466245,-0.004313063665499328,-0.6771650370047624,-0.34039486790504786,0.0012902391284333088,0.16314801653175262,0.6318182124792235,2.1465808445174646,6.309992442396498,1.3672660441947426,1.3396683923772155,1.3120509808755005,1.397090490855679,1.8727027107782621,2.0138109166374996,3.444606705581899,1.1442276290459246,Relax
68.73867955020717,879.8314606741573,137.21724944201839,,,,,,,213.19751832087965,214.4139835034998,0.15595856203741315,0.24231631607890033,878.0,81.54299999999999,0.09287357630979498,112.0,0.6436156036089278,810.6,960.8,61.79775280898876,89.8876404494382,395.0,1226.0,11.125,515.625,,,0.009529466786586881,0.040393882851974205,0.04461109204319664,0.09453444168175773,0.23591361151162865,0.10080417905959642,0.42729276370993785,-3.2090769200344678,151.61358171654524,122.45260849432213,1.2381408904292572,58325.17106816597,0.8076625267204486,5.472826131218435,395.60153272013633,0.6966292134831461,0.7159090909090909,0.9365079365079365,0.35,50.503355704698,50.40123585235037,50.52127842393139,46.590909090909086,0.49161824854745617,0.5083817514525436,106.30724286264538,108.10451520124658,0.4193816715960927,0.5806183284039075,79.29992272838507,93.3068249504606,0.4631008319376979,0.5368991680623021,93.78088192639615,100.97710084279616,0.4414532787562873,1.7006165595492098,0.7748850305458023,0.7830368259099818,-0.20863500650134714,0.020322498879263184,-0.4952065647494692,0.0005437883784835113,0.16876083201193318,0.6235266936165087,1.9715525796686513,6.273486239955162,1.3379951084896806,1.3767515748688992,1.375747322733158,1.4880278312585007,1.7354158766508094,1.9993426829921843,4.224544695324804,1.0914157467920895,Relax
68.66792536777595,880.7777777777778,136.14217434526188,,,,,,,212.47670063940362,213.68025715602164,0.15457040104798245,0.24123758114729815,880.5,78.5778,0.08924224872231686,102.5,0.640739308995155,816.2,960.4,63.33333333333333,87.77777777777777,395.0,1226.0,12.857142857142858,476.5625,,,0.0071187596698896426,0.04224281216350671,0.053122505074415426,0.10248407690781178,0.16852002282271095,0.0694621045988757,0.41218902914552946,-3.1643210659596095,151.09475884070818,121.02653686331638,1.2484432154854594,57448.656778854616,0.8009975845085979,5.466249988758921,387.76785475582886,0.7222222222222222,0.7415730337078652,0.9545454545454546,0.35,49.882815453239566,49.771521509463305,49.924087029054405,47.19101123595505,0.48898501129286154,0.5110149887071385,105.65687388901868,108.01070548792838,0.4222992837280261,0.577700716271974,78.64856059110747,91.98818697025492,0.46292179480031337,0.5370782051996866,93.13691825225135,100.31983612943797,0.4500408827498006,1.9171514114637784,0.8092864820557456,1.0343889226569325,-0.5382542971745146,-0.6475680300168485,-0.38258494386245834,0.0014686569216396832,0.25970458573460925,0.6596254648952642,2.151762203259462,6.314075318551898,1.3754486639925227,1.178181767192725,1.4916028514052002,1.925068710722951,1.757727913739408,2.0113847341010582,3.5838855194231294,1.0819755160549458,Relax
68.4793287213024,881.3111111111111,122.25223919223569,,,,,,,177.63679647154797,178.64084236757773,0.13871632576844112,0.20155969240827198,881.0,71.1648,0.08077729852440409,93.75,0.6882146133040448,824.6,960.0,63.33333333333333,85.55555555555556,395.0,1129.0,12.857142857142858,476.5625,,,0.009630424077010464,0.0634047078231085,0.04672130738587513,0.1197564392859941,0.1518881548019776,0.08041675365791186,0.5294471696147356,-2.7582171644107962,126.3181510349913,119.20772464019151,1.0596473627549003,47306.41434411148,0.9437101767517945,5.3818901412997,449.9901715614975,0.6888888888888889,0.7078651685393258,0.9206349206349206,0.2857142857142857,50.35553243149498,50.34545640683407,50.29974319035367,46.06741573033708,0.4905023536700873,0.5094976463299128,88.46921010364925,90.16597700402802,0.40874600219134816,0.591253997808652,76.21336857069039,91.66244631799778,0.451990404846927,0.548009595153073,82.56899746652957,90.91729063849938,0.5854610217705396,1.2607920338897731,0.6053723224468017,1.180766953732812,-0.45171106459904387,-1.3815308946338156,-0.04362447111058193,0.0012744933226913671,0.14481819611563987,0.6907205144218023,2.268683541318364,6.261243235194527,1.4188037288787552,1.3872472952593713,1.2673937801607282,1.976450398206606,1.8069808307610828,2.0112331120552334,3.880289742272179,1.0819755160549458,Relax
69.01207490822736,875.1888888888889,139.626700904566,,,,,,,188.48109612241123,189.540578097828,0.15953893231189384,0.21536047648148351,884.0,74.87129999999999,0.08469604072398189,101.25,0.7407994954246437,822.4,960.4,62.22222222222222,85.55555555555556,345.0,1129.0,15.0,562.5,,,0.013522054724570359,0.05574645487600288,0.040846814723863874,0.1101153243244371,0.2425634913403468,0.12279902736089482,0.5062551939796763,-2.8869414603319274,134.02542808299256,144.92632149440587,0.9247832050174952,61021.70595972608,1.0813345166460737,5.492454454837155,626.8553352097873,0.7,0.7159090909090909,0.9206349206349206,0.2857142857142857,49.3496871913072,49.82438226475717,49.00512250495856,45.45454545454545,0.4430683017177904,0.5569316982822093,89.21580704826206,100.0247412575327,0.5475209727997978,0.45247902720020206,107.237739031084,97.48695291884457,0.4993679186396727,0.5006320813603271,98.6392236885804,98.76399863573107,0.6599644699153981,1.7270643779230173,0.8336628512815543,1.3024865809447574,-1.4228156270206398,-1.8474136060372306,-0.22854299141586448,0.0009021975096405802,0.18106813798122393,0.7160606858014442,1.7346010553881064,6.2612432351945255,1.322275920746514,1.2556404054178312,1.4754127677944624,1.74873315857709,1.766611403222222,2.0147761949137606,2.681355555531773,1.1541072171252755,Relax
68.60376033035706,879.1777777777778,118.42549241372488,,,,,,,170.38340769563663,171.34800603632692,0.13470027951918762,0.19379858317881982,879.5,68.19959999999999,0.07754360432063671,90.5,0.695052963286622,829.0,942.2,61.111111111111114,85.55555555555556,395.0,1129.0,12.857142857142858,500.0,,,0.009316565549575172,0.07448272796119414,0.04602181285431695,0.12982110636508626,0.12508357044104437,0.07176464452070595,0.5737335788198561,-2.597188019922601,121.16133701108024,116.89923297032384,1.0364596407731639,44496.47333314728,0.9648229035276605,5.355295701332662,451.14822949833706,0.7,0.7159090909090909,0.9365079365079365,0.3181818181818182,49.7952497952498,49.77325612959907,49.759528147371135,47.72727272727273,0.4830269592427957,0.5169730407572043,84.20767077993439,87.11639940593588,0.4093219109667592,0.5906780890332409,74.79010760548032,89.84358893883706,0.44749374852282514,0.5525062514771747,79.638219511178,88.49050095593671,0.5257023545497569,1.2517480577393445,0.690477157237509,0.9566877670093705,-0.6438646691963346,-1.1748455493370393,-0.28732892124263604,0.00025667916060355313,0.08674438918141084,0.7028785775377773,1.83961549040569,6.2612432351945255,1.408150152458961,1.1816480399543756,1.0267669799092174,1.5737283995979936,1.7366572639532254,2.0358444408291083,3.280842667796221,1.0819755160549458,Relax
68.75755655668061,877.1777777777778,114.40855018116785,,,,,,,152.7828377325738,153.60723646688947,0.1304280079586693,0.17417545405633778,878.0,63.751799999999996,0.07261025056947608,81.25,0.7488311637556107,832.4,933.0,57.77777777777777,83.33333333333334,395.0,1129.0,12.857142857142858,460.9375,,,0.009450087687915082,0.08725173921971033,0.04482544959175076,0.1415272764993762,0.10830830161584092,0.06677220053730586,0.6165012242010812,-2.4389577843480135,108.61671854506305,116.70764668910904,0.9306735387647824,39824.090179744904,1.0744906332323896,5.307115972666477,501.60509277617115,0.6888888888888889,0.7045454545454545,0.9354838709677419,0.30434782608695654,51.600121914050604,51.75402902743221,51.40187605760735,46.590909090909086,0.524155820650968,0.4758441793490321,78.65809933445563,74.94551050899943,0.40979555930038974,0.5902044406996103,74.71072242962627,89.66037446806277,0.46288980772237964,0.5371101922776206,76.70980588186153,82.63114514276015,0.5192850975931728,1.3929237102712302,0.7273179597265349,0.9003312509120177,-0.521309420166352,-0.7861834697288514,-0.3757912655878378,0.00023304124379906678,0.10165328245065465,0.7088565493408847,1.7376922479577792,6.150132124083416,1.34992377186007,1.2053236269337946,1.062665764960613,1.2792820452111173,1.7005861884934221,1.9936020071165617,2.782634628766182,1.2262389181956053,Relax
69.4615646059582,868.8351648351648,134.14637641490845,,,,,,,178.83623793851177,179.83785733636793,0.15439795929571826,0.2058344841192524,876.0,69.6822,0.0795458904109589,93.5,0.7501073493898436,820.0,943.0,60.43956043956044,84.61538461538461,345.0,1129.0,13.0,507.8125,,,0.010250586737624412,0.0767169690795026,0.041382194459991896,0.1283497502771189,0.13361563759122994,0.07986448524825684,0.5977181016235997,-2.567632355450348,127.16456843660467,141.9281710684016,0.8959783493251549,56700.20130159867,1.1160983976378376,5.460554710724509,633.6232172364478,0.6923076923076923,0.7078651685393258,0.9206349206349206,0.36363636363636365,49.87970441656643,50.174254718406175,49.71505409803792,46.06741573033708,0.461765429319459,0.5382345706805409,86.41268243373341,93.29375498446358,0.5383273876838414,0.4616726123161587,104.13383051663041,96.43521703586903,0.5042342685537374,0.4957657314462627,95.68439356410104,94.87748891032132,0.5651600556471437,1.9255882886984304,0.8255195444143102,1.4401157912031166,-1.3964677114704127,-2.1806732425401973,-0.18082676323076693,0.002654352129721618,0.318303457249035,0.7006365459439454,1.6502599069543555,6.266036398440455,1.3128049644615651,1.1270101123511538,1.0663934456465425,1.3065061597512695,1.7456479712523216,2.0302257986190964,3.430870792605359,1.1442276290459246,Relax
69.42592274690101,870.3076923076923,132.13349245766506,,,,,,,173.37368120142497,174.32586366220312,0.15182388208853154,0.19920963899757158,883.0,72.64739999999999,0.08227338618346544,95.5,0.7621312043559414,820.0,951.0,58.24175824175825,82.41758241758241,345.0,1129.0,13.0,546.875,,,0.009527286626742107,0.06369190906195238,0.04773391337204687,0.12095310906074136,0.1495839387931523,0.07876843101203464,0.526583479800978,-2.7536977407671532,123.26700033174538,140.4359782339335,0.87774516104706,54384.49299547016,1.1392828401436044,5.442445194098426,639.9852005628046,0.6813186813186813,0.696629213483146,0.9193548387096774,0.30434782608695654,51.039136302294196,51.20452636983317,50.98632448918035,46.06741573033708,0.48325317464982087,0.5167468253501791,85.70018945084142,88.62032384138985,0.5298179651548355,0.4701820348451648,102.2213762941305,96.29669885855705,0.5095519699538813,0.49044803004611826,94.32320033633383,92.53814351068546,0.5189546143408096,1.1554190549679273,0.6584261605205499,0.8978858194838404,-0.4406530265458066,-0.931011886089371,-0.2927508137124002,0.0003083172403419293,0.07573191043168363,0.7115346487551872,1.6582280766035324,6.2880144204184765,1.3036882982585087,1.1186966727325915,1.1220263958562284,1.3401731762302773,1.7675346332248536,2.055346426854019,3.350929357543107,1.215741855861295,Relax
68.42512108803388,881.2359550561798,114.78893897377581,,,,,,,161.11038705863078,162.01289302965057,0.1302590280334827,0.18282321112097588,886.0,74.13,0.08366817155756207,93.0,0.71248627149038,832.2,954.2,58.42696629213483,82.02247191011236,395.0,1129.0,12.714285714285714,460.9375,,,0.012071557279344709,0.06521795231516701,0.05654126934837066,0.13383077894288237,0.18509561939339456,0.09020015705428068,0.48731654130924085,-2.7300205056920896,114.56041530091663,114.88004937548601,0.9972176711595531,41345.577807930706,1.002790091793311,5.32339917557183,460.8023010338548,0.6966292134831461,0.7126436781609194,0.9354838709677419,0.3181818181818182,51.10483792465688,50.98257786344929,51.14174654906327,47.12643678160919,0.5257596061951416,0.4742403938048585,83.07758456690507,78.90227478037146,0.36850957826295255,0.6314904217370476,69.73792221788318,91.29100694617505,0.4469256063711526,0.5530743936288475,76.69831436458949,85.32179356636797,0.5469066119423709,2.813693125354578,0.9584577193608304,1.872102498063081,-1.8994709528992306,-2.6633451848452596,-0.17528627394747812,0.010887139186623103,0.8675952021380823,0.6455137750044604,1.7462970951512975,6.22854241973044,1.3765581063338497,1.0040346735253323,1.0388333513899408,1.3023520341054098,1.7607814921431162,2.0298738849922113,3.6355978039949446,1.236937846364368,Relax
67.543392089276,892.3820224719101,112.76761156728645,,,,,,,162.17831796569422,163.10762412611766,0.12636696922122956,0.18173642440314758,888.0,69.6822,0.07847094594594593,101.0,0.6953309972738793,839.0,960.0,61.79775280898876,83.14606741573034,395.0,1129.0,11.125,492.1875,,,0.012792291525794237,0.0678059379318766,0.06043904747204229,0.14103727692971313,0.1886603432673761,0.09070149257184937,0.4807660741044238,-2.6911055077545276,115.3345070828043,111.45266196666921,1.0348295415079092,40383.093296606465,0.9663427259168141,5.313169692281008,430.8058767022254,0.7078651685393258,0.7241379310344828,0.9523809523809523,0.36363636363636365,49.928605425987634,49.767728517002084,50.014717940990415,48.275862068965516,0.5160218426058699,0.4839781573941299,82.85019717788118,80.23657548759799,0.3037224423353438,0.6962775576646564,61.42269779471589,92.9997207257938,0.4135049991956652,0.5864950008043348,72.92771413116823,86.85291043209965,0.4838263732127407,2.7388927318692002,0.6531577282126344,1.853272739147341,-1.886374679225705,-2.8490113781636555,-0.06182474874959082,0.012591345492041961,0.9004364436245507,0.6638870948086866,1.5988558031035631,6.22854241973044,1.3961397920630783,1.0545027346689502,1.0397066024965937,1.302573954092387,1.7586613143175334,2.05332588200437,3.121539075144862,1.3096988961505074,Relax
66.86207839001031,898.4090909090909,101.9396526871102,,,,,,,153.55866751120269,154.3631647595685,0.11346685348426129,0.17092287807976014,889.0,71.9061,0.08088425196850393,100.5,0.6638482499183793,841.6,960.0,60.22727272727273,82.95454545454545,406.0,1129.0,11.0,484.375,,,0.020907709987795637,0.10216058115869679,0.0435885435525728,0.16665683469906523,0.2046553548409977,0.12545366066473665,0.6129996489083073,-2.2812093785632195,109.15124056690716,78.94831817077623,1.3825657480226214,27072.06795341421,0.7232929077190172,5.139491541441723,228.41103443706746,0.7045454545454546,0.7209302325581395,0.9516129032258065,0.3333333333333333,47.755019675108464,46.95532998534795,48.301389998972816,47.674418604651166,0.44333928187559934,0.5566607181244007,72.71731664146363,81.48262762485732,0.38820961980421387,0.611790380195786,49.189910139714584,61.751029808748314,0.42441786175857216,0.5755821382414278,62.07839962131787,72.29318186071244,0.313802566906307,1.542846954655166,0.571440438190274,0.803999125444242,-0.5017819976160665,-0.8058900493920033,-0.349266522157445,0.0007197848919877074,0.15291187871327763,0.6369065260440347,1.717651497074333,6.209431618637295,1.401461444288046,1.2246334483191865,1.0267221142794731,1.2199638380457445,1.8049671212969691,2.0348409410674257,3.277533787600819,1.2478447445094778,Relax
67.13603021043808,895.0681818181819,100.95245215771737,,,,,,,143.23716367434557,143.9829311737791,0.11278744369244507,0.16002933249552356,887.0,68.19959999999999,0.0768879368658399,102.75,0.7047923148439055,837.6,959.6,55.68181818181818,79.54545454545455,406.0,1129.0,9.777777777777779,484.375,,,0.01580886924784114,0.07359061107435513,0.0325395497526427,0.12193903007483897,0.2148218232875935,0.12964568635767063,0.6035033330115023,-2.6092378283091815,101.81130700809514,85.99843421238604,1.1838739616660559,27506.56944018778,0.8446845123552751,5.146406539460915,290.566181864026,0.6931818181818182,0.7058823529411764,0.9333333333333333,0.2727272727272727,47.64738292011019,46.65703037248715,48.31102645384755,48.23529411764706,0.45208292132804556,0.5479170786719545,68.49520438144421,75.40645675888923,0.3747861088965913,0.6252138911034085,52.64804959940236,67.99936441144841,0.41991886940291423,0.580081130597086,61.087683496253746,71.79849330345027,0.3187582264041559,1.6948549632507603,0.6234084232670825,0.7271045769060951,-0.38660299450672575,-0.2773101128297859,-0.4388170929740669,0.0005928746703540328,0.16708639928026428,0.6220055138584177,1.6094379124341003,6.155398806112712,1.283574243629971,1.1844329565627898,1.251430589966427,1.2543423824671904,1.8195491212281776,2.000326697466417,3.168628798432271,1.2478447445094778,Relax
67.72369206080951,888.3595505617977,87.9212260015401,,,,,,,127.28145262298895,128.00937751372925,0.09897031663129957,0.14327695643334534,886.0,69.6822,0.07864808126410834,95.0,0.6907622767471481,834.0,952.4,57.30337078651685,80.89887640449437,657.0,1077.0,9.88888888888889,226.5625,,,0.014274600276311965,0.05678372439843454,0.03886132076746704,0.10991964544221355,0.2513854176973552,0.12986395852064808,0.5165930454923694,-2.8685055365971968,90.51629889542671,86.10949628265308,1.0511767319867762,24486.55615664686,0.9513148165960166,5.0958978192459545,327.66895865323,0.6966292134831461,0.7093023255813954,0.9344262295081968,0.2857142857142857,50.32459725895648,50.313344213861214,50.328048343363506,47.674418604651166,0.4931027952162172,0.5068972047837828,63.56244101705013,64.44537917144815,0.5190931130192464,0.4809068869807536,62.04027043231601,59.714740179769194,0.5054497500674069,0.494550249932593,62.805967325409775,62.125103989003776,0.43864488661178574,3.217590361636491,0.9347927044287155,1.5021383702543138,-1.6571237990989705,-1.272033093902622,-0.3236737427516901,0.007130696677995763,0.8171800385248323,0.5347957508285517,1.8458266904983305,6.152644807346582,1.330449261501011,1.3344328634802836,1.1695989301723184,1.5103784954313857,1.8736240217869757,1.9712660782849123,5.084962801318838,1.0914157467920895,Relax
68.06651711694171,883.561797752809,83.64249613903044,,,,,,,121.5141686463689,122.21014104266352,0.09466513417823301,0.137527639781869,885.0,66.717,0.0753864406779661,86.0,0.6883353362886202,834.0,945.4000000000001,51.68539325842697,77.52808988764045,657.0,1077.0,11.125,234.375,,,0.01090908625670657,0.03542155630169902,0.028129970760840915,0.0744606133192465,0.3079787393808924,0.14650814397585415,0.4757086293371061,-3.3404347090918978,86.41561946103178,81.71709958878718,1.0574973891130286,22184.7768103769,0.945628812226899,5.05302517382305,309.0961752910881,0.6853932584269663,0.6976744186046512,0.9166666666666666,0.2727272727272727,49.82359858878871,49.806570612618906,49.838302304090554,50.0,0.5009008135412171,0.499099186458783,61.160284987646314,61.05019604212265,0.5040100948762157,0.49598990512378427,58.01396668440945,57.55053461736034,0.5023686272604371,0.49763137273956304,59.60788869868603,59.32617664878464,0.5027287765136411,1.1439211310259616,0.7489141388286874,0.7963700127554073,0.12835566622672534,-0.2436992701338443,-0.4585147326685384,0.00037955304074904105,0.08550097582086977,0.5568948193655991,2.0971411187792373,6.197588627571301,1.301867540298869,1.353672139752365,1.260137450781403,1.533743726262233,1.8952401603284914,1.924832883067522,4.645362181681094,1.1641767965782288,Relax
68.78184258108291,874.2222222222222,93.93803572996401,,,,,,,122.04502760884994,122.71132883609036,0.10745326913696952,0.1396041241077338,882.5,67.4583,0.07644,84.5,0.7696998195701356,819.4,939.8,50.0,74.44444444444444,619.0,1077.0,12.857142857142858,273.4375,,,0.015850387623139676,0.028886079635924235,0.017964681390632096,0.062701148649696,0.5487206233215292,0.2527926196646562,0.4606945846767081,-3.5443954734031253,86.77001274841182,97.96259070549523,0.8857464071082843,26704.213765686447,1.1289913139639163,5.133549905813083,442.39565599962566,0.6888888888888889,0.7011494252873564,0.9180327868852459,0.2857142857142857,48.55263157894737,48.283681384681735,48.78009284762763,48.275862068965516,0.4717550733449303,0.52824492665507,59.60971549855092,63.07778387183413,0.5045546247903399,0.4954453752096603,69.584795869556,68.95379149491781,0.490131524199177,0.509868475800823,64.78951303268902,66.08113263143429,0.5636975694102989,1.670467755206681,0.8962303170781076,1.1991734362541657,-0.6452070494357738,-1.2489618696647882,-0.31864773011522396,0.0011929007714579682,0.2095969801603796,0.5868757586466948,1.9740810260220096,6.216798790750081,1.1810798484769531,1.2850739707031638,1.233752187195037,1.2872300736738855,1.8867326669696938,1.8781809176756186,4.491015641896974,1.1541072171252755,Relax
70.25683824679717,857.0869565217391,117.06292589546392,,,,,,,133.7463977126072,134.48496155334576,0.13658232108738752,0.15604764101810814,874.5,64.4931,0.07374854202401372,93.0,0.875260402504503,806.4,930.0,53.2608695652174,75.0,380.0,1077.0,11.5,515.625,,,0.022658674028683403,0.02864590596687623,0.012985780886592083,0.06429036088215172,0.7909917059311732,0.3524427879665846,0.44557077567795866,-3.5527447442216187,95.0952282819829,136.50745081124373,0.6966303137070242,40781.66516509476,1.4354816038346578,5.3174350645389765,783.8157377036193,0.7282608695652174,0.7415730337078652,0.9545454545454546,0.3333333333333333,49.57553203860914,49.345793898782944,49.68605752099506,49.43820224719101,0.5260388606335972,0.473961139366403,68.97241799766371,65.46933124244765,0.35930654749913393,0.6406934525008661,81.82554793452091,109.26510802721766,0.41378473692612666,0.5862152630738735,75.67236860053022,90.0696873690946,0.7751352887356583,2.50936779392669,1.1782274543292794,1.9108358445527398,-1.3658779774832368,-2.0708298752198315,-0.2080506125899282,0.007533435180760067,0.6630034195434558,0.582834057715298,1.3625778345025747,6.319704483207411,1.1153624978921266,1.332385712694556,1.1834361283535577,1.1648463770967652,1.7330773459292412,1.8713230162582843,2.6217473846744874,1.2054407962279263,Relax
70.17343782302561,857.2087912087912,118.20824529274283,,,,,,,134.0559170230426,134.806935977032,0.1378990118919006,0.1563865401263605,875.0,81.54299999999999,0.093192,98.0,0.8817831239215218,806.0,939.0,52.74725274725275,73.62637362637363,380.0,1077.0,13.0,539.0625,,,0.006956540898689842,0.017504340412565402,0.022226265454930567,0.04668714676618581,0.3974180537357537,0.14900334204463037,0.37492846800488794,-4.0453064052302645,95.32289858034008,137.5222331361063,0.6931453657096931,41183.1942731614,1.4426988182718739,5.3216901385334285,793.6126529262788,0.7142857142857143,0.7272727272727273,0.9375,0.3684210526315789,49.99411002473791,49.745511883967644,50.11165944829605,48.86363636363637,0.5267984387182058,0.4732015612817943,69.18620048158918,65.57228621224917,0.36399409562631446,0.6360059043736856,82.96980807008062,109.673951125851,0.41682897810582087,0.5831710218941791,76.38952607610767,90.3551334309697,1.010679165347871,2.157341570526378,1.1242142520772673,2.08934995061106,-1.3459940333174352,-2.34803562500396,-0.052627311446881556,0.00821162407735567,0.5679152958639968,0.555854277939754,1.3083328196501787,6.227467442348949,1.0754044543038819,1.3002683248972897,1.0829477475669742,1.1263944748290249,1.7092479725015466,1.799320568416247,2.4657909602055708,1.215741855861295,Relax
72.01883718256035,840.6170212765958,141.8596236617044,,,,,,,178.85889795127355,179.81814875010767,0.1687565443848264,0.2127709687339557,870.0,78.5778,0.09031931034482758,106.25,0.7931370778117572,779.8,934.4000000000001,56.38297872340425,77.6595744680851,371.0,1093.0,11.75,523.4375,,,0.035072920818509754,0.022203560822351306,0.01415686666460294,0.071433348305464,1.5796079331205044,0.49098805600614687,0.310829064422463,-3.8075026055629793,127.15063236161244,155.5489059165551,0.8174318656398841,62134.864824861674,1.2233435495167564,5.500305467822155,761.159002749626,0.7127659574468085,0.7282608695652174,0.9253731343283582,0.2857142857142857,50.794220586915564,50.62106135566299,50.94406600187429,50.0,0.521346219325156,0.47865378067484404,91.81343323141299,87.97390299796668,0.4059294230030326,0.5940705769969673,99.10423796421848,119.89083430091253,0.45216271776564465,0.5478372822343553,95.52841594051368,105.15041549624166,0.6984471006852567,1.2904959144220123,0.9921718158195565,1.1508832643584757,0.11296426585137809,-0.437981698317476,-0.3770151483896771,0.001239933788725415,0.14722794047196594,0.5681699597673759,1.3437347467010947,6.269962388888664,1.0522942764283925,1.312252664130624,1.2071250989015514,1.3327907511682315,1.7138501951942984,1.882636016228662,3.347766956791828,0.9762153608881589,Relax
71.93807101247864,839.7765957446809,142.382051111118,,,,,,,181.8765680935985,182.86083466050056,0.16954753422826602,0.2165773242731509,863.5,85.2495,0.09872553561088593,119.0,0.7828498888204467,778.0,938.4,61.702127659574465,80.85106382978722,371.0,1093.0,15.666666666666666,554.6875,,,0.0404576825454775,0.03270489193540664,0.012517491155134423,0.08568006563601857,1.2370529346307857,0.47219481270413166,0.38170946406999495,-3.420230611796813,129.302136201872,155.69439871885683,0.8304867565297431,63245.34431013646,1.2041131205735078,5.5079986711956375,749.8946731887147,0.7340425531914894,0.75,0.9420289855072463,0.35,49.70585727683519,49.65970260258955,49.753094928476024,51.08695652173913,0.5101368340129796,0.48986316598702045,92.35335026054996,90.4996096556559,0.4041991606456626,0.5958008393543376,98.98529740685538,120.17760477602619,0.4474414227784411,0.552558577221559,95.72677370274063,106.37865396198816,0.737087538121585,1.3847035172271203,1.0428333974350228,1.212776893162349,-0.038942886873226,-0.5408703478497432,-0.3772708427377729,0.0012228088384330183,0.15895889118012632,0.6135999387452271,1.5493339883643946,6.1981018835465,1.087005347895408,1.2349011601067674,1.269564250548933,1.398829024308414,1.8455428347828977,1.8602951344825338,3.267119276208528,0.9762153608881589,Relax
69.18510839797652,871.6593406593406,129.96505682342462,,,,,,,186.0734323384782,187.11584166565692,0.14910074470734913,0.21347035895666364,868.0,71.1648,0.08198709677419355,95.0,0.6984611139273809,807.0,929.0,49.45054945054945,72.52747252747253,431.0,1712.0,11.375,476.5625,,,0.03162792552381552,0.18113775673123128,0.008253828065893915,0.22101951032094072,0.17460702889649024,0.1431001520087021,0.8195555065170607,-1.7084974502832055,132.31088050921434,128.50501892004235,1.0296164431642942,53415.281589296355,0.9712354601940167,5.434635632167626,499.23452475219256,0.6923076923076923,0.7078651685393258,0.9047619047619048,0.4117647058823529,49.94384125795582,48.72265005353517,51.292912104179,48.31460674157304,0.6135093910687688,0.3864906089312309,103.63494703617603,82.25552814317321,0.28610711096987335,0.7138928890301265,68.73602540981386,108.57669500634964,0.4545847568236116,0.5454152431763886,87.93418969982491,96.31944406145166,0.3253918718765214,2.6340251116616638,1.0119555555400128,1.0401610680650235,-0.721537620820575,-0.48935758476706814,-0.4892918589119989,0.003161197631373689,0.5170790147583986,0.7726735055223584,1.329135947279942,6.109281865402099,0.8953526233171476,0.9547129296005794,1.1977263321390752,1.2714002680167187,1.3728009839908233,1.8995436189417663,2.1023685744926537,1.1442276290459246,Stress
69.13975113632156,872.1777777777778,131.29335690749915,,,,,,,187.00528743351052,188.06473957577964,0.15053508614037558,0.21441189193100216,868.0,71.9061,0.08284112903225806,96.0,0.7020836614268477,805.6,929.2,47.77777777777778,71.11111111111111,431.0,1712.0,12.857142857142858,476.5625,,,0.0332702903089744,0.17498050174667482,0.009126235512131946,0.21737702756778118,0.1901371294336607,0.15305338692516743,0.8049631725326333,-1.743080729856565,132.98185265611585,130.99484293820308,1.0151686102547575,54726.34579832361,0.9850580385351445,5.4451665602492545,516.1500921717026,0.6555555555555556,0.6704545454545454,0.864406779661017,0.35294117647058826,50.09439899307742,48.86366348341951,51.4430577306208,47.72727272727273,0.6138200633141381,0.3861799366858619,104.18689500560562,82.63944826226098,0.30074244217040347,0.6992575578295963,71.83755779448873,109.5400117150258,0.45963778579878145,0.5403622142012187,89.48615479722436,97.02652363044577,0.3646709540520327,2.82514583677235,1.0595317926836363,1.1098365535684476,-1.023925849921799,-0.6635140450761223,-0.4821939242109062,0.0030643632481015775,0.556944850822652,0.7746021811116424,1.4170660197866445,6.111134624035337,0.9116394018298362,0.9852999173974833,1.239761425576013,1.3232089088251884,1.4025974082811048,1.9008970576094466,2.0285305627826204,1.2262389181956053,Stress
69.14418992129157,872.1098901098901,130.591343132303,,,,,,,186.07402947333742,187.11644214592238,0.14974184401904655,0.21336076059163964,868.0,72.64739999999999,0.08369516129032258,97.0,0.7018246635595939,807.0,929.0,48.35164835164835,69.23076923076923,431.0,1712.0,13.0,421.875,,,0.024399809901198607,0.19988929081104617,0.01020748156434879,0.23449658227659356,0.12206661898792548,0.10405187855752425,0.8524187809921794,-1.6099916116419875,132.31130511288202,130.31887833287075,1.0152888576505552,54169.416727173775,0.9849413715758346,5.44072426927922,513.4258190696081,0.6373626373626373,0.6555555555555556,0.8813559322033898,0.35294117647058826,49.94368664747843,48.713449978695536,51.300747868753426,48.888888888888886,0.6133555875112602,0.38664441248874,103.62228839243704,82.27215729010962,0.29839372922794544,0.7016062707720547,71.18724395786474,109.15762157367222,0.45826398121497786,0.5417360187850221,88.89657573270735,96.65426584685636,0.6566323012680475,1.837959317039307,1.0835842036127974,0.8225634202308327,0.03087987970177153,0.6265772798911156,-0.6420166273334235,0.001425951080225923,0.2210089448884716,0.7830424715887867,1.4663370687934272,6.175215931336165,0.914813979881075,1.104374004416117,1.1119814425253631,1.2348266885929526,1.397201461412433,1.9126659044202663,1.998236022608176,1.1442276290459246,Stress
69.28803759888888,870.1428571428571,130.74611287432614,,,,,,,185.66232789664144,186.70240461798377,0.1502582154195178,0.21336993847914795,862.0,72.64739999999999,0.08427772621809744,99.5,0.7042145509837232,806.0,929.0,46.15384615384615,65.93406593406593,431.0,1712.0,10.11111111111111,421.875,,,0.02500200238231401,0.1932608702792415,0.007179517956144861,0.22544239061770036,0.12936919070160846,0.11090195731960538,0.8572516896654476,-1.643714343268669,132.0185363692109,130.64412808177482,1.0105202453995925,54184.451451906956,0.9895892779511484,5.440844791013057,517.1361135080035,0.6153846153846154,0.6333333333333333,0.8596491228070176,0.2777777777777778,49.916741385935694,48.64886136265547,51.30975780702518,48.888888888888886,0.6134530492256665,0.38654695077433365,103.40123116646905,82.07977758035439,0.2997713277405469,0.7002286722594534,71.52945902294282,109.32257175045021,0.45825356153765273,0.5417464384623472,88.9052251413167,96.66569862617449,0.6970603527539038,1.8191722990287462,1.0847031801865468,0.8019455337977848,0.055363873521178775,0.8023993008298431,-0.6554320316661186,0.0012869829863234176,0.20519142723447925,0.7418936438303532,1.3146383722134554,6.219171975292209,0.8726121368833867,0.9074068304467064,1.1164940322090389,1.2350682252817304,1.3796813776315913,1.898636224519357,1.9299067920726738,1.0727134022305544,Stress
68.87500220073898,875.8222222222222,128.82176326861645,,,,,,,185.94260320161501,186.99518765008392,0.14708665754307673,0.21230633167747578,868.0,64.4931,0.0743008064516129,85.75,0.6928039139526124,814.8,929.2,44.44444444444444,62.22222222222222,431.0,1712.0,10.0,421.875,,,0.026785921159889172,0.18091918490395087,0.007947275127416387,0.21565238119125643,0.14805461993491564,0.1242087892186706,0.838938962345602,-1.7097048396670185,132.22556523662527,126.75540657106067,1.043155229536485,52654.05194163344,0.9586300980769079,5.4284019074810415,486.04619133197696,0.5888888888888889,0.6067415730337079,0.8333333333333334,0.21052631578947367,50.34418850939899,49.05524072854963,51.71542403081575,48.31460674157304,0.6154443860930785,0.3845556139069215,103.73181658838946,81.99684722320399,0.27968918910199836,0.7203108108980018,67.03541965778376,107.57874142366468,0.4546562251843401,0.5453437748156601,87.33280386379008,95.64692509653712,0.3266422578880098,3.028982531596595,1.123008440315869,1.2593860239714456,-1.1609928595603716,-0.9608027313099943,-0.4549757774325324,0.00449893336459614,0.7072850367692013,0.7947906391855888,1.349154814170434,6.163966707392711,0.8794628465612913,1.1173918320491543,1.3109431490206753,1.4787706357438672,1.3162667903830896,1.8980113553422666,1.9432122611040512,1.0819755160549458,Stress
68.90458489222398,874.8222222222222,130.43381185837174,,,,,,,186.97641502414388,188.02751738284553,0.14909750637911776,0.21373075611772485,868.0,75.6126,0.08711129032258065,94.5,0.6975949979655407,813.8,930.0,44.44444444444444,62.22222222222222,431.0,1712.0,12.857142857142858,445.3125,,,0.036382367250240674,0.1541130846011065,0.010703285801194609,0.20119873765254181,0.23607578385968828,0.180828009532897,0.7659744111677808,-1.870068630454688,132.95553259108152,128.48259739951175,1.0348135489327115,53666.169061661654,0.9663576603064218,5.436670704414791,496.6405688523365,0.5666666666666667,0.5842696629213483,0.8076923076923077,0.2,48.977183320220306,47.523223013608025,50.561246384013934,49.43820224719101,0.6095843875021854,0.3904156124978145,103.81077081095022,83.07858410182274,0.29436669787904246,0.7056333021209575,69.70896678670529,107.92792865637254,0.45737392979420416,0.5426260702057958,88.41950063994258,96.30807058709742,0.3600157362304993,3.070038563163007,1.1594179423117694,1.2526583488104115,-1.1161082437079326,-0.7966861594435433,-0.4696289135851837,0.004319445292334782,0.7139909839682893,0.7666818856439201,1.270154711207237,6.186188929614932,0.9063033805019665,1.2369866176534074,1.2185389174267929,1.6176993712291259,1.323601910470695,1.9106366007622486,1.9862622585435308,1.2262389181956053,Stress
68.73783050254471,877.3,130.4769513418392,,,,,,,187.4808154979471,188.5315742637875,0.1487255800089356,0.21370205801658168,868.0,76.3539,0.08796532258064516,93.25,0.6959482814030532,814.8,930.4,46.666666666666664,63.33333333333333,431.0,1712.0,12.857142857142858,453.125,,,0.02495158143753058,0.07495625671280638,0.008620908732916717,0.10852874688325367,0.33288190381667726,0.22990757890507524,0.6906580870544665,-2.590850579427921,133.31195462969933,128.21008827883153,1.039793018001612,53695.905196700456,0.9617298661246154,5.4369112780024365,493.21388414490315,0.5555555555555556,0.5730337078651685,0.803921568627451,0.21052631578947367,51.1822153687998,49.95347577658345,52.45316787555095,48.31460674157304,0.6135069715938477,0.386493028406152,104.42518526764421,82.88316667563937,0.2885130832331162,0.7114869167668836,68.86601537325573,108.14480414276169,0.4573575790018799,0.5426424209981201,88.4509677492884,96.34551878851995,0.6231158084426242,2.156280555138655,1.1045514605924507,1.0104395955169347,-0.33279640201226535,0.17565090278385442,-0.5436454638758565,0.0011688793268136474,0.29334691732576645,0.7746950028124568,1.2809338454620642,6.163966707392711,0.9118965589142702,1.181119774126537,1.3310529964623834,1.5687242832719335,1.3378345828464413,2.002674447365489,1.9345159260852822,1.0819755160549458,Stress
70.48914216545955,857.4239130434783,148.51752652673264,,,,,,,192.24695084679524,193.2939987774322,0.17321365110935694,0.224214589682253,866.0,77.8365,0.08988048498845266,105.0,0.7725351474889643,790.4,927.8,47.82608695652174,65.21739130434783,424.0,1712.0,13.142857142857142,460.9375,,,0.02155452263700794,0.0394634620120508,0.004313351474033433,0.06533133612309218,0.5461893492878531,0.3299262485064839,0.6040510473824818,-3.2323800475161435,136.67949729818653,153.43201077083597,0.8908147433610136,65882.37127356841,1.1225678598751454,5.525739332100256,688.9513758694304,0.5978260869565217,0.6153846153846154,0.8571428571428571,0.19047619047619047,51.4173882101767,51.17637137547565,52.12805582081763,49.45054945054945,0.6093271437019867,0.3906728562980134,106.70116629582306,85.43789167186496,0.4851983677696157,0.5148016322303843,106.87488052428502,110.08697398921332,0.5401244663246385,0.45987553367536144,106.78805873310247,98.53622474865541,0.719659601554645,1.698960735988749,1.0279660581729098,0.9172968691714238,0.009472289122385291,0.5416335016813296,-0.5651393446930246,0.00042966906587378964,0.1595631679848193,0.7508853691384121,1.139434283188365,6.23274796146828,0.8778245456908855,0.9904985135237333,1.3390278458885012,1.466292268576783,1.3560935115568238,1.9832474911410438,1.7194329131953816,1.2054407962279263,Stress
70.00385737139405,859.9230769230769,102.04892408047674,,,,,,,124.03547879538338,124.7259387627517,0.11867215431131564,0.14424020255299974,867.0,75.6126,0.08721176470588235,94.5,0.8227397924494085,796.0,927.0,47.25274725274725,64.83516483516483,424.0,1080.0,13.0,460.9375,,,0.022801393232718414,0.023874112947055888,0.004222530180069042,0.05089803635984334,0.9550676619183139,0.4479817860067361,0.46905764258307764,-3.734960547355587,88.19455708899979,114.8949028530986,0.7676107024674791,31834.0884425496,1.3027436912819312,5.209862528476443,598.7144394092983,0.6043956043956044,0.6222222222222222,0.8571428571428571,0.2631578947368421,50.67335243553009,50.66586792622233,50.69683085894624,48.888888888888886,0.49674065022330827,0.5032593497766915,62.161578147218954,62.56812018049886,0.6973206480104626,0.3026793519895376,95.9438241769491,63.210927092755476,0.6229496981767197,0.37705030182328014,80.83711769802945,62.89034491417183,0.9234475428888075,1.0263480031792898,1.0714200566262404,1.4366215444784525,-0.3521531887498952,-1.3892912596003182,-0.14417382143197294,0.001811755997726795,0.11717576676616852,0.6653350869029397,1.4514336632908522,6.169828843471625,1.0834638949964297,1.2778110175367738,1.4400948159983644,1.9042233271324804,1.6708601834172476,1.945163239226677,2.980417547780094,1.1442276290459246,Stress
71.01561943202026,847.6881720430108,132.07474649957348,,,,,,,145.96195156391897,146.6640107839858,0.15580581498649498,0.1721882602326944,868.0,74.13,0.08540322580645161,92.0,0.9048573623773174,800.0,927.6,50.53763440860215,68.81720430107528,364.0,1080.0,13.285714285714286,523.4375,,,0.03878758580325865,0.04277332540698664,0.00624940925383535,0.08781032046408065,0.9068171678071831,0.441720125815108,0.4871104578701923,-3.151840608842534,103.70711658137327,148.04180818557717,0.7005258707146542,48232.83764285664,1.4274990286651823,5.390312923125265,845.3181495469946,0.5913978494623656,0.6086956521739131,0.8392857142857143,0.25,47.02669902912622,46.105235798639924,47.72533566708354,51.08695652173913,0.45603479503073907,0.543965204969261,70.08044827745631,76.53911590641913,0.5875991441404649,0.4124008558595349,113.48147139834911,95.07014578783867,0.5442506745949421,0.45574932540505797,94.31148811651622,86.30344397489928,0.7152611956094406,1.2459592477970687,1.011246759738453,1.2436211304175429,-0.1619757185817008,-0.9727363404008369,-0.3134976155199763,0.001218903935747598,0.1389479494482659,0.7400390246058373,1.2872034584756595,6.272977225063264,0.9335174349183992,1.2477869713471619,1.426093374943166,1.5343711489677714,1.6839774622212105,1.9484057695649797,2.660754707393243,0.9843894984463702,Stress
70.82753806783937,852.304347826087,134.1112986308354,,,,,,,158.56100846864405,159.42747307073262,0.15735141909448624,0.1860380143232573,869.5,63.751799999999996,0.07332006900517539,86.25,0.8458025079813764,813.2,929.6,52.17391304347826,70.65217391304348,364.0,1080.0,15.333333333333334,523.4375,,,0.011589015867770005,0.03788564970002841,0.0023957973505786103,0.051870462918377026,0.30589460546485797,0.2234222564392069,0.7303896585547152,-3.2731828744775773,112.73224731575073,152.72123606845233,0.7381569860082993,54087.56969896664,1.3547253754349171,5.440067577814647,827.5813354788747,0.5869565217391305,0.6043956043956044,0.8545454545454545,0.19047619047619047,50.99471732044509,50.5628914513774,51.34964078907635,50.54945054945055,0.5299160578438165,0.4700839421561835,82.06999045530182,77.29805229686507,0.6097741993356118,0.39022580066438817,119.25701993226065,95.40198710274503,0.5816055891733184,0.4183944108266814,102.3663033826487,86.82317672154484,0.6764562799321285,1.6745665894581565,1.0893739359293957,1.3235222469616388,-0.42826331966171693,-1.045062924213192,-0.36017378317095944,0.0019387156215386018,0.24127149374607745,0.7097930622590005,1.2661500492778275,6.254487091903063,0.9695122381581022,1.2617901455843412,1.571086130104915,1.712986491298014,1.6893781352620754,1.9544671266020963,2.816578035694346,1.2054407962279263,Stress
70.65741737689306,854.5978260869565,134.8272040067475,,,,,,,160.4157373551884,161.3038684382305,0.1577668464523202,0.18770903980612968,879.0,66.717,0.07590102389078499,88.75,0.8404861407594728,813.2,938.8,53.2608695652174,72.82608695652173,364.0,1080.0,13.142857142857142,546.875,,,0.02967093848428539,0.06152781970089181,0.011745933543787977,0.10294469172896517,0.4822361433986475,0.2882221315733659,0.5976784102951463,-2.788265853590347,114.0590592042955,154.00387108021766,0.7406246245906658,55183.76089358084,1.350211654861851,5.448781405229101,831.7512865054074,0.5978260869565217,0.6153846153846154,0.8571428571428571,0.19047619047619047,50.21748586341887,49.93228617457568,50.42991834301351,51.64835164835166,0.523864916501617,0.4761350834983828,82.55456108268976,78.70394596912604,0.6030729961325585,0.3969270038674416,119.59597913329723,97.02573928005,0.5750154484132838,0.4249845515867161,102.75809890321935,88.34111498603397,0.7860661103057461,1.2338701091734166,1.0589276012763806,1.1999230120530902,0.06482825100744449,-0.4764715799722419,-0.38572913005311077,0.0008549782029039008,0.12179595794006377,0.6828190900276021,1.2559325432566473,6.289760053836069,0.9820490690581384,1.3025415001578093,1.3852098480290647,1.6517944198162247,1.7318588299986708,1.924874248181398,2.8071604536772155,1.1345325140968718,Stress
70.85410829234407,851.1827956989247,135.25964935734908,,,,,,,161.2554009880788,162.12275406779432,0.15890787506611248,0.1894486140966565,873.0,66.717,0.07642268041237113,88.0,0.838791435998776,808.8000000000001,935.8000000000001,55.91397849462365,76.34408602150538,364.0,1080.0,15.5,562.5,,,0.024273158922132276,0.08747515987622885,0.020289950958891634,0.13203826975725275,0.27748630532915947,0.18383426991854362,0.6624985319562923,-2.4364004130509604,114.63809878597628,153.26396838077193,0.7479781451382441,55197.437183653485,1.336937457999092,5.448889023871502,819.6173611593698,0.6021505376344086,0.6195652173913044,0.8596491228070176,0.18181818181818182,48.90396659707725,48.63470801163379,49.14239180331593,53.2608695652174,0.5162349768256875,0.4837650231743123,82.37514695079355,79.74247699540463,0.5922014258850719,0.4077985741149283,117.94371162924052,97.87300389249742,0.5649444255214634,0.4350555744785369,101.72606339588266,89.2692206986917,0.7441848705885343,2.4040922288318796,1.1437157139967882,1.6890162466839176,-1.6576199955185782,-2.101740032646453,-0.27317819751362676,0.002362811252398416,0.42204040946704563,0.6809993951336151,1.3743181700731746,6.337493354095521,1.0419548930280158,0.9700005139224711,1.4200255054228605,1.6983951877747216,1.761729719495176,1.9260515335068973,2.811734926804049,1.0547030340496826,Stress
70.64544497771352,854.8913043478261,135.9302064386566,,,,,,,162.29148921778824,163.18975598699956,0.15900291153663582,0.18983874136092202,876.5,67.4583,0.07696326297775241,87.0,0.8375682982133713,813.2,941.8,55.434782608695656,77.17391304347827,364.0,1080.0,15.333333333333334,562.5,,,0.05173075874828298,0.0348788823867711,0.007244354301783707,0.09385399543683778,1.4831541382158355,0.5511833407571545,0.3716291695886727,-3.3558737221183756,115.39258307858536,155.0288936793973,0.7443295268378772,56200.530583432446,1.343490972672122,5.456710525679769,833.1196766464659,0.6086956521739131,0.6263736263736264,0.8596491228070176,0.19047619047619047,50.25088856366297,49.982055050893976,50.44295720081876,50.54945054945055,0.5194099981391903,0.48059000186080975,83.16399461305355,79.99586794884401,0.6027151657309642,0.3972848342690357,120.35626657585222,97.7155410944455,0.5730158129926084,0.42698418700739177,103.44535007451422,89.29632092160672,0.763940138608432,2.283558381920946,1.0988382476450296,1.6229648302829733,-1.5272344142760037,-1.8700144364213243,-0.2704781332557635,0.0023244002055616123,0.37431818890284163,0.6907911739587682,1.3103084541419687,6.262692390839623,1.037728648594695,1.0551704810513391,1.410571398670429,1.728158019247256,1.8083843582006045,1.937680054223697,2.9825726554796805,1.2763490783589808,Stress
70.43936026423668,856.8913043478261,137.211992597461,,,,,,,162.48810607359732,163.38829381058656,0.1601276520152017,0.18962510793275683,876.5,68.9409,0.07865476326297775,89.5,0.8444433005780265,813.2,942.0,54.347826086956516,77.17391304347827,364.0,1080.0,18.4,476.5625,,,0.054274174907454245,0.053490183702395167,0.010775624293832671,0.11853998290368209,1.0146567304651821,0.45785543053059086,0.45124170252207496,-2.928257124113315,115.53297051996577,154.2791861437157,0.7488564945652704,55996.79255420464,1.3353693361243058,5.4551332616840025,824.0787775141273,0.6195652173913043,0.6373626373626374,0.8620689655172413,0.19047619047619047,49.95280545359204,49.69286007514106,50.14798186910726,52.74725274725275,0.5323549279806145,0.46764507201938554,84.2959403266584,79.00675076641657,0.590869474078334,0.4091305259216661,118.59137816062747,98.68207690928645,0.5698453568125029,0.430154643187497,102.88275008375433,89.38741234032058,0.8728771200629153,0.9090272120639411,1.0599957942574885,1.1216270093968481,0.2981978039079616,-0.2348233729579663,-0.43220091288639606,0.0002508652703530566,0.055115596162535765,0.6398162321197467,1.2927683031090673,6.262692390839623,1.023402770317056,0.9498096928726211,1.358895370020381,1.6328743685334672,1.8316365799447292,1.9320865065726498,2.3751174764864547,1.1345325140968718,Stress
71.16450769595893,849.7608695652174,138.9996734572192,,,,,,,171.47552928291879,172.40598506845316,0.16357504615191187,0.2017926871246198,869.5,81.54299999999999,0.09378148361127084,109.25,0.810609385715221,797.8,942.0,57.608695652173914,79.34782608695652,364.0,1080.0,18.4,476.5625,,,0.03664027438971512,0.10098474370145591,0.024611708536745932,0.16223672662791697,0.3628298002917729,0.22584451222162558,0.6224530400755689,-2.2927858260112823,121.90944115904986,154.35485099089053,0.7897998694336112,59116.334242986246,1.266143536738148,5.478677605927012,781.7415877851838,0.6086956521739131,0.6263736263736264,0.8596491228070176,0.18181818181818182,48.88063256168429,48.641112293652746,49.09216078430039,53.84615384615385,0.5180979097083398,0.4819020902916602,87.75917172707489,84.63811854661652,0.5883348230619377,0.4116651769380621,118.39478144936754,99.03583063708064,0.5613492289308145,0.43865077106918543,104.20891635715661,92.11869208007577,0.8520916927147435,1.0779600055692233,1.0108720850095372,1.236965347215833,-0.12107500341971189,-0.7298162708193079,-0.29025820898901905,0.0006037080774452261,0.08411721293949447,0.6163125162324183,1.4190841839428816,6.306170651709188,1.089194694244216,0.8867200363343254,1.3822469245955222,1.6270718806245081,1.9359127166418995,1.9520292407418725,2.901557777217658,0.9927159498347627,Stress
71.75185504030185,842.063829787234,137.63515808892822,,,,,,,172.76741777650463,173.70005327762254,0.16344979230814935,0.20517140347918533,865.0,78.5778,0.09084138728323699,110.0,0.796649969422914,785.8,927.4,61.702127659574465,81.91489361702128,364.0,1080.0,15.666666666666666,507.8125,,,0.023316393119617994,0.10707656955427948,0.02621641276867053,0.156609375442568,0.2177543903085016,0.14888248582645433,0.6837174929769562,-2.234211097131172,122.82448556507148,151.38787843878194,0.8113231180179271,58415.20825179397,1.2325545492195673,5.473496039265622,746.3752730656781,0.6276595744680851,0.6451612903225806,0.8833333333333333,0.18181818181818182,49.520968908170644,49.37240013619404,49.61773334535875,54.83870967741935,0.5239135305869983,0.4760864694130015,88.90459590995867,84.74953507631871,0.564120877240804,0.43587912275919594,113.70437859629556,99.94800661456786,0.5481600364357309,0.45183996356426903,102.06055282498414,92.66090794363575,0.7315168906003602,1.8021364752830364,0.986522564237485,1.3561534724642936,-0.9004693414757163,-1.2289295203698716,-0.294892943294566,0.001427692966016329,0.22441308037186014,0.6203141779613479,1.3862943611198908,6.333792176122707,1.1542668734077282,1.2661140444761179,1.4222476681835412,1.7074243270213316,1.9075649110412058,1.9517744615569,2.7089461949180147,1.0459450295230273,Stress
72.05625834812572,838.4893617021277,136.03278737292862,,,,,,,172.87085738589178,173.8059423900638,0.1622355554956392,0.20616941046808884,860.0,71.9061,0.0836117441860465,99.75,0.7869041053534477,785.8,919.2,61.702127659574465,81.91489361702128,364.0,1080.0,15.666666666666666,507.8125,,,0.031828887909985,0.11280084772496118,0.02106425625281036,0.16569399188775655,0.28216887152827425,0.1920943997266137,0.6807781407148068,-2.182131424654209,122.89936047453251,149.22220779027063,0.8235996658571461,57614.65383903605,1.2141821341795573,5.467503066857852,724.7317548871047,0.648936170212766,0.6630434782608696,0.8852459016393442,0.16666666666666666,49.660970979115824,49.462929870820325,49.8126619976756,52.17391304347826,0.5234155487663368,0.47658445123366344,88.91553759656945,84.84461500680037,0.5859429446086964,0.41405705539130355,114.22498924869045,96.02040996027489,0.5606712447149219,0.4393287552850782,102.35555919184459,90.60498834112676,0.8357591598275076,2.3548394324984416,1.1199756104455574,1.846331174108561,-1.7235821339744177,-2.331405952097103,-0.1915477320284408,0.004527483984438624,0.4839427827772579,0.665121898989784,1.4017985476558559,6.2912389846333445,1.187307693646319,0.9972222657004935,1.4553973609869495,1.6808779627324102,1.8949193996077693,1.9445819326819835,3.0218534053810977,1.1156746981578958,Stress
72.1696857573817,836.8510638297872,135.88752128034537,,,,,,,172.878445704626,173.81229968351383,0.16237957643080017,0.20658209468416103,856.0,74.13,0.08660046728971962,99.5,0.7860292862218231,785.8,918.0,61.702127659574465,81.91489361702128,364.0,1080.0,15.666666666666666,507.8125,,,0.05719889044770336,0.14685802081940902,0.03441884604727577,0.23847575731438816,0.38948427963659343,0.23985201301739334,0.615819496594795,-1.9182890036979308,122.90385575984102,148.60477852689837,0.8270518416579361,57378.363217872,1.2091140477909657,5.4657182653115575,718.7205011429522,0.6382978723404256,0.6559139784946237,0.8688524590163934,0.17391304347826086,50.43808147412159,50.16441475287042,50.645520742970696,49.46236559139785,0.5251429490405962,0.4748570509594036,89.06604779356282,84.69443157097422,0.5935358887658383,0.40646411123416176,114.48702413186994,94.74228995784901,0.5657553775104857,0.4342446224895145,102.56714767442982,89.85891231699716,0.8048372595082233,2.4108846411952976,1.1236711059928042,1.7868969782399275,-1.7796246988037954,-2.2559492544367434,-0.2249035225848462,0.003607567959893022,0.46028755033289026,0.6916679761272353,1.550597412411167,6.269962388888663,1.1779853589685616,1.052073241158676,1.1876456103949327,1.4742476310947972,1.8124768739772323,1.9486671651849277,3.208062331285967,1.1156746981578958,Stress
72.01768676087633,839.0212765957447,136.3053954646014,,,,,,,173.0006526185714,173.93832702492037,0.16245761492205368,0.20619340348615042,864.5,76.3539,0.08832145748987853,95.75,0.7878894871288432,785.8,918.0,63.829787234042556,82.97872340425532,364.0,1080.0,13.428571428571429,507.8125,,,0.04110039283371286,0.11666891918703867,0.03551141255654788,0.19328072457729942,0.35228227980600774,0.212646102830991,0.6036241815741894,-2.148415106035697,122.9929705475645,149.74037177313411,0.8213748175669446,57858.75316684491,1.217470975019875,5.469339180500967,729.2182256899047,0.6808510638297872,0.6989247311827956,0.9076923076923077,0.22727272727272727,50.01800180018001,49.79549594388671,50.18324924880926,48.38709677419355,0.5241142365250205,0.4758857634749794,89.04166709053052,84.84605624818141,0.5910059317595792,0.4089940682404208,115.115771099271,95.76292697582228,0.5640577652049039,0.43594223479509614,102.90786955826222,90.46930817643693,0.7136129799173583,2.829450394113092,1.15782976853498,1.8619149623184157,-1.9898049081978328,-2.4266983415162597,-0.2511583185030055,0.004610332820508613,0.6449909029749485,0.7240785658202538,1.7211419020141017,6.248685793143983,1.1996036986956187,1.1107064767973687,1.192335216498795,1.4901694428610603,1.8231852340385653,1.9538336827975384,3.4233579281783704,1.1156746981578958,Stress
