PPG_Rate_Mean,HRV_MeanNN,HRV_SDNN,HRV_SDANN1,HRV_SDNNI1,HRV_SDANN2,HRV_SDNNI2,HRV_SDANN5,HRV_SDNNI5,HRV_RMSSD,HRV_SDSD,HRV_CVNN,HRV_CVSD,HRV_MedianNN,HRV_MadNN,HRV_MCVNN,HRV_IQRNN,HRV_SDRMSSD,HRV_Prc20NN,HRV_Prc80NN,HRV_pNN50,HRV_pNN20,HRV_MinNN,HRV_MaxNN,HRV_HTI,HRV_TINN,HRV_ULF,HRV_VLF,HRV_LF,HRV_HF,HRV_VHF,HRV_TP,HRV_LFHF,HRV_LFn,HRV_HFn,HRV_LnHF,HRV_SD1,HRV_SD2,HRV_SD1SD2,HRV_S,HRV_CSI,HRV_CVI,HRV_CSI_Modified,HRV_PIP,HRV_IALS,HRV_PSS,HRV_PAS,HRV_GI,HRV_SI,HRV_AI,HRV_PI,HRV_C1d,HRV_C1a,HRV_SD1d,HRV_SD1a,HRV_C2d,HRV_C2a,HRV_SD2d,HRV_SD2a,HRV_Cd,HRV_Ca,HRV_SDNNd,HRV_SDNNa,HRV_DFA_alpha1,HRV_MFDFA_alpha1_Width,HRV_MFDFA_alpha1_Peak,HRV_MFDFA_alpha1_Mean,HRV_MFDFA_alpha1_Max,HRV_MFDFA_alpha1_Delta,HRV_MFDFA_alpha1_Asymmetry,HRV_MFDFA_alpha1_Fluctuation,HRV_MFDFA_alpha1_Increment,HRV_ApEn,HRV_SampEn,HRV_ShanEn,HRV_FuzzyEn,HRV_MSEn,HRV_CMSEn,HRV_RCMSEn,HRV_CD,HRV_HFD,HRV_KFD,HRV_LZC,Labels,HRV_DFA_alpha2,HRV_MFDFA_alpha2_Width,HRV_MFDFA_alpha2_Peak,HRV_MFDFA_alpha2_Mean,HRV_MFDFA_alpha2_Max,HRV_MFDFA_alpha2_Delta,HRV_MFDFA_alpha2_Asymmetry,HRV_MFDFA_alpha2_Fluctuation,HRV_MFDFA_alpha2_Increment
92.79087806142836,647.8852459016393,48.543445093125406,,,,,,,67.82725993347103,68.08458926046217,0.07492599252753346,0.10469023698645613,655.0,27.428099999999997,0.04187496183206106,44.0,0.7156922620896035,616.0,671.6,29.508196721311474,54.09836065573771,508.0,786.0,6.421052631578948,171.875,,,0.05923122404063141,0.05042418965509577,0.025052665189678046,0.13470807888540523,1.1746589175904707,0.4397006069028629,0.3743219417299471,-2.98728426557152,48.14307476037358,47.061177287797406,1.022989171434449,7117.811525242537,0.9775274537830999,4.559316593962458,184.0143712247026,0.7049180327868853,0.7118644067796611,0.9166666666666666,0.4090909090909091,51.989915361066096,52.090095322600014,51.9034095204845,49.152542372881356,0.537039332453091,0.462960667546909,35.293472012068555,32.76901483617311,0.5080374973661298,0.4919625026338704,33.54367729655427,33.00872795395375,0.5228732046406892,0.47712679535931074,34.42969251418052,32.88908979031999,0.6919009038586413,1.682661064801775,1.0771491898489187,1.149585716625117,-0.19802987581089937,-0.2948589761936584,-0.4569512076487419,0.0012443641249018512,0.20247480172337642,0.6626495669371613,1.1708458460274813,6.085994304563203,1.0325029797503917,1.0747570156512234,1.2004108145818,1.2390030632853952,1.595738051969586,1.9421353743783603,2.6623785422989865,1.136186448780801,Relax,,,,,,,,,
92.91872053778974,646.6065573770492,44.498594531997604,,,,,,,62.311003498778554,62.567978458430765,0.06881865645239596,0.09636617938355327,654.0,26.686799999999998,0.04080550458715596,42.25,0.7141370228914686,616.0,669.8,27.86885245901639,50.0,526.0,786.0,6.421052631578948,156.25,,,0.04827269271721235,0.029548217262631023,0.015177607493447971,0.09299851747329134,1.6336922220435193,0.519069486576235,0.3177278312110417,-3.5217318664717214,44.24224185309021,44.94010170267566,0.9844713335496547,6246.2742589284235,1.0157736095721086,4.502591159104176,182.59587728425808,0.7049180327868853,0.7118644067796611,0.9166666666666666,0.4166666666666667,50.62,50.61179224010948,50.62503328083407,50.847457627118644,0.5290037079450493,0.4709962920549508,32.179639007712105,30.364109844793187,0.4498583920663956,0.5501416079336044,30.14199297133707,33.332761673205205,0.48881310641360953,0.5111868935863906,31.177467079212832,31.883006190048675,0.6697484621634269,1.3431210413719392,1.0349398377712333,0.9094973438187715,0.3030466987577487,0.3085422226336445,-0.5933962689053905,0.001086646462260067,0.13643220396413056,0.679266382802445,1.2253639943072536,6.112593587332352,1.031605570879831,1.0506943979900545,1.2270425406311194,1.4456560224044437,1.6216378979077748,1.946752387029292,3.3492754797943904,1.136186448780801,Relax,,,,,,,,,
92.92427045509547,646.4344262295082,42.86187458153543,,,,,,,59.11279315046436,59.35751279382308,0.06630506180114529,0.09144437664815384,652.5,25.9455,0.03976321839080459,43.5,0.7250862680847407,616.0,669.0,24.59016393442623,45.08196721311475,526.0,786.0,6.421052631578948,156.25,,,0.04298530412933073,0.024163591865964264,0.008201420980211448,0.07535031697550645,1.7789285784899336,0.5704727711139375,0.320683347275353,-3.7229082470169526,41.97209981087955,43.70355779781925,0.9603817612527166,5762.717934941797,1.0412525938597643,4.467597472854578,182.02577167151767,0.7131147540983607,0.7203389830508475,0.9176470588235294,0.43478260869565216,50.46932984064614,50.49227319725531,50.44619988649062,49.152542372881356,0.5284605724043491,0.47153942759565104,30.51229260478471,28.82222811188152,0.4698129338452269,0.5301870661547732,29.955686549168934,31.82228476327976,0.4979525294826677,0.5020474705173325,30.235270435635766,30.35933662721075,0.6134011069638619,2.066909062954144,1.124319971754526,1.1339252242189,-0.2397211027489483,-0.0587538156504368,-0.49535284225294096,0.002039868979271138,0.320197273506555,0.7269384571478485,1.2604553141185237,6.073619099609703,0.9724995253312565,1.271864183736427,1.2542138133249567,1.4807236817970422,1.6274645618778967,1.9478432679303828,2.8813318805418757,1.022567803902721,Relax,,,,,,,,,
93.46498714069868,641.9268292682926,36.66131447736588,,,,,,,44.57035330174782,44.73867050322217,0.05711136036977093,0.0694321397230769,649.0,29.651999999999997,0.04568875192604006,44.5,0.822549335186181,614.4,667.6,17.88617886178862,39.83739837398374,526.0,768.0,6.473684210526316,156.25,,,0.046856495745457895,0.03131256480015245,0.008943855139007984,0.08711291568461833,1.4964119370135327,0.5378823034129189,0.3594480170255782,-3.463735830673248,31.63501729409896,40.1114070594697,0.7886788226400652,3986.4456339389203,1.2679432632063672,4.307555955641555,203.4359534351317,0.7154471544715447,0.7226890756302521,0.9186046511627907,0.42857142857142855,47.998880492583254,47.888061780677,48.10856379418388,50.42016806722689,0.5384291638299189,0.4615708361700811,23.22108973033916,21.499951950743927,0.42647806710159136,0.5735219328984088,26.194869993947965,30.376862285144586,0.46942768003854546,0.5305723199614545,24.752678867794273,26.315410847780214,0.8515229593006384,1.5072361142063149,1.202362139525285,1.2592818036228202,-0.13119509785842176,-0.32686632349299716,-0.4622357349581502,0.0008885235298687412,0.15680342206552167,0.7409833908486325,1.3910002521573033,6.0923647083450225,1.0596352923564267,1.3517069921620928,1.348332632650578,1.6467799016000362,1.676615202688333,1.9112650773552566,2.861058841702277,1.0159777324886692,Relax,,,,,,,,,
94.13639032114443,637.8951612903226,38.57245711568364,,,,,,,46.25231262071366,46.436053634747346,0.06046833313119978,0.0725077025622131,642.5,34.099799999999995,0.05307361867704279,48.25,0.8339573727262523,604.6,665.8,16.93548387096774,41.12903225806452,526.0,768.0,6.888888888888889,156.25,,,0.04866600892734891,0.03341991216087484,0.010792183867477134,0.09287810495570087,1.456197990380205,0.5239771951695251,0.35982551729295936,-3.398603384158414,32.83524841667207,43.316891148563386,0.7580241228313787,4468.352832370971,1.3192192304709127,4.3571175687432655,228.5779032296003,0.717741935483871,0.7226890756302521,0.9186046511627907,0.43478260869565216,51.19867732157619,51.21445565397069,51.18613135000831,48.739495798319325,0.5843477203370184,0.41565227966298146,25.103066235546397,21.17172178351795,0.42280404378475794,0.5771959562152421,28.166108371917467,32.90932083708034,0.48176304507154927,0.5182369549284508,26.678583126215948,27.67006687050628,0.7662957992022472,2.198630695867408,1.2151840570258168,1.6755130312444688,-1.1415598054990586,-1.783346900663074,-0.29062924251721955,0.002693143480075525,0.3995591483059141,0.7229506917672182,1.4469189829363254,6.164572092659174,1.018613901297704,1.41391042260833,1.396972881359208,1.6715054584063935,1.6846927146612993,1.9005527384538474,2.4950689213080692,0.9533978812627167,Relax,,,,,,,,,
94.62338037643339,634.4354838709677,36.89233774534776,,,,,,,42.203918440203125,42.371990502001346,0.05814986501109855,0.06652200186329207,638.0,37.065,0.058095611285266455,52.25,0.8741448450484258,603.0,663.4,15.32258064516129,37.903225806451616,526.0,768.0,7.75,156.25,,,0.03410809144139021,0.022782691520505584,0.008352006390798495,0.06524278935269429,1.4971054412377567,0.5227871429133137,0.34919861254467877,-3.7817541751548136,29.961521816337136,42.66483663025238,0.702253288252188,4015.9086757037758,1.423987636268479,4.310753938080608,243.0167994595756,0.6935483870967742,0.6974789915966386,0.9036144578313253,0.391304347826087,48.866348448687354,48.83529431264538,48.9027753700637,50.42016806722689,0.5337678698581366,0.4662321301418634,21.892060092233606,20.46027738862971,0.43113661086434485,0.5688633891356552,28.014155740547448,32.179113767014734,0.46503845420946394,0.534961545790536,25.140159276918023,26.96403450570917,0.8784265427028779,2.1975957282093495,1.319853940719217,1.6364462715653532,-0.9021899656186765,-1.1653662624551404,-0.35593695565466776,0.001927764102770578,0.3568653343538982,0.7077674925297455,1.4372969155722632,6.176747697532778,1.0265682595946244,1.3759017749965954,1.2929477447519215,1.6551308429494243,1.7267994109950155,1.8656840461143183,3.0213781780736455,0.8973156529531452,Relax,,,,,,,,,
94.99165060762375,632.016,37.8213082116247,,,,,,,42.053920840565105,42.22093551487671,0.05984232711137803,0.0665393294482499,637.0,38.547599999999996,0.06051428571428571,57.0,0.8993527227820898,601.6,663.2,15.2,36.0,526.0,768.0,8.928571428571429,156.25,,,0.02899567267518487,0.021389218658618567,0.006006891691765801,0.05639178302556924,1.3556209386592697,0.5141825833390942,0.3792967257112661,-3.844868284903827,29.85470981060925,44.42412503209893,0.6720382177260114,4166.598082529406,1.4880106125269472,4.326751719620385,264.41427799994887,0.696,0.7,0.8928571428571429,0.375,48.9934872705743,48.99129030099547,49.00145221359431,51.66666666666667,0.534692518855621,0.46530748114437886,21.832417904224794,20.366659348261564,0.4307417418295955,0.5692582581704043,29.155961142339034,33.51764930203152,0.46308688058321723,0.5369131194167828,25.755820135246122,27.73295537570874,1.0169787100182783,1.0758077319280641,1.3359617893230384,1.324644150009271,0.5813322075515064,0.0795003429486929,-0.5105201319695705,0.0011204961560432375,0.11580474150058985,0.7141508700527255,1.4301885546771158,6.22554968455824,1.0060778036978846,1.5135463415513573,1.2711104125619421,1.7523428178064282,1.74689373015168,1.8528138873010007,2.8829845394202227,0.8358941141594504,Relax,,,,,,,,,
95.81251226585897,626.6904761904761,39.91039248831598,,,,,,,43.313000357860226,43.48700213671563,0.06368437690472517,0.06911386402606777,628.0,42.2541,0.06728359872611465,57.5,0.9214414184787187,596.0,663.0,15.873015873015872,36.507936507936506,526.0,768.0,10.5,93.75,,,0.039918277006175354,0.02874294120824563,0.006751954517243483,0.07541317273166447,1.3888027922042925,0.5293276434372118,0.3811395299667196,-3.5493630650759873,30.749954104345502,47.332057608130185,0.6496644274147002,4572.458042581389,1.5392562033593846,4.367119838990731,291.4246531643126,0.6904761904761905,0.6942148760330579,0.8928571428571429,0.36,50.28636884306989,50.24797046103024,50.32641062451686,51.2396694214876,0.5635943403467774,0.4364056596532224,23.08504613031366,20.313867819951263,0.42740991902178177,0.5725900809782181,30.944087667087338,35.81601758809831,0.4678293941977171,0.5321706058022828,27.29886367952974,29.115634474259867,1.0240655577942717,1.3631787942729852,1.411085132987568,1.2912430619456134,0.6431752172836314,0.6322552506506818,-0.5879136849439248,0.0015152832727861269,0.16888806399656264,0.6760950796313621,1.405838957192861,6.235138852037007,0.9841125874460382,1.4223453373745185,1.3142311675712233,1.9239834089696828,1.7229386344422337,1.8376025382782235,3.155974672880151,0.8860037998095133,Relax,,,,,,,,,
96.13058692026586,624.4803149606299,38.9466159651658,,,,,,,43.42216170326078,43.594029735405606,0.06236644299607934,0.06953327536993428,625.0,40.0302,0.06404832,53.5,0.8969294580799535,595.2,659.8,15.748031496062993,39.37007874015748,526.0,768.0,9.76923076923077,171.875,,,0.04490883133738619,0.027830249469202026,0.0075308328250365784,0.0802699136316248,1.6136697368481714,0.5594727751107604,0.34670835198503863,-3.5816317394456347,30.825634045153297,45.81231864556235,0.6728677996772654,4436.5375711663055,1.4861760370753965,4.354014273689199,272.34068069558856,0.6771653543307087,0.680327868852459,0.891566265060241,0.3333333333333333,49.376212919323535,49.36069616077632,49.39610691806271,54.09836065573771,0.5557454403104756,0.4442545596895244,22.98077457354299,20.546727233308957,0.40195613688751597,0.5980438631124839,29.04501496697577,35.42817586682516,0.44988693260584744,0.5501130673941524,26.189013864899977,28.95965853778919,0.9187790994359942,2.1690183984426836,1.3706153877650962,1.6551329043565213,-0.631076796290369,-0.9106761410945627,-0.36882660064308187,0.0023387088246070264,0.3751871520030726,0.7149726780230572,1.587776415652921,6.275855355961296,1.0304626932957468,1.619120932608813,1.1782479456175226,1.5406929516195405,1.8465184867243762,1.8228917617705993,3.229181350326761,0.9905222390700708,Relax,,,,,,,,,
96.95424002652203,619.4765625,40.574023892907206,,,,,,,44.700754806993594,44.87745120655417,0.06549727035541754,0.0721589120766673,618.5,38.547599999999996,0.06232433306386418,54.0,0.9076809568002923,583.4,655.0,16.40625,40.625,526.0,768.0,9.846153846153847,171.875,,,0.032835383952948265,0.018382903830996198,0.006575116549769244,0.05779340433371371,1.7861913577322384,0.5681510603415654,0.3180796155362067,-3.9963341859047476,31.733150070522864,47.871978721446865,0.6628752543355027,4772.4835164667575,1.508579470208836,4.385714547033804,288.8747371897959,0.6484375,0.6504065040650406,0.9,0.2962962962962963,50.29427501337612,50.25038437961334,50.338721632977915,55.28455284552846,0.5811732068125756,0.4188267931874247,24.19185879063516,20.536842619105418,0.3856683114078566,0.6143316885921434,29.729551465557872,37.52172858975725,0.4453502877041869,0.5546497122958131,27.102511526510654,30.246008175669328,0.9543886491937065,2.8402448899300814,1.4857266512733651,1.9093147446228962,-1.4583539180541596,-1.4208205354459311,-0.35086212289252333,0.0032077737846508553,0.5864320351437629,0.7167825797771017,1.392229096639705,6.24203476555739,0.9879300324114644,1.4693018002128504,1.3498569330251304,1.7112811583395344,1.822905774646637,1.805522902669365,3.3312545213211555,0.9296875,Relax,,,,,,,,,
97.33623605702331,616.8125,38.606178364013395,,,,,,,42.76082540101837,42.92943055759067,0.06258981191855449,0.0693254844884278,614.0,34.8411,0.056744462540716606,47.25,0.9028398774335625,585.2,651.0,15.625,35.15625,526.0,768.0,8.0,93.75,,,0.026737163384493095,0.01743553242016028,0.005199812646082197,0.049372508450735576,1.5334870619481378,0.5415394968471519,0.35314252743624813,-4.049245061886867,30.355691459749355,45.487568880241,0.6673403790752013,4337.9318900118005,1.4984856774076787,4.344252838823863,272.64988186854555,0.65625,0.6557377049180328,0.9,0.36,50.459506031016666,50.46387720886837,50.4568770827919,53.278688524590166,0.5651887450585226,0.4348112549414773,22.821512407626024,20.016957097135702,0.4067011103069269,0.5932988896930729,29.008842844770506,35.037208214155385,0.45553593654247126,0.5444640634575285,26.099179984857965,28.533178326911365,0.9926755173326373,2.43440513738714,1.4925447607153695,1.841308914209062,-0.9792314472130261,-1.2347716162445286,-0.35673536908978803,0.0026357788131544085,0.4586299360037426,0.7038628364468908,1.4870990602418561,6.15801220694674,0.9644586555304243,1.1965662629878544,1.1842306400790175,1.4592356969743245,1.7619974455782745,1.7870694571389454,2.4888950659800138,0.984375,Relax,,,,,,,,,
97.73288225072099,614.1484375,35.45166163242564,,,,,,,37.95407502526734,38.09873929355183,0.05772490731514014,0.06179951410405948,612.0,31.875899999999998,0.052084803921568626,43.25,0.9340673329233881,585.8,642.6,11.71875,32.03125,526.0,715.0,8.0,125.0,,,0.037960250243213436,0.023406539395592396,0.004398439061324396,0.06576522870013023,1.6217796916344498,0.5772085187493352,0.3559105603102091,-3.7547398343104286,26.93987690912887,42.16443948999336,0.6389241084426689,3568.5502056538935,1.5651311114827509,4.2594619211528375,263.971504176082,0.6484375,0.653225806451613,0.9012345679012346,0.3333333333333333,48.64864864864865,48.65884362832522,48.641664608309185,54.03225806451613,0.5331985022821066,0.46680149771789325,19.674534342324385,18.408827247679863,0.39013237280362095,0.6098676271963789,26.336152359193168,32.9279066510259,0.431613933115198,0.5683860668848022,23.24521695611742,26.675194067275275,0.9791529428428077,2.054658035795411,1.4450877466638221,1.489533927496331,-0.34844257017523894,-0.207232478614499,-0.4783680884808149,0.0013491274761448658,0.29124046007848287,0.6759636435558583,1.177393166521224,6.146217089725435,0.9828002060950722,1.09552997402324,1.0860945223169094,1.5306150158436727,1.7821119788544943,1.7800311816321606,2.7364336663172724,1.0390625,Relax,,,,,,,,,
98.1914909607485,611.4076923076923,34.88357072120314,,,,,,,35.42116478503611,35.55925866687865,0.057054517239616125,0.05793378989286633,609.0,28.1694,0.0462551724137931,40.0,0.9848228010824738,582.0,638.2,11.538461538461538,31.538461538461537,525.0,715.0,7.647058823529412,125.0,,,0.04260536895765275,0.03070612488784174,0.0032677492653498366,0.07657924311084433,1.387520213419134,0.5563566212842268,0.400971903618795,-3.4832931365407216,25.144192937316404,42.63168367545288,0.5898006076591883,3367.596565817301,1.6954882497812587,4.234290167927802,289.1260749604874,0.6615384615384615,0.6666666666666666,0.9166666666666666,0.3076923076923077,49.983249581239534,49.95876412072183,50.007952873353936,52.38095238095239,0.5697462480923812,0.43025375190761855,18.97922383818685,16.493014619832238,0.4098269802686655,0.5901730197313346,27.291836310741335,32.7508186736084,0.45109987423275677,0.5489001257672433,23.50590635045051,25.92909230036386,1.0715833083856976,1.521984770333269,1.4294402332436666,1.3207305615899259,0.2788239680963205,0.5197356778810649,-0.5714262545675386,0.0007636468992540429,0.15646766466521808,0.6561541345333994,1.3447453582070181,6.107477836339628,0.9831217070245367,1.098419613682395,1.212009852269269,1.4170961175759174,1.7770733103293157,1.7743702946966653,2.9987156019883234,0.8642914231419636,Relax,1.2335989567720618,1.5831748033814916,0.7934956455220927,0.6670537666580576,1.0,3.712840992322451,-0.5798660252765322,0.0026830764403938966,0.23732772971544508
98.33737842260575,610.3076923076923,36.129578630225055,,,,,,,36.21758106630775,36.35458216483646,0.059198956666615295,0.05934315022208228,609.0,31.1346,0.05112413793103448,41.25,0.9975701735595875,581.8,638.0,10.76923076923077,31.538461538461537,523.0,715.0,7.647058823529412,140.625,,,0.04991035827221034,0.022652379652083922,0.005089154350111622,0.07765189227440589,2.2033163419817043,0.6427449069217445,0.2917170333986846,-3.7874903706695493,25.706571575959373,43.61709949895281,0.5893691206261102,3522.498479856104,1.6967295452087143,4.253820924322248,296.0256855847258,0.6076923076923076,0.6141732283464567,0.8589743589743589,0.23076923076923078,48.8287693830419,48.87579136618513,48.778239036839146,55.118110236220474,0.5940039359143318,0.40599606408566813,19.81476722043436,16.381558800981058,0.346513419747952,0.6534865802520479,25.67537594024567,35.259416317185455,0.4103288077745998,0.5896711922254003,22.933053979713932,27.491652440137205,0.9885328035248702,1.2543408545738752,1.3440728015425414,1.063881301881134,0.783087917832205,1.0634871681447051,-0.7233774804031191,0.0009467194142703336,0.13069792903313848,0.6399472401098305,1.1478833376748925,6.165245336372912,0.952005847691944,1.2963296768364652,1.2577497504292283,1.4339276109277523,1.7701455826049053,1.7603025914679686,2.3999688970451567,0.9183096370883364,Relax,1.333453644462362,0.8074090066390394,1.8075728904257007,1.403868387106181,2.2000191801525784,0.5275909907326213,-1.0,0.0005042707632412223,0.03981681591160378
98.94468634510936,606.6615384615385,36.37435715005702,,,,,,,40.654337945641785,40.8108287138362,0.059958238398136236,0.06701321143374118,605.0,34.099799999999995,0.05636330578512396,46.75,0.8947226541652836,576.8,636.2,14.615384615384617,32.30769230769231,517.0,715.0,8.125,140.625,,,0.049334330112476774,0.02908056005417564,0.006473318233067855,0.08488820839972028,1.6964711140558972,0.5811682334037732,0.34257478868256414,-3.537685367417828,28.857613729396245,42.69452177882404,0.6759090517254434,3870.636984059027,1.4794889896018193,4.2947525519568455,252.664299552341,0.6307692307692307,0.6377952755905512,0.8765432098765432,0.23076923076923078,49.22202274087372,49.19815456783635,49.25061475840546,54.330708661417326,0.5663061423586357,0.43369385764136426,21.71737855382182,19.005241875598426,0.38194236384694447,0.6180576361530554,26.385848784749296,33.56499923775992,0.4397607130419972,0.5602392869580025,24.164618219016578,27.274607170230922,1.0696045580362248,1.313376552111638,1.4472586040483475,1.3511714901959913,0.4647168518227467,0.26277977451369505,-0.573160369505507,0.0011175270966096251,0.14747001557076198,0.6161402539130258,1.1376416325738448,6.233680697543988,0.9461184277003082,1.1011800673247012,1.277874577424985,1.4180955811183795,1.7551842128790847,1.7675167227849387,3.1363568846672916,0.9183096370883364,Relax,1.0624458126477638,1.8782207627781429,-0.7453456209126257,0.19376476047644575,1.0,-4.525882860255191,0.0,0.0026257647281095775,0.26931877179273445
99.69254028174397,602.4274809160305,36.18521383836883,,,,,,,40.719396247602084,40.86515268095114,0.06006567592724495,0.06759219580369337,604.0,34.099799999999995,0.05645662251655628,45.5,0.8886480933640988,570.0,630.0,15.267175572519085,35.87786259541985,516.0,715.0,7.705882352941177,125.0,,,0.05860453300614129,0.0345451766001976,0.007490436836925997,0.10064014644326488,1.6964606574281074,0.5823176443724587,0.3432544349453245,-3.3654873448761973,28.896026574924168,41.721500829725606,0.6925931713927322,3787.458853933843,1.4438490607539558,4.285318033424218,240.9581991449788,0.6030534351145038,0.609375,0.8461538461538461,0.17857142857142858,51.82944396427543,51.80325974432076,51.856627228430966,55.46875,0.6387457144315214,0.36125428556847855,23.100807059964495,17.372793485458004,0.36003449145653726,0.6399655085434629,25.034099665223554,33.37630125457954,0.4504224298774011,0.549577570122599,24.0868577534519,26.60630976784285,0.976164759522208,1.3248684966735542,1.379891971162106,1.1954847064200136,0.6877115077000351,0.6595860755235528,-0.6391891083568653,0.0013815523201083455,0.16260150805122972,0.6316698268841918,1.1424149113265025,6.220222047239887,0.9518732144076568,1.1975596467761385,1.2906406965918846,1.4190440972952445,1.7567442409208376,1.7766053767900374,2.543342739734813,0.9664245345623977,Relax,0.6598585589946039,1.5579842044303978,0.8446677004358607,0.44178397292873345,1.0123240166983671,2.3994771684660634,-0.758592947451879,0.0023592378484672124,0.22610991658433638
99.85556578602416,601.3053435114504,33.85600574600318,,,,,,,38.7005267306631,38.84824303467707,0.05630418241137495,0.06436085617444068,604.0,32.6172,0.05400198675496688,41.0,0.8748202829802436,571.0,627.0,12.213740458015266,33.587786259541986,516.0,710.0,7.277777777777778,125.0,,,0.06591274093956119,0.035388622715624214,0.007683644374229748,0.10898500802941516,1.8625404404467105,0.6047872283660454,0.3247109245160838,-3.3413649027139596,27.469856087003215,38.56127595889193,0.7123689609308397,3327.803335993024,1.403766945001812,4.229127762731704,216.5241781927422,0.5877862595419847,0.59375,0.8289473684210527,0.14285714285714285,50.792663972645315,50.65986602337452,50.93296247318023,55.46875,0.6395110551860506,0.36048894481394933,21.968617504038793,16.49395003014436,0.3570520782653204,0.6429479217346796,23.041841163409817,30.91998640649782,0.4521446119724233,0.5478553880275769,22.511625876850463,24.779991394014942,1.0013526247718878,1.0900874916366048,1.3564099654940365,1.181948815561863,0.8021855790527419,0.562560343290821,-0.6600432545742232,0.0011610593203379587,0.12070286472131463,0.6716843368720609,1.340250422618484,6.108527891165464,1.0284150245481258,1.2359703563364268,1.3835122196968703,1.5770869896868338,1.7712706404284082,1.7447292904120675,3.066896650948669,0.9127342826422644,Relax,1.008721071219583,0.3647831214373496,1.328870719525102,1.1464791588064271,1.8240038781788632,0.8240038781788632,-1.0,0.000785053603646533,0.026560316873977842
100.2148172549508,598.7727272727273,33.19169189459639,,,,,,,37.57526797454383,37.71661492884977,0.05543287191081155,0.06275380668336478,602.0,31.875899999999998,0.05295,44.75,0.8833387939397481,568.4,623.8,12.878787878787879,36.36363636363637,516.0,710.0,7.764705882352941,125.0,,,0.06638381958634341,0.03876722662613539,0.010294966456194704,0.11544601266867352,1.712369580278151,0.5750204623945127,0.335803946190815,-3.2501800638756375,26.669674179591443,38.47631601020256,0.6931452110051177,3223.7478512703346,1.4426991402709362,4.215331175636905,222.03899211484836,0.5909090909090909,0.5968992248062015,0.8311688311688312,0.13793103448275862,49.0782713810819,48.99559055988825,49.162611286762846,55.81395348837209,0.5785498407755232,0.42145015922447676,20.28716911669124,17.31506680499785,0.3636266150308189,0.636373384969181,23.201780538633056,30.693717167428225,0.4333828496861001,0.5666171503139,21.79325412750609,24.919026987581365,0.9556991238668369,1.308698087078266,1.3031460184966845,1.2632078411225116,0.3448986669278824,0.0931283810696999,-0.5305174873933963,0.0009148801686978749,0.13710670720988316,0.6867104942161433,1.4261856901471923,6.178456524481194,1.0932074507711032,1.32761726111996,1.3078279702602063,1.6863716649130696,1.7896944787654474,1.7558066395356742,3.293326341558163,0.9605991980943345,Relax,1.2537494339911988,2.106914860893206,-0.8334213321804396,0.22003609826616333,1.0,-5.0793938155297305,0.0,0.0026520554833754594,0.32636163235931687
100.75499493389184,595.4736842105264,34.20118262782657,,,,,,,35.87562690825912,36.0076584754875,0.05743525454558112,0.06024720799513198,599.0,34.099799999999995,0.056927879799666105,47.0,0.9533264105819133,565.4,622.6,11.278195488721805,34.58646616541353,509.0,710.0,8.866666666666667,54.6875,,,0.06600197469111496,0.043415133368738,0.0148367067978452,0.12425381485769817,1.5202527222602316,0.5311867065546745,0.3494068445178865,-3.136947203523585,25.461259482666474,40.62839587045304,0.6266863098373803,3249.820927725798,1.59569466302765,4.218829541019693,259.32205783142615,0.556390977443609,0.5615384615384615,0.8082191780821918,0.0967741935483871,48.80952380952381,48.67433021977317,48.93996474954866,56.15384615384615,0.5687966472818026,0.4312033527181975,19.205000939044556,16.72156353403894,0.34836695434353177,0.6516330456564683,23.97994326537884,32.79678142738183,0.41053713298878697,0.5894628670112132,21.72406200598187,26.031130968691684,1.047057220403748,1.178128764583302,1.3810698393275587,1.1465324998198525,0.8168297653066894,0.9767801001425087,-0.699076150721658,0.0008688598053940357,0.11726956572467699,0.7004690229145369,1.466337068793427,6.245893409247472,1.084599321383515,1.5840169350820998,1.2643461255778705,1.7174066728222375,1.7802232460293077,1.7369717766704922,2.972401637039669,0.9018030180715806,Relax,0.859147661553822,1.54829512056183,0.7085873394817814,0.46865285356966335,1.120622072025644,2.9924933996520853,-0.6549668940537984,0.0040023876213783624,0.27659842711672505
101.42536353423348,591.9104477611941,36.46905428029022,,,,,,,36.83339854154516,36.97200790972458,0.061612452387398375,0.062227991887728214,594.0,40.0302,0.0673909090909091,54.25,0.9901083181112386,559.2,622.4,13.432835820895523,35.07462686567165,516.0,710.0,10.307692307692308,125.0,,,0.07002401131053616,0.042151383098516494,0.017627686748679067,0.12980308115773173,1.661250620101257,0.539463398603348,0.3247333015715994,-3.1664877813474472,26.143157507048926,44.583735835226854,0.5863832856822305,3661.7135652519705,1.7053692088725638,4.270654478901855,304.12692123961676,0.5895522388059702,0.5984848484848485,0.8354430379746836,0.1,50.438198851616804,50.4305269165038,50.447453382468055,55.3030303030303,0.5751076529170199,0.42489234708298024,19.826233768785876,17.04139345561539,0.3979873649652728,0.6020126350347272,28.126202492151197,34.59228576425382,0.4433077410130072,0.5566922589869927,24.332722947545733,27.267520287925784,0.9780650756232728,0.7754843917962473,1.3273687234428297,1.0095886683693442,0.9963127362661532,0.7724336838710404,-0.909782657697874,0.00106050524427659,0.07157339831930885,0.6900260639112608,1.3975939163738236,6.274007358462115,1.0558306354034879,1.4514626525733347,1.1524226714199581,1.609791236958841,1.8668279437296516,1.752861989983203,2.7021066125663666,0.7909801332601983,Relax,0.8261722412178355,0.7240951757840808,1.3661373991417465,1.004089811249706,2.375199084828628,1.375199084828628,-1.0,0.0028594703613383688,0.12137635035359151
102.15081305623198,587.6962962962963,37.27254883460442,,,,,,,37.41787026175292,37.55780865724933,0.06342144585477,0.06366871885625788,591.0,40.0302,0.06773299492385787,53.5,0.9961162560527386,552.8,620.2,13.333333333333334,36.2962962962963,516.0,710.0,10.384615384615385,125.0,,,0.06839064421035018,0.03990165417077464,0.018600261200524933,0.12689255958164974,1.7139801752991453,0.5389649671803163,0.314452276022533,-3.2213374980315237,26.55738118804782,45.66353314686246,0.5815884001492901,3809.8215255371415,1.7194290665757883,4.287874741204372,314.0608247010491,0.6,0.6090225563909775,0.8518518518518519,0.16666666666666666,49.63460976322713,49.62121480991333,49.65165187772468,56.390977443609025,0.57287074989473,0.4271292501052699,20.101060459064026,17.356825703343358,0.3949149033549331,0.605085096645067,28.695994015058204,35.520391142868206,0.4398945613923897,0.5601054386076104,24.77410648329424,27.954942187729444,0.9052618490693375,1.5729485421089295,1.2411544933375702,1.264023294038482,-0.15054644785331917,-0.1846433642748493,-0.48546118955026313,0.0005821092736606512,0.15396910795353774,0.7231305330144662,1.4904346203724876,6.340637241604504,1.0457944750268593,1.203943326657925,1.1124081209303882,1.5424694597499409,1.8625203592197368,1.7791305122556038,3.4635445570943713,0.7863128441167591,Relax,1.136621368281325,1.4929413709841088,-0.22102866172415592,0.5254420237678985,1.2948741567664914,-2.825350802085474,0.0,0.00036202775727238874,0.1104918963812503
102.30973848455598,586.6641791044776,38.48873363713383,,,,,,,39.62540766138346,39.77521425678223,0.06560607415282374,0.06754359490956183,587.5,40.771499999999996,0.06939829787234042,55.5,0.9713145153240311,549.0,620.4,16.417910447761194,41.7910447761194,516.0,710.0,11.166666666666666,125.0,,,0.04920686639428813,0.0349677751739689,0.016266244136846374,0.1004408857051034,1.4072060961693453,0.489908726400129,0.3481428397259961,-3.3533283509210623,28.125323724118555,46.84004062051516,0.6004547253061119,4138.706847899145,1.6654044973835451,4.323834775587338,312.03045722813556,0.5970149253731343,0.6060606060606061,0.8375,0.16666666666666666,50.040661425860655,50.01759475625425,50.06626054386988,55.3030303030303,0.5686649140700943,0.4313350859299058,21.209274700784402,18.47162032891965,0.40745771228801275,0.5925422877119874,29.899128814741655,36.05594959851974,0.45017777545344145,0.5498222245465587,25.92094941561601,28.64639819442187,0.8948490713482368,2.184860331078704,1.206561178464578,1.400459136213793,-0.922234671427038,-0.39594640720150487,-0.4112538430987558,0.0008745278391281658,0.25794098191335685,0.678065703876682,1.4828322881625378,6.348634224133758,1.098628871283887,1.2102127652135055,1.1543717448004147,1.5094287644115219,1.90548911992066,1.8020545805236865,3.1978351127352034,0.8437121421442116,Relax,0.9861347703991459,1.7517813708317664,0.8115638773314655,0.39056178232072725,-0.41476508172897386,2.8389139411415356,-0.7403279895657536,0.0026016350428303392,0.1845527116315231
102.37048984623236,586.7481481481482,40.81789162114818,,,,,,,45.22712170051763,45.38907722432734,0.06956628964228458,0.07708097902526012,586.0,44.477999999999994,0.07590102389078497,60.5,0.9025091601325806,547.0,621.0,20.0,44.44444444444444,516.0,710.0,11.25,125.0,,,0.019097575677353856,0.01715615356877365,0.00772945495898198,0.043983184205109487,1.113161851856691,0.4342017528402436,0.39006165376222657,-4.065398361051779,32.094924297121736,47.08627952676145,0.6816194572960603,4747.670878095016,1.4670942698245946,4.383450714772262,276.3200435242834,0.6,0.6119402985074627,0.8414634146341463,0.20689655172413793,51.33206470028544,51.1875369425997,51.48925239387781,53.73134328358209,0.5649845309672524,0.4350154690327476,24.128415843727073,21.172048533331495,0.4352979987074304,0.5647020012925695,31.066169803697083,35.38376482795711,0.476447026892717,0.523552973107283,27.814450896970445,29.157044196025073,0.8564206985785277,1.3226210696404697,1.1538087345895076,1.109837695064179,0.30803314829310047,0.32668964962679503,-0.5332453795986187,0.0005917875640714679,0.11758945947727159,0.7589816826985807,1.4836685251450668,6.356191800642356,1.1046376323541391,1.1396001573625334,1.2520341128590113,1.6082285996333874,1.9292679727813153,1.848633605724717,3.770526920915775,0.8911545566656601,Relax,1.4013662507579552,0.5517610771396351,1.6361133381070005,1.360232799537183,1.4842067533885412,0.4782538006957231,-1.0,0.0005357283570079538,0.039047705351994776
102.26383118743581,587.0074626865671,40.355468695878265,,,,,,,44.788475289933594,44.95529411425891,0.06874779497893042,0.07629966931757462,585.5,41.5128,0.07090145175064047,54.0,0.9010234984477878,548.2,620.0,20.149253731343283,41.04477611940299,511.0,710.0,10.307692307692308,125.0,,,0.019669214260408588,0.01869217543528755,0.0076446446032054785,0.04600603429890161,1.0522699366108323,0.4275355300701975,0.4062983415141658,-3.9796502686066004,31.788193318428164,46.419697085525684,0.6847996715674427,4635.728793813093,1.4602810741878616,4.3730881302654865,271.14322049410634,0.5970149253731343,0.6090225563909775,0.8148148148148148,0.2222222222222222,50.778739184177994,50.69995061424501,50.86895133386743,52.63157894736842,0.5100693780711324,0.48993062192886777,22.704124575223613,22.25140445005663,0.4587772283262526,0.5412227716737477,31.44149795392767,34.14997048205348,0.47515307904120646,0.5248469209587937,27.4230292483718,28.821393824077315,0.7594446321505087,1.8269035235999143,1.150450971094187,1.4144001606488348,-0.7605775430448407,-1.2458286549901345,-0.35552100253518826,0.00126583176840696,0.23913807793673766,0.8101516517531393,1.4600378353654397,6.366279955302418,1.1122448009826822,1.2129501801024336,1.2720085549802718,1.745154615526794,1.8291430335738341,1.858909167254563,3.4405298042424426,0.7909801332601983,Relax,0.4976621944104054,1.2695641038710308,0.7277080210455013,0.3416909055764505,0.49179197170329214,1.425907936066986,-0.80405484393584,0.0006715958713445175,0.09856207604796687
102.4881209700592,585.7407407407408,41.054743751749754,,,,,,,49.69699231116627,49.88257336560667,0.07009029916517505,0.08484469126787791,584.0,42.9954,0.0736222602739726,57.5,0.8261011751917487,546.8,618.2,23.703703703703706,46.666666666666664,511.0,710.0,10.384615384615385,125.0,,,0.03086544336348438,0.03299229466227159,0.014550668645510183,0.07840840667126617,0.9355349083609097,0.39364966938928303,0.4207749661409976,-3.4114812398625567,35.272305889855936,46.139864605612594,0.7644648763352744,5112.814551873569,1.30810457217321,4.415630150574383,241.42307140021876,0.6222222222222222,0.6343283582089553,0.8235294117647058,0.21428571428571427,49.56502827316224,49.54592866864639,49.58580079937544,51.49253731343284,0.4919535159177161,0.5080464840822837,24.740229331362737,25.14162890028008,0.4549612857108622,0.5450387142891379,31.121716128759395,34.0635566408615,0.4686061383234723,0.5313938616765278,28.11263205542576,29.93682844578378,0.735154536279914,1.77719232804486,1.068096790632568,1.3452662515124123,-0.798942934091146,-1.1803999289255414,-0.34404081848318224,0.0009424868363960768,0.20997586787334555,0.7905064351322673,1.4714521694601974,6.402596708097841,1.1817131225751434,1.0039581587948396,1.3328593772961477,1.7808538441638038,1.835306988020299,1.9016126971742722,3.51927911705397,0.8387337003912095,Relax,0.7191306930146018,1.076293182074771,-0.11983655639176716,0.41831003464561833,1.810302982940796,-2.169340124925592,0.0,0.0019104786896870566,0.09676434439232762
102.51344427431118,585.7777777777778,41.47228289781283,,,,,,,50.756442132112134,50.94677459191815,0.07079866200309473,0.08664794749412162,585.0,42.9954,0.07349641025641025,58.0,0.8170841208661968,546.0,619.0,24.444444444444443,50.37037037037037,511.0,710.0,11.25,70.3125,,,0.026110444715356684,0.03504180144468549,0.0172541290620225,0.07840637522206467,0.7451227858982303,0.3330143070816113,0.4469254106625787,-3.351213603142829,36.02480979352782,46.444608945989486,0.7756510521042632,5256.381519510764,1.2892395327603832,4.427656989687979,239.5129037470648,0.6518518518518519,0.664179104477612,0.8539325842696629,0.23333333333333334,49.842800251519606,49.85522233842229,49.832565437902886,51.49253731343284,0.501649706123466,0.49835029387653434,25.515438345930143,25.431390821143548,0.45661937521916035,0.5433806247808398,31.384302295969608,34.236344278282445,0.47353452310658695,0.526465476893413,28.60080439943749,30.156947032473525,0.7190019885061589,1.3901736794793582,1.0813160769795662,1.2567315779533206,0.09661849518015941,-0.6051556678986001,-0.3738175642633012,0.0018615863494686174,0.19361409588073836,0.7362418729770202,1.4244461270842668,6.332153930288009,1.1943295373289065,1.1789222087290567,1.411941634934087,1.6735491661853938,1.8153300956558596,1.902584244081535,4.413820979000266,0.9435754129401108,Relax,1.189100061607191,1.760624266114485,-0.2112491509954122,0.6690629820618303,1.7921058570893482,-2.1499127281877666,0.0,0.0002718321925340909,0.12806533198716266
102.7150420073771,584.5220588235294,43.564335891366156,,,,,,,55.34859227357699,55.55105321722887,0.07452984063432666,0.09469033963402064,579.5,48.1845,0.08314840379637618,60.5,0.7870902240121371,545.0,619.0,29.411764705882355,54.41176470588235,509.0,710.0,11.333333333333334,70.3125,,,0.017268936205312856,0.024449505936044252,0.013888691951090885,0.055607134092447996,0.7063102318094057,0.3105525304829214,0.43968289923728937,-3.711145270380177,39.280526431957306,47.30078646514365,0.830441296381054,5837.078500048983,1.204179036324252,4.473165643927914,227.83446185190357,0.625,0.6370370370370371,0.8255813953488372,0.22580645161290322,49.19686215913335,49.127709927259474,49.266861309707615,53.333333333333336,0.5175110259981429,0.482488974001857,28.259590896046962,27.286621291258054,0.4292009737364551,0.5707990262635448,30.988368449761648,35.736331947234504,0.4652480254768738,0.5347519745231262,29.655382789555453,31.79343582042896,0.6575369972082405,1.910085471460942,1.0459298108617556,1.3938014174199065,-0.5824787195209904,-1.131097156174906,-0.31787641874890615,0.002505700532217005,0.31928088305725816,0.7320602943046497,1.6158688027643908,6.377688392625483,1.2775356240745928,1.2073145518425246,1.4097704999860277,1.6751236699467995,1.8378596732942545,1.9177198834933957,4.607589122313509,1.042273947242697,Relax,0.429855999074899,1.0004708845634187,-0.42559283633548617,0.07464260594622318,1.0,-2.25288474141894,0.0,0.0018491361794706039,0.14764834598940316
102.86739893074038,583.8518518518518,43.08521901175995,,,,,,,55.61836913353921,55.82672947153383,0.07379478008865255,0.09526109912494028,577.0,44.477999999999994,0.0770849220103986,58.0,0.774658079389432,545.8,619.2,29.629629629629626,55.55555555555556,511.0,710.0,9.0,70.3125,,,0.01781278157742341,0.01868219397700519,0.011534131354847271,0.04802910690927587,0.9534630461148254,0.370874720012402,0.3889765015263503,-3.980184402489078,39.47545898078846,46.54936454660272,0.8480343258234547,5772.857239125105,1.179197550793695,4.468360927632461,219.5635866574271,0.6296296296296297,0.6417910447761194,0.8372093023255814,0.21875,50.24362818590704,50.22482476275415,50.26402418357174,52.23880597014925,0.525458607146648,0.4745413928533518,28.61535157681383,27.193611036473392,0.43721308635651895,0.5627869136434811,30.779412993071052,34.920926040047725,0.47412833091741907,0.5258716690825811,29.717087761611946,31.296673598782753,0.7180872581210501,1.6940523318967924,1.0771528584619539,1.311800967917497,-0.2712755073631783,-0.7130496698330169,-0.36148709515200583,0.0017847756419918338,0.24066146343696623,0.7356994804421402,1.7635885922613586,6.376598374732454,1.2660722109586493,1.1693593628230636,1.3627759978228942,1.7154748109476807,1.9022938528307924,1.9146455284107993,4.820288216287916,1.1008379817634626,Relax,1.2915867345603902,1.5163513892480984,2.2352395946262043,1.9026256574275522,-2.0390323477630137,-3.0390323477630137,-0.7193514903980025,0.004209781735988246,0.31792321211811697
102.65382550983361,585.0882352941177,44.114072767338136,,,,,,,58.47930941478045,58.69709843160616,0.07539729925549171,0.09994955613042454,580.0,42.9954,0.07412999999999999,59.25,0.7543535176595032,546.0,619.0,31.61764705882353,56.61764705882353,511.0,710.0,9.714285714285714,125.0,,,0.010466750340021884,0.015158530036738622,0.011145888023823268,0.036771168400583774,0.6904858396331561,0.2846455741084288,0.41223955332618606,-4.18919186674497,41.50511633696298,46.81886753332861,0.8865040639314274,6104.8136676900285,1.1280264137371756,4.492642522824349,211.25167695542623,0.6397058823529411,0.6518518518518518,0.8522727272727273,0.21212121212121213,50.044318383265384,50.01791811974856,50.07290721229036,51.85185185185185,0.5406268884956366,0.45937311150436344,30.51761174904864,28.130957080566183,0.43182165435341985,0.5681783456465803,30.766147166611407,35.29094141030784,0.47970194456376336,0.5202980554362364,30.642131439761684,31.91239016349635,0.6002790216379483,1.7677258222647247,0.9990347623409304,1.2068794118596042,-0.016522223687704063,-0.3972296458631206,-0.38242257543514674,0.002969353922796002,0.2966570428412881,0.6951819193994786,1.6471782404169475,6.351146918548742,1.2579411696302334,1.3846909297260084,1.4347448140952508,1.6546479847817483,1.9672882352174548,1.9591870389336552,3.8786981231059885,0.9901602498805621,Relax,0.5809436858826982,0.9008916503346911,1.079712333618946,0.6292665084516005,2.5370235916799055,0.7268243843731219,-1.0,6.54286996283548e-05,0.02481155706713044
103.03041787546424,583.0073529411765,41.99197389334889,,,,,,,57.0146829691622,57.22656474530311,0.07202649105797083,0.0977941061661272,579.5,39.2889,0.06779792924935289,53.5,0.7365115739758,546.0,614.0,30.14705882352941,56.61764705882353,511.0,702.0,10.461538461538462,132.8125,,,0.00806334554067279,0.017742690729014535,0.013337861379651782,0.03914389764933911,0.45446013030519894,0.20599240302808552,0.4532683711764737,-4.031781637784136,40.465291995414844,43.52044244950356,0.9297996462781005,5532.556442409636,1.0755005167004577,4.449895963198594,187.22503336589446,0.625,0.6370370370370371,0.8604651162790697,0.17647058823529413,50.282795110381315,50.249348919075985,50.31675904345232,51.11111111111111,0.5328535847835549,0.4671464152164452,29.538616263228523,27.657486638597135,0.46531518610364736,0.5346848138963526,29.687041199956436,31.82308118005926,0.49663105925585643,0.5033689407441434,29.61292172307707,29.813126831622515,0.5665926911893394,1.8242211456793385,0.9711026082608876,1.1309560240751702,-0.07364522999368006,-0.26432509900176315,-0.4123716901358726,0.0022537676929589245,0.2840438344625528,0.7267926402892875,1.678430783921052,6.330890392797539,1.306977655092829,1.56464535237769,1.518864889493561,1.761228649722275,1.9587409132096365,1.9534231135857194,5.441827429704915,1.0943876446048317,Relax,0.8181067249734673,1.0763237827706176,-0.1452215689919023,0.3929403223934065,1.3180841200157012,-1.8063166924064094,0.0,0.0004359864045614102,0.06667869989209504
102.77899137894462,584.4962962962964,45.42483936082031,,,,,,,58.80330227299276,58.9900585824319,0.07771621419786257,0.10060508962264465,577.0,42.9954,0.07451542461005199,55.5,0.7724878978724138,546.0,614.2,30.37037037037037,54.074074074074076,509.0,776.0,10.384615384615385,70.3125,,,0.015366828979369668,0.024584593460161785,0.01746479763938486,0.057416220078916315,0.6250593081504852,0.2676391611681955,0.42818202637462444,-3.705635314347624,41.71227044622929,45.792718799510695,0.9108930751382902,6000.81352776591,1.0978236933552072,4.485180241457008,201.08932672502104,0.6444444444444445,0.6541353383458647,0.8850574712643678,0.17142857142857143,52.435686918445526,52.24808120747612,52.6610427497911,49.62406015037594,0.5780480803886486,0.42195191961135115,31.73184164898234,27.110952757114536,0.5069934646083261,0.4930065353916739,32.60600641983592,32.15309379205488,0.5392348431210039,0.460765156878996,32.17189323840354,29.739075303371276,0.5232067900356886,2.03484778510321,0.9914934830926518,1.2006898535971975,-0.2162825180943262,-0.4553838298212052,-0.3971931109363373,0.00327663144420073,0.37696054091216835,0.8513454695432978,1.951187206156157,6.345008282091785,1.2478816409775526,1.3592714089837232,1.2675134977886853,1.6308962343638786,1.9009536264442575,1.9372426476983706,2.610725328432899,1.048417125489012,Relax,0.9552495674266404,0.477423252470196,1.0920233861573747,0.9692915806493686,-0.6159507857378888,-1.6653243831234241,-0.757071277682831,0.0004338903683576657,0.0226688481603724
102.52605145164183,585.7313432835821,45.37565247222091,,,,,,,59.205072430525405,59.4274612345256,0.07746837008558763,0.1010788872909286,583.0,42.9954,0.07374854202401372,57.25,0.7664149473926795,546.0,616.8,31.343283582089555,55.223880597014926,511.0,760.0,9.571428571428571,109.375,,,0.013721335324601628,0.015029159135718555,0.006474626404337449,0.03522512086465763,0.9129809060302828,0.38953266838521017,0.4266602574186691,-4.197763022509583,42.02156082763373,48.59632920887025,0.8647064811628522,6415.426263798666,1.1564617841827736,4.514195627705522,224.79919032649414,0.6343283582089553,0.6439393939393939,0.8705882352941177,0.14705882352941177,49.50548462506743,49.48382278715659,49.53021377683601,51.515151515151516,0.5396881575814517,0.46031184241854856,30.871250232361675,28.510763517724957,0.4652879792570825,0.5347120207429172,33.148538227000884,35.53558253342638,0.49711913029165394,0.5028808697083461,32.030139536817735,32.215223593462724,0.6676011762993449,1.4290026770931,1.0104658381461604,1.1502402138953027,0.14802107801374742,-0.3673741345166164,-0.40218746403367595,0.0015571408723810836,0.18762213373042627,0.8105207634014033,1.885946684287756,6.296994787278953,1.2508997915945401,1.4980936038245678,1.383356895934812,1.7845752914358815,1.9075863873924692,1.9354765533446359,4.370886080146379,1.0019081687962512,Relax,1.4387500353669371,3.6362516427439626,3.4992515415677428,1.6811257201957615,6.921767257889012,4.013307330766441,-1.0,0.0005278551454751224,0.517291968282233
102.66690673742153,585.562962962963,46.37462755330304,,,,,,,61.14962076254427,61.37146929849332,0.07919665430792666,0.10442877133677596,583.0,41.5128,0.07120548885077187,54.0,0.7583796428335122,545.8,614.6,31.851851851851855,54.81481481481482,511.0,760.0,10.384615384615385,109.375,,,0.030419843696649605,0.03204687810790799,0.014878792074840195,0.07734551387939778,0.9492295503549567,0.3932981005735152,0.41433402534344255,-3.440555507289369,43.39618211234663,48.573309843292876,0.8934162043383767,6622.151215692644,1.119299152113045,4.527969203531431,217.47225809168776,0.6444444444444445,0.6541353383458647,0.896551724137931,0.14285714285714285,51.12428098309222,51.02150454723602,51.22768120870479,49.62406015037594,0.5683297309919111,0.43167026900808875,32.71941549563408,28.51552802151601,0.4692736918271351,0.5307263081728649,33.27444356517518,35.386124887595486,0.5132493437779544,0.48675065622204555,32.998096497737315,32.134974505251826,0.6840071891594154,1.6636866593027624,0.6519853357620331,1.383912951679324,-0.5273524482558969,-1.2634773139929518,-0.060056810082232744,0.001965401119682403,0.245548164654079,0.83945176213903,1.9252908618525777,6.302715645465512,1.2411343837416642,1.1965187864913889,1.378098199598829,1.8745396713087277,1.8516197100433298,1.9322442564382616,3.2195883224029656,1.1008379817634626,Relax,0.7879109885486092,2.038070930473989,0.8418833168915401,1.742437216291517,-2.570192996342893,-3.229977414993945,-0.05813417191003385,0.0042074975065524885,0.37060336432187735
103.01772824349617,583.2794117647059,51.01905107883476,,,,,,,67.96175395029178,68.2145535634088,0.08746931581980091,0.11651663435997885,583.5,44.477999999999994,0.07622622107969151,59.5,0.7507023894078843,542.0,616.0,33.088235294117645,54.41176470588235,396.0,760.0,9.714285714285714,226.5625,,,0.0574815953005891,0.05119839142491304,0.02895895035028934,0.13763893707579147,1.1227226813344504,0.4176259750461209,0.3719760738686933,-2.9720471649123814,48.234973400299324,53.54953741569619,0.9007542497680084,8114.609771664615,1.1101807182786565,4.6162377495784295,237.79865564658957,0.6617647058823529,0.6716417910447761,0.9111111111111111,0.17142857142857143,49.77250568735782,49.64393768425547,49.89774604904449,50.74626865671642,0.5553935766545104,0.44460642334548967,35.94715233775869,32.162657961744685,0.45476382367062707,0.5452361763293729,36.111761899707645,39.54103703665181,0.49983894800949724,0.5001610519905025,36.02955112609097,36.04115825759522,0.5723864242584787,2.1662843548327966,1.0344543206417747,1.0698254245890946,-0.24041800849449402,0.16711272582383252,-0.4836719939981979,0.0017436326224560454,0.3288560719401847,0.8644252656128786,1.8004931491968095,6.370191701385383,1.172870716077045,1.3187856703707017,1.3670831138933537,1.96068489926805,1.6980669828057422,1.9442053094895573,3.1253961813633935,0.9901602498805621,Relax,0.15511928733471864,0.8088701277045021,0.035715369390662444,-0.0758868263096123,1.038157964865831,1.6938448107611446,-0.637972947544733,0.0006453531381114889,0.062087974064487156
101.8324337394557,591.2462686567164,110.20796721927128,,,,,,,154.67732603057866,155.25994012908112,0.18639942958060196,0.26161235043731984,585.0,45.9606,0.0785651282051282,58.5,0.7125024077380541,542.4,617.0,33.582089552238806,55.970149253731336,396.0,1705.0,9.571428571428571,226.5625,,,0.057138729660730365,0.05539829886474671,0.03259748040824665,0.14513450893372373,1.031416683032684,0.393694994254075,0.3817031474578149,-2.8932063921128646,109.78535651189063,111.20117105630025,0.987267988898311,38353.380585567684,1.0128962057362931,5.290773759992586,450.5409769454361,0.6417910447761194,0.6515151515151515,0.8953488372093024,0.1388888888888889,50.65845112963634,50.4549947103206,50.941660509328834,50.75757575757576,0.5439245639975675,0.45607543600243255,80.96920009260535,74.14277790285117,0.45474063500781287,0.5452593649921872,74.98790884105242,82.11281247124934,0.4987618659742739,0.5012381340257261,78.03588224653564,78.2293598564186,0.43357558257355533,2.5010302708678713,1.0312124029056724,0.9502014842939822,-0.12497328807544505,0.5318414382349042,-0.5323910188354413,0.0026376330696559094,0.4709676045480266,0.9244941176629213,1.0000960920775588,6.4090809813733856,0.7518531124938996,0.7516320692745087,1.2201517297569038,1.1427463594382736,0.9442902652316533,1.958368667305095,1.6544639082221035,1.0546401776802645,Relax,7.41679599433162,15.883067335092099,17.668363508132792,9.726829840586742,22.35915169354594,18.801331505646296,-1.0,0.37763888170556825,26.74181363817535
101.00780520248001,596.3458646616541,109.84279711235686,,,,,,,155.01453988499782,155.6044698617099,0.18419310608396328,0.25994066375046915,591.0,40.0302,0.06773299492385787,60.0,0.7085967367567393,547.8,619.0,33.83458646616541,53.383458646616546,396.0,1705.0,9.5,242.1875,,,0.04632134415465702,0.05496543900551659,0.014083437130511686,0.1153702202906853,0.8427358171378926,0.4015017396859117,0.47642657582716225,-2.9010506729820853,110.02897582215284,110.42670206535539,0.9963982783532994,38170.78092464156,1.003614740937382,5.288701155103274,443.30346394356445,0.6390977443609023,0.6461538461538461,0.9047619047619048,0.1388888888888889,50.352069178505246,50.05387884626815,50.74235942203876,50.0,0.5438338910966473,0.4561661089033527,81.14128663600648,74.313935898338,0.4548615223164191,0.545138477683581,74.47554710109489,81.53189199953209,0.49918736391178664,0.5008126360882135,77.87976474333358,78.00644358553227,0.6853210428810271,2.782673009181737,1.312329287829552,1.5361485062875522,-1.236546074780989,-1.1518417731315393,-0.4195668273924088,0.002504320265925982,0.5415222826579267,0.9397827670654797,0.9305192428725244,6.351907435338526,0.7430463233365728,0.7968089091726854,1.1987706996202643,1.1263011897128643,0.9084528239749616,1.8969877759944649,1.6662309079558184,1.0078974907858844,Relax,-2.072706993362092,2.7805725449572067,0.7078655515951147,-0.6824207208834886,7.203638018153193,6.362893284254389,-1.0,0.08470238637229294,2.268612548136797
100.37047365232412,600.1679389312977,109.74271678456745,,,,,,,156.09922879620268,156.70287659292828,0.1828533476479654,0.26009258187660644,598.0,32.6172,0.054543812709030096,49.0,0.7030317678753137,556.0,619.0,33.587786259541986,52.67175572519084,396.0,1705.0,8.733333333333333,242.1875,,,0.06507308965006933,0.09194935537494323,0.01123708108688293,0.16825952611189549,0.7077057733000938,0.3867423803796678,0.5464734003458165,-2.3865173385605876,110.8056666702983,109.48348075458475,1.012076579102169,38111.88593555629,0.9880675243834983,5.288030549973526,432.70828716028376,0.6564885496183206,0.6614173228346457,0.9285714285714286,0.11428571428571428,49.78797705163382,49.37902225427198,50.33313810201109,50.39370078740157,0.5429979928692876,0.4570020071307123,81.65103473237933,74.90686723985941,0.4523583053370304,0.5476416946629694,73.63594767976898,81.02086007592033,0.4982222168124338,0.5017777831875663,77.74684644268824,78.02377370754309,0.5903066033429116,2.50533430253938,1.2791220394019973,1.3184065418088966,-0.5651424854437685,-0.5225999888620657,-0.484319656515667,0.0033629025157579286,0.5058592185345681,0.8909924942839145,0.8933263547539063,6.23721107387487,0.7309994286643977,0.6726229848347118,1.251940070034149,1.1022341571175664,0.8528135718822395,1.8858746285311885,1.6867831089271694,1.073805038402664,Relax,1.2281130256178,2.527642644825594,-0.7556970947310535,0.5081242276817434,2.4517413914389214,-0.5207210615944624,0.0,0.002218318747465383,0.4230049421874053
101.16406029848,594.6315789473684,68.43836794763973,,,,,,,97.44722736544186,97.81832588301927,0.11509373260799742,0.1638783253623115,597.0,37.065,0.06208542713567839,51.0,0.7023121108513994,553.4,619.6,36.09022556390977,55.639097744360896,396.0,1108.0,9.5,250.0,,,0.0688528432829699,0.09306454048185908,0.021766238979528875,0.18368362274435784,0.7398397168940115,0.37484475890807106,0.5066567127292665,-2.3744620428482954,69.1680015561985,68.11385464965839,1.0154762479962716,14800.982969426115,0.9847596159665879,4.877260668871725,268.30309338720633,0.6691729323308271,0.6744186046511628,0.9425287356321839,0.1111111111111111,50.143934201507875,49.95021407376671,50.359440929930585,51.162790697674424,0.5598886927218666,0.44011130727813325,51.75551746225961,45.886725782664364,0.4317369320627071,0.568263067937293,44.75536040949958,51.346420613812874,0.4967968793402291,0.5032031206597708,48.38220681805689,48.69315410252258,0.5434272450025345,2.151378579245605,1.1073212307471452,1.088826264195346,0.03868174054902962,0.12958982686520848,-0.5085967977603851,0.0027259119214610374,0.39561737860942653,0.8550890463741174,1.3548781648865118,6.3718700070081,0.9856414671781921,1.329091948008296,1.3956205371199202,1.975057235134735,1.341000325011516,1.888169017698973,2.229189907841375,1.060944727143036,Relax,0.49676763642956345,1.625082617607137,-1.0657760608665938,-0.25323475206302537,1.0,-2.8214503045574837,0.0,0.005148509030903625,0.29725784868075233
100.41283531710774,599.6590909090909,109.50198363747248,,,,,,,155.40353773960467,155.9981405252263,0.18260706007385974,0.2591531423362746,595.5,34.8411,0.0585073047858942,49.25,0.7046299281870585,556.0,619.0,33.33333333333333,55.3030303030303,396.0,1705.0,9.428571428571429,226.5625,,,0.08081615524489445,0.1282520206286145,0.016082034572775496,0.22515021044628444,0.6301355319688698,0.35894328095320743,0.5696286953247703,-2.0537580396665662,110.30734301787945,109.21232209650117,1.0100265327241253,37846.51874846907,0.9900730006596135,5.284996047751325,432.5126857883485,0.6666666666666666,0.671875,0.9418604651162791,0.08108108108108109,49.366774273652844,48.945921033441046,49.979027547196495,51.5625,0.5434152083457133,0.45658479165428667,81.3159554785198,74.5367746097909,0.44907750590468737,0.5509224940953126,73.18672141361772,81.0619214331577,0.49671751830150823,0.5032824816984918,77.3581954503177,77.86772719062179,0.5828986705943128,2.2412695350612752,1.2527986198709726,1.1692589091808823,-0.22129750379073876,-0.15972844273231035,-0.5372733887572368,0.003309531893326286,0.4238138794503064,0.8796040727010648,0.8797331361403573,6.363528187684762,0.7045399609594337,0.8297783288060702,1.0875991002704963,1.0690077085217218,0.8660597086457594,1.8755087096536611,1.7417771573648346,1.0673324423270385,Relax,-0.1269022821469957,4.5314340832266025,1.0009640499951562,1.4585945082880782,-3.448715609605644,-3.0882751072491894,-0.3990097947166724,0.010776696555271033,1.4067634725017977
100.61152384122887,598.5378787878788,109.66871733488233,,,,,,,155.30381453512436,155.8984330670636,0.18322769739648978,0.2594719900595696,598.0,37.8063,0.06322123745819398,50.25,0.7061559798975772,556.0,619.0,34.090909090909086,54.54545454545454,396.0,1705.0,7.764705882352941,218.75,,,0.07308287449371934,0.11728491455292213,0.016940159423533923,0.2073079484701754,0.6231225454041011,0.3525329107399541,0.5657521354990181,-2.143149137280066,110.23683919807775,109.57502839032735,1.0060397959048928,37947.941013100804,0.9939964642258906,5.286158326796525,435.66876314974786,0.6590909090909091,0.6640625,0.9411764705882353,0.10810810810810811,49.43611352088238,49.0254516223137,50.034755438180575,51.5625,0.5457296356371405,0.45427036436285945,81.43664361377452,74.29991199911964,0.44791139911800404,0.5520886008819957,73.334384188425,81.417166141088,0.49711551564747014,0.5028844843525296,77.49147961993125,77.93982250917193,0.8047690937746897,2.0918012494727103,1.2359055626972504,1.250634153800391,-0.06728877328160188,0.24753828450353632,-0.4929588955418909,0.0020922693626909484,0.32454606391526397,0.8833857557973595,0.8951383568689283,6.305879396211756,0.7283734111882987,0.74045694307696,1.171961099766992,1.110906041788282,0.869932315242391,1.8778845835115126,1.7460337227639704,1.0673324423270385,Relax,0.4510646083755201,1.5461893513136058,-0.9147204341956868,-0.14162575853888398,1.4839630932690735,-2.3979044693977736,0.0,0.002408248450726854,0.18027218312989707
101.71850822285937,591.4104477611941,67.56519688325632,,,,,,,94.50460465369865,94.86144457040035,0.11424417194357464,0.1597952910900531,591.0,37.065,0.06271573604060914,51.25,0.7149407918359246,552.6,617.8,33.582089552238806,53.73134328358209,396.0,1108.0,8.933333333333334,226.5625,,,0.0587086689480077,0.07667080683147587,0.024320518852950366,0.15969999463243392,0.7657238964114549,0.36761847790372054,0.4800927326763014,-2.56823425803543,67.07717072888188,68.46952637764244,0.9796645935436877,14428.524874364017,1.020757519043078,4.866192042464077,279.5631355011875,0.6492537313432836,0.6538461538461539,0.9176470588235294,0.1111111111111111,50.28305995064595,50.08288010286892,50.504168591869956,53.07692307692308,0.5731365951109535,0.4268634048890462,50.78154341407074,43.824935824254204,0.41905614321378737,0.5809438567862126,44.32343697652702,52.18724917991473,0.49451416974430945,0.5054858302556907,47.661998578150886,48.18783029441412,0.6493867260359912,2.0811522136900207,1.1525520539194787,1.1444820382299707,-0.1608250596561902,0.06401678874802696,-0.5038776672058981,0.00207037945579056,0.3282722113519678,0.8125735542654611,1.2737061423406113,6.3031128400284615,0.941529424281252,1.0746281700156703,1.390951750181713,1.7445140805660764,1.3326257397301366,1.8625229680424689,2.0604510515376915,0.949176159912238,Relax,0.3084060875952032,3.9134465868609123,0.8682861911472001,1.6359354417195204,-4.023898553114924,-3.783127205260264,-0.30384317671547073,0.002957819074826489,0.8521073639802724
101.34650779525978,594.3007518796992,108.90877367906994,,,,,,,153.42303864765157,154.0075002830022,0.18325531868267886,0.25815723463649276,589.0,40.0302,0.06796298811544992,55.0,0.7098593186463199,551.4,617.0,32.33082706766917,49.62406015037594,396.0,1705.0,8.3125,226.5625,,,0.07856645937818943,0.12038723706192658,0.014114657666211027,0.21306835410632705,0.6526145237287507,0.3687382845177589,0.5650169757346978,-2.1170417561953356,108.89974780369997,109.72669491474795,0.9924635740492277,37539.54847839743,1.007593654969143,5.281459154631782,442.23968630733987,0.6390977443609023,0.6434108527131783,0.9397590361445783,0.08108108108108109,49.95440927445617,49.558015757201275,50.477302626775334,53.48837209302325,0.5460517994437899,0.4539482005562101,80.47181954235914,73.37194796440669,0.44968171881889674,0.5503182811811034,73.58086925876984,81.39903719355654,0.49750225066035136,0.5024977493396484,77.10336588416291,77.48950252817991,0.5394020819056825,2.278110823508883,1.2207733976455102,1.1171642696137396,-0.3577313566776539,-0.2488548064941415,-0.5454802843490228,0.0035641946426684546,0.42196345886542297,0.8468894933356572,0.8914025694389018,6.34671979672279,0.700655237931115,0.8921796420346333,1.16852086777428,1.134262341608376,0.876601679747355,1.8674123613950266,1.6655372583194001,0.9018030180715806,Relax,1.547863449489379,1.873181534450305,-0.10188681628325558,0.834703950941897,1.838871647271798,-3.1257192843457773,0.0,0.0018715355082423947,0.20807167115184466
101.99694556813778,589.4328358208955,69.31452209928696,,,,,,,93.37578697920014,93.71641632846884,0.11759528463112089,0.1584163305886359,589.0,41.5128,0.07048013582342955,61.0,0.7423179428166647,549.2,617.8,32.83582089552239,52.98507462686567,396.0,1108.0,9.571428571428571,218.75,,,0.06860187513170077,0.10440092862428506,0.0244280892526968,0.1974308930086826,0.657100238816679,0.3474728503035429,0.5287973276790766,-2.259516708704527,66.26751349436199,71.06205430207707,0.9325302250996853,14794.091691142012,1.072351300884754,4.877058416015771,304.8139454975015,0.6119402985074627,0.6153846153846154,0.9125,0.08333333333333333,51.504319332737566,51.20152003751326,51.80238446551916,50.76923076923077,0.5692461056611062,0.4307538943388937,50.004393746343865,43.49834549274329,0.46310453436265747,0.5368954656373425,48.35899589824615,52.06940634715132,0.512481133684221,0.48751886631577884,49.188575290538665,47.97566642554756,0.666666758435753,2.2019166403981396,1.1640072790122986,1.3749180252699005,-0.7938673692261808,-1.0011902773906112,-0.4042149269467957,0.001854005244034291,0.3547932085002367,0.7913601063262798,1.1931031320890322,6.342255470609331,0.9445498069891604,1.2248167206902238,1.2924931912811155,1.4551725087265228,1.3535523250482973,1.8615707288932717,2.0554726310304163,0.949176159912238,Relax,0.2780017467289876,1.469174893390065,-0.8941240642684452,-0.15953661757341264,1.1209383093708882,-3.706709814916208,0.0,0.00531907828247118,0.24218770675493959
101.15295220624576,595.5639097744361,111.07070866791027,,,,,,,154.98765835518725,155.57748582098537,0.18649670815341582,0.2602368206191126,598.0,45.9606,0.0768571906354515,63.0,0.7166422787895025,548.8,619.6,36.09022556390977,54.13533834586466,396.0,1705.0,9.5,234.375,,,0.0710933688815931,0.11339119661262294,0.01610518064366393,0.20058974613787997,0.6269743243337361,0.3544217501164064,0.5652890977521896,-2.176911521983934,110.00989522397268,112.72607928496394,0.975904563715687,38958.84076936224,1.0246903613121465,5.297576135813151,462.0373076472455,0.6240601503759399,0.625,0.9125,0.08108108108108109,49.65315808689304,49.27953290676832,50.19871909778924,53.90625,0.5433110623676397,0.45668893763236035,81.08820943838668,74.34361628574943,0.45494515651076806,0.5450548434892318,76.03331485081563,83.22321781664489,0.49805085102095265,0.5019491489790474,78.60140799351791,78.90841927893204,0.9308288387697768,2.067045907025451,1.2330786458652698,1.2498507565013586,-0.5969463932952639,-0.02300013962898717,-0.4918859515509143,0.0009727355107009211,0.2292333310263903,0.7697199307802425,0.7784447610718404,6.332433070934141,0.7280913322525538,0.8944613179379444,1.1667622845085694,1.2338989961740308,0.9432805131517812,1.8670628438831254,1.74003252590801,1.1139919635001878,Relax,2.9025877232782875,3.7909181603431517,-0.8883304370648644,1.0071286431067117,1.2784051169482349,-2.9703085417737767,0.0,0.06899477613722081,2.63065458331764
101.5540330674657,592.9097744360902,110.8659071736374,,,,,,,153.7624594606692,154.34821658805762,0.18698613508114403,0.2593353425601913,588.0,45.9606,0.07816428571428571,64.0,0.7210206415955237,546.0,617.6,33.08270676691729,51.127819548872175,396.0,1705.0,10.23076923076923,250.0,,,0.07010918004200536,0.10446036372502258,0.01343440492326698,0.1880039486902949,0.6711558101267774,0.37291333788684683,0.5556285623399516,-2.258947574025015,109.1406706134655,113.3934285025964,0.962495552473453,38879.83178375953,1.0389658398214587,5.296694487215436,471.24759469773846,0.6165413533834586,0.6201550387596899,0.9125,0.07894736842105263,50.038129130655825,49.6853077226382,50.5188708926499,52.71317829457365,0.542610663335963,0.45738933666403697,80.39532571578128,73.81245576428275,0.45813607658302224,0.5418639234169778,76.7511926396445,83.47049811739251,0.4987596019970536,0.5012403980029466,78.59438265090701,78.78960173119236,0.834634439294351,1.9207301863865736,1.2472169004981533,1.0916162888124927,-0.00990198294939404,0.4943227568245385,-0.5810111762643708,0.0009547010485831316,0.2348035745393006,0.7634921219201036,0.8112467219952013,6.359573224877275,0.7085351578438669,1.2098599857458268,1.1052541885854317,1.1887189561217804,0.945124977761698,1.8385905190098097,1.6691864558210883,1.060944727143036,Relax,0.707745868988071,1.4340833613698734,-0.7263374923818025,-0.009295811696865719,0.9956167332280635,-1.7000998196624293,0.0,0.002744756103254045,0.22376931319280075
101.2769554906377,594.4962406015038,111.44849497061142,,,,,,,154.1720064595307,154.75915096318892,0.1874671147757793,0.25933218064346614,593.0,51.891,0.08750590219224283,65.0,0.7228841183945156,544.8,619.0,33.83458646616541,51.8796992481203,396.0,1705.0,10.23076923076923,218.75,,,0.07954241302509209,0.12038502513475172,0.014402539328538647,0.21432997748838245,0.6607334503278719,0.3711212680428878,0.5616807622782355,-2.1170601297999587,109.43124509674348,113.92559528857065,0.960550127647408,39166.29762990641,1.0410700818386367,5.299882629814556,474.4181152423506,0.6165413533834586,0.6201550387596899,0.9,0.1111111111111111,49.805349742559336,49.37939265084431,50.36543735850083,55.03875968992248,0.5452210655013258,0.45477893449867385,80.80312517575008,73.7975619697003,0.44959313557302794,0.5504068644269723,76.38905587614751,84.5207276601782,0.49548372496767384,0.5045162750323263,78.62707197847674,79.34051158417674,0.609519446866947,1.9981117909362047,1.247375514007497,1.02929433116974,0.16149230539317827,0.30681683085965206,-0.609143634418761,0.00332532460401959,0.35605333138645473,0.7298158769444973,0.7792217893311882,6.315405533291355,0.7221830396188719,0.9684629798960959,1.1513273092204348,1.2194224194451322,0.9516803376940451,1.8501332664139265,1.6496741282900438,1.0078974907858844,Relax,0.2274100443097835,4.096102847335122,1.4209858946407274,1.3019206220211617,-0.8641749031488803,0.01006160638058673,-0.5290679402000436,0.012431586765105827,1.4341599769976858
102.14686903485361,588.679104477612,68.6311488880104,,,,,,,91.5991184250187,91.94540503692872,0.11658499234300665,0.1556011037733416,588.0,44.477999999999994,0.07564285714285714,64.0,0.7492555612769413,547.2,618.4,30.597014925373134,50.0,396.0,1108.0,11.166666666666666,265.625,,,0.0776497503580815,0.09635406512367023,0.02430259910302136,0.19830641458477308,0.8058793394800543,0.3915644913487525,0.4858847623533644,-2.3397256937956965,65.01521940055603,72.25184626798072,0.8998416339343887,14757.536102713802,1.1113066591814469,4.875983964310738,321.1758315830446,0.6194029850746269,0.6230769230769231,0.8888888888888888,0.1111111111111111,50.07052186177715,49.85737351488959,50.31845606110247,53.84615384615385,0.5653786148327437,0.4346213851672562,48.886037853048556,42.8618287481573,0.42496721869694914,0.5750327813030511,47.10062439803334,54.789236812053765,0.4877910585188005,0.5122089414811994,48.0016328662594,49.188397179028264,0.6297818295985845,2.1569323007404946,1.1878566475962642,1.1309514297906909,-0.44319329702513244,-0.28301310532998236,-0.5263824774593238,0.002046019798679119,0.333494039570559,0.7512150369559554,1.162561013268383,6.336429209033761,0.9008604531517741,1.1561890388020102,1.3957573150856648,1.5313436252052373,1.3746375022401776,1.8079885622899474,2.1430085207129097,0.949176159912238,Relax,1.3897522846945172,2.7883632070925466,-0.9179901341599722,0.47619146938630114,2.7895700038670705,-2.2027358504769428,0.0,0.0058096635224302515,0.5138018072632775
101.86800474495068,590.4776119402985,69.63640440397855,,,,,,,91.63453070783477,91.97812267743087,0.11793233646091104,0.15518713809779408,593.5,51.149699999999996,0.08618315080033698,65.0,0.7599362801999336,547.2,625.0,30.597014925373134,50.0,396.0,1108.0,11.166666666666666,234.375,,,0.07332748002671403,0.07172202187122835,0.023602391138033522,0.1686518930359759,1.022384451993952,0.4347859885039785,0.42526662808302423,-2.6349574394653748,65.03835426601954,73.81728773504048,0.8810721209300996,15082.644677571254,1.1349808673373467,4.885447609862349,335.12483703202696,0.5970149253731343,0.6,0.8589743589743589,0.1111111111111111,50.751173708920184,50.50140988612325,51.012010778270756,53.84615384615385,0.5667737596997097,0.4332262403002903,48.965239680509036,42.809523508564105,0.4399730916433173,0.5600269083566825,48.963352037477605,55.24112712293074,0.4953905021996399,0.5046094978003598,48.964295868089735,49.41779754725061,0.7012079943790437,2.0708629484873184,1.2771643574793128,1.089709807040408,-0.007773779355328969,0.2920072267495748,-0.590520017549125,0.0023567565655074323,0.338385648558873,0.7429712406562214,1.2237754316221157,6.414714470195498,0.9020862236814474,1.1746373559803078,1.2788832027048826,1.7356315849674206,1.3925354873189222,1.8068164597947578,2.0806137425386906,0.949176159912238,Relax,0.3937637037654359,1.006358500985117,-0.612594797219681,-0.10941554672712256,0.9349346916102329,-1.7097651047720492,0.0,0.0020084622685527203,0.12250438874361465
101.15810487513498,594.3984962406015,72.10912814171269,,,,,,,90.86770269980084,91.21294224371358,0.12131445250582237,0.15287337245049032,599.0,57.8214,0.09652988313856427,73.0,0.7935616946313614,548.8,632.6,27.819548872180448,48.1203007518797,395.0,1108.0,13.3,164.0625,,,0.06984893651743379,0.03588246214112807,0.022118042382324156,0.12784944104088602,1.946603782168385,0.5463374415152603,0.2806618617100792,-3.3275066225982872,64.49728999250678,79.39448149513062,0.8123648996493855,16087.24428319976,1.2309739138552114,4.913451766546935,390.93014249826433,0.5789473684210527,0.5813953488372093,0.84,0.08333333333333333,50.443058746307855,50.22953573638011,50.67695476621197,54.263565891472865,0.5657940611937066,0.4342059388062934,48.514891079838044,42.50047148368918,0.4081228009142032,0.5918771990857968,50.72075925937355,61.08099763456151,0.4708085193533459,0.5291914806466543,49.63008198832577,52.617384714413475,0.6879797620371532,2.2798519162500073,1.2603666631701176,1.256070502117637,-0.6662571254492775,-0.526392001458741,-0.5018844035535199,0.0021138950400817215,0.3614023683439955,0.7228989280128428,1.1298648321722142,6.431075292578981,0.8411974093755323,1.1375860188294562,1.3230935844821414,1.6759104146250046,1.4202548791835183,1.8076475677893822,2.0100174093542966,0.9018030180715806,Relax,0.6475805771441304,2.222978561316274,0.9897158265676249,0.4094951430583619,-0.21676108147048456,1.802205693393411,-0.7610104719884035,0.002791107408523893,0.2991885165397178
100.39433626174625,598.7348484848485,67.27065758361957,,,,,,,83.99813702041709,84.31674893814014,0.11235467211212763,0.14029271426739534,600.5,49.6671,0.08270957535387177,67.25,0.8008589234219369,551.2,631.8,25.0,49.24242424242424,482.0,1108.0,11.0,187.5,,,0.058475719034941004,0.02060544945513656,0.015911081106513337,0.0949922495965909,2.8378764152782936,0.6155841058957255,0.2169171647438914,-3.882199701513139,59.620944941762524,74.03122129456759,0.8053486609998356,13866.397370474184,1.2416982214367946,4.8489337516150695,367.6977432490333,0.5757575757575758,0.578125,0.8513513513513513,0.11764705882352941,50.957505015502456,50.94586749897141,51.00955251216396,54.6875,0.563363428342683,0.4366365716573173,44.75205195123631,39.398408792546626,0.43223809271358027,0.5677619072864201,48.671690764639756,55.78250840968446,0.48382823811313613,0.5161717618868636,46.752965872417505,48.29038651668225,0.6746083706036304,2.4407149812100553,1.2704888528958844,0.9146390843678427,-0.06458863645370627,0.9334080093882633,-0.6457973467887753,0.0025179982227184292,0.4207547798921489,0.7619758737954978,1.1542731357736635,6.376674683847713,0.8588687771933916,1.4445306626879835,1.2915539641398885,1.640866901564778,1.3973042031274843,1.8088597363794827,1.8151855390290086,0.8538659538616307,Relax,0.9331993366996252,1.5695705150155557,-0.32844901752858924,0.4563362399791886,1.0,-3.670229581463662,0.0,0.005439949774468725,0.40711043325864144
100.5220218952038,597.5187969924812,48.27660226045881,,,,,,,50.0089385949546,50.19942879094193,0.0807951189208635,0.08369433538604458,601.0,45.9606,0.07647354409317804,66.0,0.9653594660641215,554.4,631.6,23.308270676691727,47.368421052631575,482.0,742.0,10.23076923076923,179.6875,,,0.059845376641289805,0.019382098109508382,0.011575075724748802,0.090802550475547,3.087662455486753,0.659071538496114,0.21345323460631158,-3.9434054167948394,35.496356509766244,58.43887910281502,0.6074099478758889,6516.817028632659,1.6463345776554987,4.521005637529323,384.8397893855749,0.5714285714285714,0.5736434108527132,0.8513513513513513,0.11428571428571428,50.067204301075265,50.03388846794091,50.1053050108701,55.81395348837209,0.5656553111311712,0.4343446888688286,26.69684202383873,23.393823808142443,0.4046813155890382,0.5953186844109617,37.17563999871177,45.089626096028034,0.44806567621284743,0.5519343237871527,32.36317029711104,35.9189739124465,1.0330498820596916,0.895877806087366,1.2643589571202212,1.314313659026622,0.3740245801547424,-0.29603264544887065,-0.4442393800058829,0.00046892991576234837,0.06498303063442312,0.7722022675319025,1.7456683620277877,6.264616905455543,1.0171064248920796,1.5165471538653834,1.1754452315368287,1.5945699648356904,1.6824415209675883,1.753689793246118,3.277847465234366,0.8487557817144289,Relax,0.9690395575750579,2.6709743016877843,1.4377604394719687,1.5731562288807095,-2.8704098199596473,-2.1714539065402363,-0.44930846420978876,0.0019619963154382043,0.30088676056820063
101.25868718408863,593.2481203007519,50.35922563233522,,,,,,,53.511822539651476,53.714980199649304,0.0848872906783172,0.09020141945417919,600.0,50.4084,0.084014,69.0,0.9410859739456597,551.0,630.2,27.06766917293233,51.127819548872175,482.0,742.0,11.083333333333334,78.125,,,0.04113131378214975,0.01114494375806591,0.006102029918385425,0.05837828745860108,3.6905806502955083,0.704565268573834,0.19090905614470685,-4.496769358539639,37.982226750473146,60.370607288491115,0.6291509801941975,7203.703669358428,1.5894436017429936,4.564525949393934,383.82270195212453,0.556390977443609,0.5648854961832062,0.8378378378378378,0.11428571428571428,50.36749693752554,50.32693024591839,50.41320584866168,54.961832061068705,0.548692537250254,0.4513074627497459,28.135237746524112,25.516571475167428,0.4157567857571825,0.5842432142428174,38.92648754031755,46.144759097374404,0.4534555232667866,0.5465444767332132,33.96220719623456,37.28561526917616,0.975928355722931,1.1291750410257,0.966709886331472,1.424417196124482,0.09210363974542624,-0.675699000031976,-0.0946533591663113,0.001205408525121283,0.1191293178187921,0.7425609144118948,1.620190704210362,6.291757059398672,1.0567727385999492,1.175365989831354,1.1901774839705512,1.6097303407816272,1.7158007809789486,1.778685659045885,3.8476901363307343,0.9548502544287325,Relax,1.5224960019678557,2.289037800581265,-0.7665417986134093,0.3779771016772232,1.0729551340317212,-2.7947881606253913,0.0,0.004917819216895943,0.5131199670675612
101.4735424439996,591.5970149253732,50.20456190561884,,,,,,,52.40358135037971,52.60055955353689,0.08486277083725968,0.08857986100046523,588.5,49.6671,0.08439609175870857,64.0,0.958036848091396,551.0,628.0,26.865671641791046,51.49253731343284,482.0,742.0,12.181818181818182,93.75,,,0.041848247021045316,0.010005575902632055,0.006924651674861565,0.05877847459853894,4.182492584963227,0.7119655164049722,0.17022517122077144,-4.604612751120575,37.19421235451277,60.3506160347664,0.6163021158406431,7051.913012926934,1.6225808321881041,4.555277056493382,391.69501115502396,0.5671641791044776,0.5757575757575757,0.8289473684210527,0.15151515151515152,49.524006622516545,49.46711016138558,49.585784531870495,55.3030303030303,0.5351471377410768,0.4648528622589228,27.20955436027662,25.35961057439267,0.41011920281039205,0.589880797189608,38.6488663607264,46.351504666046324,0.4445369974324422,0.5554630025675579,33.422258447433926,37.36021836988753,0.9649017891032297,1.145216900179877,1.2848361688917254,1.3218042598778368,0.3343759922972964,-0.23270190799048907,-0.4677195726151921,0.001048065257056371,0.11973914303193603,0.7511741924368307,1.6595876961195717,6.242926783563752,1.0407682288175077,1.3534392284105226,1.1825187432813835,1.4758353849068702,1.7573136650005776,1.7673376888200063,3.0349577981830755,1.0019081687962512,Relax,0.7000275204171533,1.810459905684609,0.7000275204171533,1.3722373604323548,-3.466184574181989,-3.7864868507590423,-0.12870769029209103,0.0015469326014172953,0.17431600747583864
101.82045716593021,589.5,50.86644018252216,,,,,,,52.65292800089725,52.84547388637639,0.08628743033506728,0.08931794402187829,588.0,51.149699999999996,0.08698928571428571,66.75,0.9660704943446897,549.2,625.4,26.865671641791046,51.49253731343284,482.0,742.0,12.181818181818182,93.75,,,0.05144760710422516,0.012581432176762223,0.010836836924243302,0.07486587620523069,4.089169371293704,0.6871970210191789,0.1680529610349126,-4.375533188660165,37.36739294007336,61.27283891198834,0.6098524828227314,7193.010168889561,1.6397408031716982,4.563880784233035,401.88629636061535,0.582089552238806,0.5909090909090909,0.8461538461538461,0.1875,48.86551155115512,48.78902599666871,48.94853272602153,57.57575757575758,0.5331552397483185,0.46684476025168153,27.28809541751039,25.5348098710665,0.39401633838789707,0.605983661612103,38.46140261101572,47.69781229289059,0.43174292153356564,0.5682570784664344,33.34606155396615,38.25642307299089,0.9118674883029719,1.0763319704361898,1.1689991942843743,1.085705612676069,0.47205676786128237,0.35892962462973266,-0.5773865163315275,0.00041851816441784077,0.07854677757249237,0.7532726883126211,1.675760555365173,6.281324149442312,1.0372639494709541,1.3237729060016366,1.1137614573768322,1.3910945379853186,1.7845606025775727,1.7788296232411023,3.8229001309459765,1.0546401776802645,Relax,1.4559793333172455,2.4051320503653164,2.700774618595373,1.498208593412715,4.328854792630194,2.0411643826380947,-1.0,0.0003091807939980724,0.25569061688359257
101.37383322753698,592.390977443609,52.0790242464431,,,,,,,50.79205974690664,50.972102333384164,0.08791326375560912,0.08574077202541736,588.0,53.373599999999996,0.09077142857142856,71.0,1.0253379072624602,550.4,632.2,24.06015037593985,50.37593984962406,473.0,742.0,10.23076923076923,101.5625,,,0.05562414876229906,0.014123432148734837,0.011822773563865796,0.0815703544748997,3.9384299918403203,0.6819162319493826,0.17314418013324692,-4.259920006430059,36.04271921127059,63.623362242129986,0.566501328145841,7204.171406872316,1.7652209276772577,4.564554147281583,449.2371620759956,0.5714285714285714,0.5769230769230769,0.84,0.15151515151515152,51.67975567190227,51.777878043222834,51.59819079370001,56.15384615384615,0.6023145728230036,0.39768542717699645,27.97975003844281,22.735367746418476,0.4050566475496661,0.5949433524503339,40.49249135029765,49.07433511764944,0.45300040567473554,0.5469995943252642,34.80307650170937,38.24387084098736,0.9645400616402032,1.174288907334624,1.244461918503534,1.3615428118593655,-0.01721813254502713,-0.6369672102778696,-0.400296347325992,0.0006466561514266697,0.10332426464158846,0.7667455878737872,1.652923024373839,6.293747003056495,0.9779858962152641,1.3524694252779523,1.1650307103537778,1.3847692279904198,1.8078677043590428,1.7385525097568888,2.3851285706979835,0.9548502544287325,Relax,1.0536294421399652,1.137323766919427,0.011526351275044533,0.580188234734758,1.0,-2.3514276681554604,0.0,0.002079186498453503,0.15703585575572568
101.45362307237347,591.8947368421053,51.05289342079221,,,,,,,49.396969604021315,49.585034921632406,0.08625333229548746,0.08345566623478613,585.0,48.925799999999995,0.08363384615384614,70.0,1.033522781458968,550.4,631.0,21.804511278195488,48.87218045112782,482.0,742.0,10.23076923076923,93.75,,,0.041144005394268865,0.009756333136480076,0.008053884532809337,0.05895422306355828,4.217158723334958,0.697897508545091,0.16548997899542867,-4.629838652380776,35.06191443845804,63.41128066712954,0.5529286598470019,6984.768597165747,1.8085515774796423,4.551122132632649,458.7302867221659,0.5864661654135338,0.5923076923076923,0.8181818181818182,0.1875,50.15787099684258,50.12002089931066,50.20278977147512,55.38461538461539,0.5867154318074563,0.4132845681925435,26.856559890654374,22.540379373250936,0.3948555167969228,0.6051444832030772,39.846082469543866,49.3282903380584,0.43977870461686036,0.5602212953831396,33.97782436626863,38.3493737234773,1.1021229062033857,1.3815564384746883,1.3966074752285365,1.5730457429282656,-0.33658591846332797,-0.8902428692052271,-0.37229022080739144,0.0006672593361003977,0.13202245484271966,0.8368928086749219,1.844127454745371,6.27671946541371,0.9999475405043495,1.095771272541947,1.2614343213835064,1.5027110558195722,1.8383158660774204,1.7156521082622047,3.0446375110607535,0.9548502544287325,Relax,1.5408039578839325,1.352728120354626,2.5976901461547834,1.9213260859774706,3.8064665346653985,2.8064665346653985,-1.0,0.003032341337359344,0.28219493940664325
101.51796592264937,591.7089552238806,51.19971578675605,,,,,,,50.316815826194905,50.5055835203893,0.08652854639893694,0.08503642776059879,585.5,49.6671,0.08482852263023057,69.75,1.0175468170245683,551.0,631.0,22.388059701492537,49.25373134328358,482.0,742.0,10.307692307692308,93.75,,,0.04467243023504614,0.008830752802977104,0.008816159197528676,0.062319342235551925,5.058734088897355,0.716830900849294,0.1417016368625813,-4.729515012849987,35.712840595050814,63.20239985161856,0.5650551352305373,7091.00574344793,1.7697388053857952,4.557677947098665,447.4069584436752,0.6044776119402985,0.6106870229007634,0.8375,0.21212121212121213,50.55957867017774,50.537387386586786,50.58718050787956,54.961832061068705,0.5789259548536352,0.42107404514636504,27.17368379349938,23.174813261318196,0.4020680908040568,0.5979319091959433,40.075908188884426,48.87192373786793,0.44487222956454175,0.5551277704354581,34.238045417875306,38.24615601297043,1.0778327349807668,1.2446510559924366,1.3861436127519093,1.351891622696745,0.2873540125855545,0.08460179580476179,-0.5275193516208871,0.0006573306619166327,0.11180563701810177,0.7862309596716672,1.6969253665572164,6.363559597268086,0.9875128991949579,1.3452227021802095,1.2498598461562596,1.7861362636476539,1.8631049798199628,1.7177912824517674,2.863744715117774,0.8437121421442116,Relax,1.5660831061192553,1.7035255314913251,0.12002294324695573,0.9717857089926183,1.0,-4.877026831666746,0.0,0.0032531945890020187,0.3019419813203395
101.13378507900306,593.8195488721805,49.97875830403476,,,,,,,48.22249569349445,48.40343891140536,0.08416489217803215,0.08120732263712378,587.0,47.4432,0.08082316865417376,68.0,1.0364199858444332,552.4,632.2,20.30075187969925,48.87218045112782,490.0,742.0,9.5,78.125,,,0.0521587353806829,0.00907181278193651,0.012112877532695165,0.07334342569531457,5.749538337534878,0.7111576107361314,0.12368951539873395,-4.7025831691214455,34.22639988700353,62.00523154784128,0.5519921308671434,6667.1377238258465,1.8116200287657465,4.530909536450758,449.31967744130793,0.6015037593984962,0.6076923076923076,0.8227848101265823,0.25806451612903225,50.78268876611419,50.736874356865926,50.830509371723686,55.38461538461539,0.6019273246154149,0.3980726753845853,26.555717027981547,21.595695075674843,0.38795813110248173,0.6120418688975183,38.62075529614727,48.508617787528465,0.4379323379820899,0.56206766201791,33.14188321833203,37.546371632010256,1.090636557277786,0.948952615283043,1.3485051273276816,1.2228330337572586,0.6797147841977687,0.49186217736026583,-0.6324324223849037,0.0005036029776995609,0.07066367306077695,0.8151596470588998,2.124465223053791,6.377545852889029,1.022638137415211,1.5415113612202955,1.4949746689111867,1.9394019660666693,1.9297506897899712,1.7349475406989565,2.845891482257987,0.8487557817144289,Relax,1.2733375579295272,2.1243697127864047,1.5995082288938223,2.3355224143227296,-3.089333412832932,-4.072909817937845,-0.15353762059452314,0.0019722635830201765,0.3292326250515863
101.53996114765107,591.3082706766917,46.47061314016794,,,,,,,43.77144496060638,43.936801394397854,0.07858948613552638,0.07402474670363472,585.0,44.477999999999994,0.07603076923076922,61.0,1.061665046287386,554.0,625.6,16.541353383458645,45.11278195488722,490.0,730.0,10.23076923076923,179.6875,,,0.03572254437548564,0.006725639366819235,0.009607745147812015,0.052055928890116884,5.311397538161483,0.6862339244947709,0.12920025653593006,-5.0018282848804265,31.068010209625275,58.12321497785162,0.5345198165907379,5673.0020484047855,1.8708380287529418,4.460783050341359,434.9564837357895,0.6165413533834586,0.6230769230769231,0.8271604938271605,0.3,49.402907580477674,49.360335918634455,49.4569785948481,56.15384615384615,0.5987687027488692,0.40123129725113094,24.041233662824673,19.67997781293356,0.3608948566189954,0.6391051433810044,34.91724537176116,46.46605314646143,0.41375790712406096,0.586242092875939,29.97661538918554,35.681897523305395,1.0623729790783794,1.9540259797375068,1.455543741842782,1.5242087503985084,-0.47859632554771814,-0.25887546774224646,-0.4648597258850414,0.0008459362778263056,0.2330975368558937,0.8692626879356555,1.9190988916046567,6.401000104609057,0.9883156812694985,1.4948261643185101,1.3370277464848659,1.7325502025451711,1.895937925874677,1.7094659841773625,3.285280092824941,0.8487557817144289,Relax,1.857297392832847,1.9988087659925253,0.03024154802176149,1.0296459310180242,1.0,-5.565482828149077,0.0,0.0029365816270419984,0.31903121545162666
101.5041158161677,591.7910447761194,46.974809218940685,,,,,,,47.05308152717532,47.22185293749879,0.07937735731826043,0.0795096207394892,585.0,44.477999999999994,0.07603076923076922,60.75,0.9983365104751017,554.6,627.2,19.402985074626866,46.26865671641791,490.0,730.0,9.571428571428571,171.875,,,0.021931313962319846,0.004805690000505557,0.006492513815772542,0.03322951777859795,4.5636139576237085,0.6599949511288151,0.14462111766186223,-5.337954646348002,33.39089243229928,57.12372500973987,0.5845363275347673,5992.312020215222,1.710757660208076,4.484564528993935,390.8994005601285,0.5970149253731343,0.6060606060606061,0.8125,0.3103448275862069,51.47659063625451,51.34853583706759,51.61079329381907,55.3030303030303,0.6304671925993595,0.3695328074006405,26.51814701694146,20.301981542338535,0.3595175434783764,0.6404824565216237,34.25126087797006,45.71620158387634,0.42853943284327733,0.5714605671567229,30.6297322298358,35.37047880509304,1.0277475106650549,1.891125149728353,1.410630676187904,1.5472225933367572,-0.3423385673927637,-0.3101887939536727,-0.4277721428597818,0.001301653614287248,0.24820462277826552,0.8541303910800129,1.9252908618525775,6.392472306080975,1.0146729316018515,1.4559536878888126,1.1869349744204685,1.8410174565685615,1.8967035055198016,1.7581914255575914,2.86124347398855,0.8964441510282248,Relax,0.8043494642433017,1.5973047819162347,1.0502148907743498,1.46635682076789,-3.3988068056112564,-4.398806805611256,-0.23947243212137115,0.0019643000309281285,0.1906797563538077
101.44147295428067,591.812030075188,44.90193867312579,,,,,,,44.33421621358302,44.50305644908225,0.07587195999956461,0.07491266476612597,587.0,41.5128,0.07072027257240204,56.0,1.01280551474752,558.0,625.0,18.796992481203006,45.11278195488722,490.0,730.0,9.5,101.5625,,,0.024339527691074184,0.005388967959684573,0.00809786565175115,0.03782636130250991,4.51654711498764,0.6434541111798446,0.14246593576863542,-5.223401385551408,31.468412998673774,55.42530317476671,0.567762577670487,5479.397299879029,1.7612995983338147,4.445702901341842,390.48225687698607,0.6165413533834586,0.625,0.825,0.32142857142857145,50.114942528735625,50.07910329682368,50.155866242759636,54.6875,0.5802604750837352,0.4197395249162648,23.97103850530679,20.387561692260434,0.376857705582907,0.6231422944170928,34.024893711955315,43.75238096269674,0.42644190666688014,0.5735580933331198,29.430461083142728,34.13153608952191,0.918507375509787,1.4486371054148672,1.193238107394204,1.3753019607435049,-0.3306153108940606,-0.728482784605049,-0.3743205923217322,0.0005585147998728516,0.13682018208236765,0.7818470513061566,1.826850789039325,6.297432905279601,0.9830354222199702,1.3730657790165077,1.5162458933551395,1.9629153484317745,1.827464078115725,1.7545983973433177,3.024947107284838,0.9548502544287325,Relax,1.2398481855894097,1.001115178787396,0.2747920964880297,0.7753496858817277,1.0,-2.3104079747957114,0.0,0.0009030502140200707,0.084808311851233
101.57332828891332,591.1044776119403,42.93066076751656,,,,,,,40.35332672089885,40.50224671624487,0.0726278727255734,0.06826767221240841,587.0,37.8063,0.06440596252129471,53.5,1.0638691839323104,558.6,623.4,14.925373134328357,40.298507462686565,490.0,730.0,8.933333333333334,117.1875,,,0.04318150733966042,0.008551331060346622,0.015535430868686442,0.06726826926869349,5.049682562273538,0.6419298104308,0.12712280475344997,-4.761668328577571,28.639413306347322,53.60042414212778,0.534313184358515,4822.610817420743,1.8715615284705702,4.390252325923409,401.26596693644603,0.6044776119402985,0.6124031007751938,0.8227848101265823,0.3103448275862069,51.01408450704225,50.99569776892966,51.0340397358492,54.263565891472865,0.5734107195626479,0.42658928043735234,21.688828991679173,18.70717331221725,0.37378142590338,0.6262185740966201,32.770048528160316,42.41614536562713,0.418122678736181,0.5818773212638191,27.787419667614742,32.78023582138592,0.8513485097748176,0.45644087641010256,0.8803980355482321,0.8350978195300482,1.0,0.4942635392742041,-0.5992466239537291,0.0014473514804001681,0.049353424250378086,0.7883439435844379,1.4559280528786915,6.266398776307984,0.95964951615722,0.9451559064041547,1.034673523949508,1.6074460383162943,1.7706400793839852,1.749608564281376,2.5402663898826368,0.8437121421442116,Relax,1.294005920228684,2.1413694761094773,-0.6483793237560302,0.4223054142987084,1.397968464249526,-0.47969625095156876,0.0,0.009740150623257457,0.610856311744059
102.08895737082565,588.6148148148148,45.89767743370828,,,,,,,46.82517501222364,46.99284716724292,0.07797574284321782,0.07955147208952834,585.0,37.065,0.06335897435897435,49.5,0.980192330764952,556.6,618.2,17.77777777777778,41.48148148148148,490.0,740.0,9.0,125.0,,,0.05820299629311411,0.013283030430315253,0.026115779042786877,0.09760180576621624,4.381755849951233,0.596331141992666,0.13609410528870589,-4.321267965912521,33.22896089922051,54.38405574266629,0.611005568552166,5677.252703268728,1.6366462950077394,4.461108335734256,356.0298533549166,0.6296296296296297,0.6384615384615385,0.8554216867469879,0.3448275862068966,51.43849206349207,51.169390259642576,51.74397501413031,54.61538461538461,0.6197652888961498,0.3802347111038501,26.164028569343895,20.493534648908543,0.38102160092686693,0.6189783990731329,33.569617367490245,42.78675389442078,0.44593825366526924,0.5540617463347307,30.095478075428097,33.54617169833055,0.8415399272207942,0.5390695318536192,1.084395946248671,0.9062149398223897,0.7223108258887709,0.13295645017053337,-0.8305343668999368,0.0005851746960274348,0.03197253494947569,0.7952680646938042,1.303063706970167,6.230121059837512,0.951017994841159,1.0424892767139542,1.3348150412683661,1.6231555678144458,1.7781160799856122,1.786299684028746,3.2790822073965096,0.8911545566656601,Relax,0.7823709521685299,3.131252314966826,1.2785595802827365,2.347997109651943,-2.300716231015862,-3.323401355982286,-0.1584633169746538,0.02401770103969993,1.2959207996033661
102.04165426812894,588.0666666666667,45.03617120069057,,,,,,,44.753220512815126,44.89859895455699,0.07658344496206308,0.07610229086183276,585.0,35.5824,0.06082461538461539,48.0,1.0063224653920586,556.6,618.0,19.25925925925926,45.925925925925924,472.0,730.0,9.0,140.625,,,0.041601317580291355,0.014098497307601852,0.02416445528072881,0.07986427016862202,2.9507625296959907,0.520900241027134,0.17653072240984466,-4.2616870612063655,31.748103786542476,54.13430888122021,0.5864691808701791,5399.3348349268035,1.7051194378470846,4.439310370652521,369.2218493111465,0.6148148148148148,0.6230769230769231,0.8395061728395061,0.3,47.68743914313535,47.752814951612436,47.61971566303432,55.38461538461539,0.5360083761206041,0.46399162387939596,23.25528479027276,21.636696063432453,0.38503660701812764,0.6149633929818722,33.59105217124627,42.45190940435976,0.4237025656141237,0.5762974343858761,28.889159356479034,33.69207049601822,0.9298912764003271,0.37776106356975614,1.3076523399700832,1.1187718081852052,2.093952696460434,1.105363343764579,-1.0,0.00034463681868873117,0.013081537818621728,0.74553319532128,1.2702221898671369,6.265342448742425,1.0023580095513465,1.0003062151374256,1.3139224999491412,1.6255462612601204,1.7421794554539078,1.7854312622875586,2.384988168485231,0.8911545566656601,Relax,0.8326911334824028,1.1151116628568845,-0.2824205293744817,0.27513530205396053,0.90298186311824,-1.5134244683204714,0.0,0.004650232860624308,0.24003180425878132
102.51960874847505,585.8222222222222,40.57310826678011,,,,,,,43.75721688876872,43.91974820451115,0.0692583973903765,0.07469367877985708,585.0,34.099799999999995,0.058290256410256404,44.5,0.9272323779164785,557.8,611.8,18.51851851851852,44.44444444444444,472.0,730.0,8.4375,148.4375,,,0.06979920476963988,0.024189001052042622,0.02989025873400296,0.12387846455568546,2.8855761599855625,0.5634490629181472,0.1952639721423836,-3.7218572511185384,31.055951783415527,47.86045773789136,0.6488853899704426,4669.512736974615,1.5411042003050044,4.37624167432152,295.03180979353806,0.6222222222222222,0.6307692307692307,0.8170731707317073,0.28125,50.63957863054927,50.547516766335946,50.73924928628962,53.84615384615385,0.5718422724491269,0.4281577275508733,23.485477835737818,20.32184646160438,0.5028932379237765,0.4971067620762237,33.940227252822936,33.744397889238144,0.5233236561086739,0.47667634389132596,29.184813646365782,27.853741512732558,0.8872605249241796,0.38921996067733167,1.2010928087094057,1.0818705052628454,0.7155312665885019,-0.23823173988447277,-0.8063108665832199,0.0007668997664837767,0.029353100101801075,0.7421433736215857,1.4118276631250555,6.189307911657312,1.0700939820993387,1.223868846620885,1.282579316116264,1.6195238129508964,1.7536712236889358,1.7879564093652751,3.065982554570224,1.048417125489012,Relax,1.8920063026184422,3.7998154496083494,3.0122128911666213,1.1123051663624466,3.909798832534973,1.6466171142144548,-1.0,0.013059259964672264,1.2298474241032207
102.47456027815718,586.0222222222222,41.245617888751234,,,,,,,45.542910715257435,45.71313569911911,0.07038234443114806,0.07771533055957622,586.0,35.5824,0.060720819112627986,47.5,0.9056429912138542,555.0,616.2,21.48148148148148,45.18518518518518,472.0,730.0,8.4375,140.625,,,0.06429337699563555,0.020793812538533164,0.017972243081250745,0.10305943261541946,3.091947514506684,0.6238475738126289,0.20176525341574658,-3.8730998106380468,32.324068242147966,48.53249556071365,0.6660293864697497,4928.429076690542,1.5014352524299899,4.399678621116336,291.4735988930298,0.6296296296296297,0.6384615384615385,0.8433734939759037,0.24242424242424243,50.397877984084886,50.333322094448704,50.467226209733504,53.84615384615385,0.5754469538060786,0.4245530461939217,24.520821289094894,21.06193873217503,0.49292025678735574,0.5070797432126443,34.0738303304105,34.55976290377421,0.5182799871085032,0.481720012891497,29.684142147595676,28.61802294990853,0.838108399106443,0.7923990721430199,1.0332449628135962,1.2134926526382772,-0.3764775754890053,-1.3348470104096541,-0.2725291508264812,0.00055021726452776,0.0411277156199346,0.7911803574472285,1.4350845252893223,6.249787889704576,1.0538754292270975,1.0726011233317794,1.2454892273885025,1.5851439814228623,1.7321880428582828,1.8088089767590994,3.2922664321269797,1.1008379817634626,Relax,0.6972624089389786,3.7391183668868537,0.6972624089389786,2.1615229057111764,-2.7237460201333317,-2.360403103869378,-0.10839418464537029,0.03636634320628802,1.6237998677045817
102.23400644504517,587.2611940298508,41.08837515648025,,,,,,,43.919440948549,44.081144495899295,0.06996609953831157,0.07478689447734317,586.0,37.065,0.06325085324232081,49.5,0.9355395758478504,557.6,619.0,20.8955223880597,42.53731343283582,472.0,730.0,8.375,132.8125,,,0.06119422587151075,0.02276250310694321,0.014818093401504986,0.09877482237995895,2.688378584025092,0.6195326338944329,0.23044843370491994,-3.782640697434484,31.170076195514444,49.02595843159729,0.6357871868839445,4800.802382206466,1.5728533393400048,4.388283939221178,308.4425697339283,0.6119402985074627,0.6201550387596899,0.8375,0.20588235294117646,51.042196237925765,51.02066415884144,51.06507126231814,51.93798449612403,0.5775884246879701,0.4224115753120299,23.691355027315407,20.26042567383145,0.4986772573241599,0.5013227426758401,34.620702318879474,34.71241234896011,0.521396097416392,0.47860390258360774,29.66372643552028,28.420383702275085,0.9597652479541355,0.8660360026902082,1.0982633646550521,1.3685776065893211,0.2657252454459691,-0.685863469134194,-0.18787181930707353,0.0015092027501610959,0.08951688361622201,0.8040032188176593,1.4437052683332294,6.274007358462118,1.0392701566662768,1.0838893904240268,1.2310484949517428,1.5400047276293127,1.7052869921124085,1.8084676494648437,2.60731387351152,1.0019081687962512,Relax,1.3786887204056313,1.9214426136393272,-0.5427538932336959,0.4179674135859677,0.84685736692384,-2.3866308958535614,0.0,0.014600561597737217,0.6990810281162209
101.72048317193719,590.1119402985074,39.3296575324585,,,,,,,40.73553066607353,40.888913912325876,0.06664779145557305,0.06903017526720016,588.0,33.3585,0.056732142857142856,46.0,0.9654877913549336,560.6,618.2,17.16417910447761,38.059701492537314,472.0,730.0,8.375,171.875,,,0.0480059021346764,0.02455337906343142,0.015576791682818584,0.0881360728809264,1.9551647865109532,0.5446793868332814,0.2785849001532384,-3.706905794154825,28.91282830275859,47.72137379596541,0.6058674762041955,4334.6435245113435,1.6505259636398937,4.34392349742491,315.0614658832215,0.6119402985074627,0.6171875,0.8354430379746836,0.20588235294117646,50.42111173498034,50.36257247653686,50.48140951584147,53.90625,0.6024884684047885,0.3975115315952116,22.442519169350547,18.22938852678844,0.4785015286514424,0.5214984713485574,33.01069001271,34.46191901010479,0.5117941884341746,0.48820581156582527,28.225629503891483,27.56750322317591,0.958092477765131,1.115815895992011,0.978109417893946,1.4564132421090772,0.04536860502415507,-0.8354570276717261,-0.07134162908667184,0.0013717702337501761,0.12620298791801166,0.7771359410773995,1.4816045409242153,6.146250526531045,1.0048285690268188,1.0958894138408748,1.1511903367989378,1.5354195018973416,1.6798244571503287,1.7745481897993205,2.8384290307638462,0.949176159912238,Relax,1.1673160911713403,2.840474341673092,-0.794803872808072,0.625433298028474,2.9951333827535187,-3.3124008701212198,0.0,0.012989749739867808,0.48670084156589766
101.32564933890318,592.3358208955224,40.63646720144723,,,,,,,43.06560828017356,43.228385630504874,0.0686037645672197,0.07270471708947951,592.0,35.5824,0.060105405405405404,47.25,0.9435944091878845,561.6,621.8,20.149253731343283,39.55223880597015,472.0,730.0,9.571428571428571,187.5,,,0.031772998334370445,0.021741744371286575,0.014296262456576432,0.06781100516223346,1.4613822052075882,0.46855223954217456,0.3206226529052453,-3.8285211626382916,30.567084619077104,48.072594768095534,0.6358526051388356,4616.378993917053,1.5726915198871512,4.371271566134213,302.41344852302115,0.5970149253731343,0.6046511627906977,0.8333333333333334,0.1388888888888889,49.89561586638831,49.827561806665,49.96636882009018,55.03875968992248,0.5920346376506074,0.4079653623493928,23.519495459441018,19.523878154245335,0.46733098102786824,0.5326690189721318,32.863200063369284,35.085387974661046,0.5032339336501865,0.4967660663498137,28.57583406544507,28.39160322625607,0.7960087362369112,1.060887803820263,1.06328171639956,1.1979929202627329,-0.113075672872327,-0.8646467016395918,-0.3730203105568026,0.0007073882686143793,0.08440441860075697,0.823866879551753,1.470377478330432,6.266398776307981,1.0412966244647903,1.0383634796455863,1.1052985166159226,1.378900851098737,1.6837836968531328,1.8119134236765926,2.479986403077901,0.8964441510282248,Relax,0.796727082575115,1.5275378379743185,-0.44928274296568604,0.3144861760214732,1.0,-2.4423196618113914,0.0,0.010587269149069304,0.523963650584157
127.94599625510145,470.35714285714283,61.79435527524873,,,,,,,82.01226722904265,82.25597078521092,0.13137752070667916,0.17436169190684847,457.0,40.771499999999996,0.08921553610503281,64.75,0.7534769780558604,429.0,515.0,34.523809523809526,61.30952380952381,347.0,720.0,8.4,109.375,,,0.018955988254617275,0.016429599580595262,0.01274577325248027,0.0481313610876928,1.1537705567094825,0.3938386080559921,0.341349157998283,-4.108670718465777,58.16375473530518,65.10971632961034,0.8933191236905098,11897.291714320614,1.119420790936129,4.782418220313189,291.54068060527754,0.6964285714285714,0.7030303030303031,0.9051724137931034,0.3055555555555556,49.35412026726059,49.52594772512209,49.172918652807084,49.09090909090909,0.4438038395931783,0.5561961604068216,38.74927127181085,43.37924660646584,0.5267932412206081,0.47320675877939194,47.256973054117324,44.78899036911591,0.4899583889581595,0.5100416110418405,43.21300456074511,44.0897533131528,0.3375295706171277,3.1930959550053415,0.923706525965754,1.6532315927525867,-1.8084475028539782,-2.2304093177075313,-0.2715304904497891,0.008066169625527824,0.9370706684061795,0.7086074163525264,1.148802033191965,6.590720455514482,0.9671952986801304,0.8573439624455843,1.2024411233850143,1.3776898307433447,1.6073265474378833,1.9691470995091247,3.609518260128724,0.8360358990047407,Stress,0.824560411229847,1.027482024250237,0.8637672341093836,1.0135873147540477,-0.7677684791136201,-0.8422896549607937,-0.3541871515912999,0.00018865839097076354,0.036184195371636696
129.91845203207777,463.52941176470586,59.14601093158682,,,,,,,82.7686945936308,83.00930126756104,0.1275992621620528,0.17856190458016796,449.5,41.5128,0.09235328142380422,53.75,0.7145939805137173,423.8,501.0,34.705882352941174,61.76470588235294,347.0,720.0,7.7272727272727275,109.375,,,0.018854274675232756,0.012511912396809832,0.011273418280094163,0.04263960535213675,1.5069059051308606,0.4421775135938948,0.29343405722170546,-4.381074096737434,58.69643982784949,59.30339667458228,0.9897652262641318,10935.564384220392,1.0103406075140662,4.745811311841844,239.66651929538045,0.7235294117647059,0.7305389221556886,0.9262295081967213,0.37142857142857144,49.13821138211383,49.24513615132434,49.0191151547603,49.101796407185624,0.44591500318286764,0.5540849968171322,39.19817628167826,43.69462481925252,0.5411965716490814,0.45880342835091853,43.62717452623831,40.169173504069015,0.49404279747648683,0.5059572025235133,41.47184213989283,41.96893337991352,0.3822597302497353,2.3760358362706784,0.8576051652043901,1.2574225473753002,-1.0534682628182566,-1.3737930734149066,-0.33172922896716656,0.003083629438838071,0.45397225386648066,0.6812176325878729,1.2515617671497339,6.557813548075888,1.0013946846686435,0.9243692757265962,1.2130348025588267,1.58304259095224,1.5954044911113303,1.9708636856349033,3.9353863533622397,0.8716930513103178,Stress,0.48835992467380807,1.6254119916219936,0.7433851254584251,0.6500581652977215,-0.1543550023935767,0.5348399212257471,-0.5574174182556466,0.00015166905989379728,0.12176099791969199
130.83906296422393,460.1046511627907,57.70423258108835,,,,,,,84.11423588407953,84.35996308186148,0.12541545153968,0.18281544355507695,448.5,37.8063,0.08429498327759197,49.5,0.6860221932065383,422.2,487.20000000000005,36.627906976744185,64.53488372093024,347.0,720.0,7.478260869565218,109.375,,,0.017183781108368653,0.00859842957284509,0.007239198199556027,0.03302140888076977,1.9984790202430884,0.5203830390887936,0.260389543156423,-4.756175700206222,59.651501955831044,55.86987621657534,1.0676863096062092,10470.055047177466,0.9366046852926552,4.726919074985673,209.31195132466058,0.7383720930232558,0.7455621301775148,0.9285714285714286,0.4117647058823529,49.5868622185499,49.70186733484705,49.45849909741662,47.337278106508876,0.44650868695551565,0.5534913130444845,39.8605289064995,44.37961243634288,0.5785632692912422,0.42143673070875765,42.49649758029564,36.26969481348552,0.5082167436401178,0.4917832563598822,41.19959994525406,40.5280197015804,0.39717461388686104,2.844165306948259,0.9036883604937387,1.648214595238338,-1.532198707162376,-2.1988016542698254,-0.23822680667479784,0.007867820940293235,0.8057880750021085,0.7227634671991079,1.3100473507174195,6.490027437975362,1.0816598377134514,0.9129853728564192,1.2364415588899385,1.570952059570742,1.598708699704326,1.9863566283014784,3.7631552009979043,0.9066951153996748,Stress,0.7522356594858629,2.684787400359126,0.8147680359323509,1.6599066852552429,-4.092634696479001,-3.7936778383537235,-0.1852120770494366,0.0022757998039582444,0.3631966905873267
131.1154579007968,459.15606936416185,57.08300698794571,,,,,,,83.55015204640111,83.79401346460534,0.12432157777418495,0.18196460336917933,448.0,34.099799999999995,0.07611562499999999,48.0,0.6832184692643481,422.4,483.6,36.99421965317919,63.005780346820806,347.0,720.0,6.92,93.75,,,0.014299941859316087,0.010645017093110335,0.00589991515124694,0.030844874103673363,1.3433460683281844,0.4636083717266035,0.3451146228488773,-4.542663374897229,59.2513151436593,55.14720974158222,1.0744209076272173,10265.29443639492,0.9307339357425846,4.718341520586834,205.3095182720185,0.7225433526011561,0.7294117647058824,0.9193548387096774,0.34285714285714286,49.896330085009325,50.01903328812285,49.75627904376644,48.23529411764706,0.45389982909513715,0.546100170904863,39.918887056876336,43.78592927344561,0.5700282876232614,0.4299717123767388,41.63626342309863,36.16125427089608,0.5078031899448209,0.49219681005517923,40.78661530267809,40.15497424220056,0.3946572267358931,2.334436748089985,0.8422412559746248,1.3467631612317543,-0.8786363164458759,-1.4439184780648953,-0.283878528441636,0.0047760001801150555,0.5213171096095588,0.7574288108787339,1.362001668550846,6.488831066117755,1.1141822571623614,0.970338188960731,1.3403800141095905,1.6551068584095912,1.591840123306485,1.9846373165630637,3.5611301259971864,0.9454440520694101,Stress,0.9169070096346881,0.9525030272253519,1.6959546835772121,1.2197031699645362,2.890827560117902,1.890827560117902,-1.0,0.0013038812687675714,0.11382493001828847
131.04550124757245,459.6046511627907,57.64445958572457,,,,,,,84.45785135184745,84.70456031820065,0.12542183687629188,0.1837619596280646,447.5,37.8063,0.08448335195530726,53.25,0.6825233967364437,422.0,490.8,37.2093023255814,61.04651162790697,347.0,720.0,6.615384615384615,93.75,,,0.011168052353563086,0.01718742515142318,0.007046513434317891,0.035401990939304157,0.6497804211608935,0.3154639628237417,0.4854931797731545,-4.063577258391117,59.89516899842461,55.318321723152934,1.082736553328155,10409.039656419542,0.9235857022894107,4.724380773078785,204.36484407259908,0.7209302325581395,0.7278106508875739,0.926829268292683,0.32432432432432434,50.41808609476619,50.52861242476217,50.28179170307014,46.15384615384615,0.4540956659684447,0.5459043340315554,40.36196520604661,44.25444477510639,0.5871569335999884,0.4128430664000115,42.38830910469623,35.54360659121385,0.515347739394517,0.484652260605483,41.387540299282044,40.13604272884861,0.36628304647488835,1.2177581442503684,0.7360710640209702,0.6520772322547719,0.5584587256178217,0.27535842341377303,-0.5689741490646352,0.001505927463858779,0.14492389717474394,0.7787533336507573,1.4243539229442357,6.487177292651681,1.1071076935654875,1.1376545662992468,1.3754079350870596,1.7697203376828397,1.5783800080628057,1.9852403582282314,3.357343120255412,0.9930470311520246,Stress,0.5979989159145493,1.034488981922717,-0.21973232639656182,0.2975121645647967,1.4577608711248384,-1.955434462043252,0.0,0.0011411914537498926,0.06163612957040564
131.20129639999107,458.7093023255814,56.49217019267055,,,,,,,83.37006208143298,83.61489852645853,0.12315462081598183,0.18174922910601626,446.5,35.5824,0.07969182530795073,53.5,0.6776073902582795,422.2,490.0,35.46511627906977,58.139534883720934,347.0,720.0,6.37037037037037,117.1875,,,0.00855344703920621,0.018309787400231113,0.007619121773746025,0.03448235621318335,0.4671516305589788,0.24805285886861878,0.5309900311635574,-4.000319531491958,59.12466175628387,53.9451785069039,1.0960138309435217,10020.079711760665,0.91239724515076,4.7078412864071995,196.87772903546045,0.7151162790697675,0.7202380952380952,0.9256198347107438,0.3157894736842105,50.03719842703794,50.16662005683702,49.88763763692816,45.83333333333333,0.4498416974675802,0.5501583025324199,39.65505679496329,43.85433776921583,0.5857806508588049,0.41421934914119524,41.28764820690588,34.71904937760406,0.5115971377461349,0.4884028622538649,40.479583890332805,39.55132950269169,0.36026054579897837,1.4748988497101623,0.755658553252173,0.7987100789037833,0.1673273641076225,-0.18534132526774616,-0.4708105232707514,0.0016932133330115108,0.19373676111130414,0.8139652516758531,1.4517289970201106,6.438546316043539,1.0820801744212059,1.0254750691220962,1.3660664491430858,1.7569810466746214,1.5539332136269686,1.9730493359651826,3.5947622147156166,0.9498710732758497,Stress,0.5207808485748509,3.3562789928156476,0.7881047956807867,1.438910171282646,-3.761079185029139,-2.6935984119589396,-0.3060931832559349,0.0015872631955752914,0.5096559835761896
130.89108708075477,459.8720930232558,56.458398804727324,,,,,,,82.90168911716776,83.14177074111223,0.12276978677606387,0.18027118926082653,446.5,37.065,0.08301231802911534,54.5,0.6810283289274451,423.2,490.8,34.883720930232556,59.883720930232556,347.0,720.0,6.615384615384615,117.1875,,,0.005827835932133787,0.015114128982201127,0.005348688176603263,0.026290653090938178,0.3855886064619952,0.22166950025834528,0.5748860224172462,-4.192125278464675,58.79010989089774,53.74756032414935,1.0938191340469592,9926.882936962653,0.9142279275186538,4.703783010442,196.55008273732352,0.7209302325581395,0.7278106508875739,0.926829268292683,0.3333333333333333,49.31885908897403,49.475786675618814,49.149715160071885,47.337278106508876,0.44433685321171174,0.5556631467882883,39.19025989436961,43.82559016078593,0.5958340531096017,0.4041659468903984,41.487896501253346,34.1694993334606,0.5133077566875489,0.48669224331245137,40.35543350459108,39.29527349211697,0.3291192966370422,2.6980579167784278,0.8251772530572984,1.3060179312857638,-1.308790201679363,-1.5100413379597204,-0.3217826699574316,0.003883752996530056,0.580617136866118,0.8033106289044012,1.3763241888000408,6.5264498944084455,1.0767281214027185,1.0039740289054828,1.360609422785671,1.7086739491442704,1.5604021333363793,2.0092982781222126,3.7434166963782847,0.9930470311520246,Stress,0.5613209596965307,1.898850280201981,0.7475555878876108,1.3179954077461367,-1.902240021175384,-2.4640503884336526,-0.19958673108348066,0.0009560906062193263,0.2188106502148929
132.1738076202795,455.07471264367814,46.849410008291905,,,,,,,69.84731490074569,70.04996920227697,0.1029488317118926,0.15348537934568973,445.5,34.8411,0.078206734006734,53.5,0.6707403151411873,422.6,489.4,29.88505747126437,56.32183908045977,347.0,677.0,6.6923076923076925,117.1875,,,0.005659668195198279,0.014099194757786804,0.005230728373182015,0.0249895913261671,0.4014178321831122,0.22648102249162946,0.5642026943843318,-4.26163759260564,49.53280824483885,44.10774891006296,1.1229956066413125,6863.690899038448,0.8904754338183286,4.543527827129855,157.1074673817529,0.7298850574712644,0.7368421052631579,0.9365079365079365,0.37142857142857144,50.12440905697934,50.23363430985558,49.99744826529834,47.953216374269005,0.4501567524401486,0.5498432475598516,33.23345015646623,36.729328943654316,0.5882542950064485,0.4117457049935516,33.829645511985554,28.30280195398604,0.5112315227062256,0.48876847729377426,33.53287286208065,32.787895656001766,0.3405158126691567,1.9391981177155744,0.807927809126872,0.7218219431742061,0.07183203684369133,0.4696516956371427,-0.5444028205091808,0.0016298005738746106,0.27463563270478664,0.8152078087119068,1.4616641630940346,6.465855746030656,1.1339061838240807,1.3328558698900732,1.3822413976553032,1.8633648770378752,1.58466356832273,1.9673864312265026,3.5799906664880536,1.026612895979135,Stress,0.6652274409894537,0.5101567961425274,0.8571734875947885,0.9203058390607175,0.5672476051505271,-0.4250534339196961,-0.376249121949772,0.0007094859118381971,0.03510049021446901
131.85087064877828,455.8901734104046,45.60427058839979,,,,,,,59.67830426545312,59.84374912892341,0.10003345816218241,0.13090500244612446,447.0,35.5824,0.0796026845637584,54.0,0.7641683380537913,424.0,490.0,27.167630057803464,54.91329479768786,346.0,614.0,6.92,117.1875,,,0.00799228540025931,0.015096859513407335,0.005620519083905579,0.028709663997572223,0.5294005281801464,0.27838310475995687,0.5258459142776444,-4.193268536036488,42.315920820688284,47.92128629745403,0.883029736681681,6370.626375763075,1.1324646933838027,4.511152245305564,217.07665917361484,0.7052023121387283,0.711764705882353,0.9256198347107438,0.32432432432432434,51.24364047484454,51.32371152300278,51.173069828408025,48.8235294117647,0.5104917251354113,0.48950827486458875,30.238622141325283,29.610631092298767,0.47969633897449016,0.5203036610255098,33.19033751452739,34.56661939030648,0.49319066278259843,0.5068093372174017,31.748801342208903,32.18416264064145,0.45423776084924344,1.5994982648601717,0.8235620451235439,0.8535133394729408,0.10025104572169319,0.07279280379482844,-0.4812745690274223,0.001250177330218407,0.19261102482220313,0.8258420637353767,1.488077055429833,6.503802687307253,1.1791714001576694,1.1409310416407157,1.4049579876637113,1.9202181608787823,1.6881741882819676,1.9293140209880366,2.7467698385283477,1.0313935113484474,Stress,0.9053321370718476,0.7372348242373999,1.5677980093033197,1.1991805971846197,2.5977487266583292,1.5977487266583292,-1.0,0.0008514411162708282,0.05679154999001074
130.58392351128413,460.52906976744185,48.674407858916545,,,,,,,59.267458009833426,59.42343085725462,0.10569236787483614,0.1286942820781375,450.0,41.5128,0.09225066666666666,60.25,0.8212670071127511,424.4,497.8,26.16279069767442,54.06976744186046,351.0,653.0,6.88,117.1875,,,0.00212211545755877,0.01852948565080646,0.004285633880965239,0.024937234989330467,0.11452640928899227,0.08509826604540273,0.743044914912756,-3.9883919967168295,42.01871092053467,52.55405132788063,0.7995332397569734,6937.432942859092,1.2507297386459637,4.548168908227728,262.92365952842675,0.6918604651162791,0.6982248520710059,0.9067796610169492,0.2972972972972973,51.79700977573318,51.61197564936686,52.02441959892179,47.337278106508876,0.5057686544800719,0.4942313455199281,29.891716342196762,29.54881305469268,0.587742777714932,0.4122572222850681,40.290239728017035,33.743516319915884,0.5557637706571356,0.4442362293428646,35.47406181439782,31.715589593870128,0.5601208287666544,2.666751083524942,1.0148702447447413,1.4414950884361457,-1.2421469452089173,-1.1605196095240013,-0.3400207479704154,0.0033157689303377883,0.5251309367108866,0.794666071227256,1.4858239564669236,6.556944734512146,1.166256239272534,1.2130373584169185,1.4133724121555307,2.079909481588813,1.6667286976162676,1.9094273131109254,2.831679590869735,0.8203431996473248,Stress,0.9722700475555744,2.722233086900659,2.3783539129417077,2.1958863436691067,-5.3477977763340565,-6.3477977763340565,-0.5670286354796846,0.0071123570970301475,0.7538937314247048
129.06385240207996,465.9294117647059,51.06366561849525,,,,,,,62.97256846197577,63.15936718783052,0.1095952827384127,0.1351547399067756,456.5,48.1845,0.10555202628696604,66.75,0.8108874525155921,427.0,504.0,29.411764705882355,57.05882352941176,351.0,647.0,8.095238095238095,117.1875,,,0.0023987762858117758,0.01023428908028344,0.0025976845846581585,0.015230749950753374,0.23438621549522826,0.15749561207215032,0.6719491235411695,-4.582011521950744,44.660416833966075,56.98382500005664,0.7837384877888012,7995.106302877695,1.2759358071355507,4.609794352458838,290.83081098047296,0.6823529411764706,0.6904761904761905,0.896551724137931,0.2777777777777778,50.23530993680247,50.24558832189802,50.22370914893669,49.404761904761905,0.4892349334578776,0.5107650665421224,31.238045332422388,31.9180032046403,0.5007907138554762,0.4992092861445235,40.325497235682654,40.26177572253901,0.49639352806796727,0.503606471932033,36.06910869078639,36.33021822741683,0.5058808819134767,2.981196927435473,0.9969349769304139,1.564389815070803,-1.4314838063888793,-1.3657664406030814,-0.3096553659645245,0.006126575724832289,0.7313125096190349,0.781474881408533,1.5404450409471488,6.637130862519204,1.1929152600965005,1.1086875683529864,1.442277706710972,2.137117987959297,1.767332297980663,1.9211282515183445,3.3234374387875665,0.7845237461792861,Stress,0.7640498853391906,0.6003014005939421,1.257967615126295,0.9578169148293241,2.299933915500562,1.2999339155005618,-1.0,0.0004078946626313662,0.04668871955896207
128.25470757983456,468.7573964497041,52.78082789404859,,,,,,,63.560619733860214,63.75058216633716,0.11259732282370882,0.1355938492176518,459.0,47.4432,0.10336209150326797,69.0,0.8304014044395955,428.0,505.20000000000005,28.402366863905325,57.396449704142015,351.0,660.0,9.38888888888889,117.1875,,,0.01480495727690127,0.005194188500144355,0.003946465507050499,0.023945611284096124,2.8502926446527335,0.6182743510387738,0.2169160953345201,-5.260214874497082,45.07846895440719,59.74994407476506,0.7544520694111535,8461.678747378537,1.3254652489461598,4.634426643024048,316.78589799031033,0.6804733727810651,0.688622754491018,0.9043478260869565,0.2631578947368421,50.0957330415755,50.15157459076662,50.034060864109044,49.101796407185624,0.46728067280378127,0.5327193271962188,30.814735179644444,32.9017317491923,0.5127715059844175,0.48722849401558266,42.78577915265186,41.706509314950516,0.4962705179281737,0.5037294820718261,37.283849062906015,37.56299290081837,0.4987631515431108,2.0822422522218056,0.9544205712588654,0.8725904912349887,0.15874526207386808,0.8334574610549685,-0.5392990200523315,0.002028315689621358,0.3115708762391065,0.7391465656856506,1.466337068793427,6.618016936141364,1.1925570728333725,1.0783993949062636,1.369712628194394,2.011538493150266,1.7456859846530233,1.9198016111242961,3.2363005885731337,0.9196359062835849,Stress,0.8120956017288897,1.3515836561491785,2.011787719612502,1.4100095751640578,-2.2688486403400248,-3.2688486403400248,-0.9452392877870256,0.002107406874477713,0.24666289165052208
