PPG_Rate_Mean,HRV_MeanNN,HRV_SDNN,HRV_SDANN1,HRV_SDNNI1,HRV_SDANN2,HRV_SDNNI2,HRV_SDANN5,HRV_SDNNI5,HRV_RMSSD,HRV_SDSD,HRV_CVNN,HRV_CVSD,HRV_MedianNN,HRV_MadNN,HRV_MCVNN,HRV_IQRNN,HRV_SDRMSSD,HRV_Prc20NN,HRV_Prc80NN,HRV_pNN50,HRV_pNN20,HRV_MinNN,HRV_MaxNN,HRV_HTI,HRV_TINN,HRV_ULF,HRV_VLF,HRV_LF,HRV_HF,HRV_VHF,HRV_TP,HRV_LFHF,HRV_LFn,HRV_HFn,HRV_LnHF,HRV_SD1,HRV_SD2,HRV_SD1SD2,HRV_S,HRV_CSI,HRV_CVI,HRV_CSI_Modified,HRV_PIP,HRV_IALS,HRV_PSS,HRV_PAS,HRV_GI,HRV_SI,HRV_AI,HRV_PI,HRV_C1d,HRV_C1a,HRV_SD1d,HRV_SD1a,HRV_C2d,HRV_C2a,HRV_SD2d,HRV_SD2a,HRV_Cd,HRV_Ca,HRV_SDNNd,HRV_SDNNa,HRV_DFA_alpha1,HRV_MFDFA_alpha1_Width,HRV_MFDFA_alpha1_Peak,HRV_MFDFA_alpha1_Mean,HRV_MFDFA_alpha1_Max,HRV_MFDFA_alpha1_Delta,HRV_MFDFA_alpha1_Asymmetry,HRV_MFDFA_alpha1_Fluctuation,HRV_MFDFA_alpha1_Increment,HRV_DFA_alpha2,HRV_MFDFA_alpha2_Width,HRV_MFDFA_alpha2_Peak,HRV_MFDFA_alpha2_Mean,HRV_MFDFA_alpha2_Max,HRV_MFDFA_alpha2_Delta,HRV_MFDFA_alpha2_Asymmetry,HRV_MFDFA_alpha2_Fluctuation,HRV_MFDFA_alpha2_Increment,HRV_ApEn,HRV_SampEn,HRV_ShanEn,HRV_FuzzyEn,HRV_MSEn,HRV_CMSEn,HRV_RCMSEn,HRV_CD,HRV_HFD,HRV_KFD,HRV_LZC,Labels
129.22777423850164,464.8588235294118,50.86858644944956,,,,,,,66.83318454340642,67.0317808998523,0.10942803250077728,0.14377092820564233,458.5,17.049899999999997,0.03718625954198473,22.75,0.7611276762730307,446.8,474.0,4.117647058823529,22.35294117647059,390.0,901.0,4.722222222222222,101.5625,,,0.0606240792987218,0.11629044862430316,0.034621856650404195,0.21153638457342916,0.5213160669332234,0.2865893705282544,0.5497420638005471,-2.1516643498782533,47.398626829296454,54.39823790198873,0.8713265108825082,8100.288085299671,1.1476753978105947,4.615470574720825,249.72607729744112,0.6058823529411764,0.6107784431137725,0.8529411764705882,0.25,50.100755667506306,50.17789781958319,50.00784447887,47.30538922155689,0.4833176131456095,0.5166823868543904,32.952030430973586,34.07043649349305,0.518659970734248,0.4813400292657521,39.17655085699679,37.74077569142567,0.5034075126888984,0.49659248731110156,36.19833177492207,35.95247413355338,0.6594748724656162,2.458504856874055,1.2125255285875247,1.245543463446285,-1.2382583981050637,-0.952379203959111,-0.4865699126985895,0.0027761571096348026,0.36644182783589724,0.5534964630838234,1.2571804188090285,0.7407732047707902,0.7046509378303706,-0.6734638363801242,-0.6570683354783156,-0.5287327629352034,0.0015205793181218695,0.08306535593023169,0.7876968147501233,0.7326621989098376,5.753924046045902,0.584342169447584,0.4491971266802382,0.8357980776163882,0.7806420705507618,0.8752336151752517,1.9325976057071275,1.7480223017158372,0.9588623564413495,Relax
129.17308462215848,465.0764705882353,50.547652008418936,,,,,,,66.17428128025706,66.36967306228833,0.10868675412558618,0.1422868828357601,459.5,15.5673,0.03387878128400435,22.75,0.7638564564735167,447.0,474.0,3.5294117647058822,19.411764705882355,390.0,901.0,4.722222222222222,101.5625,,,0.045621274359270506,0.08816755618734842,0.025576938590421386,0.15936576913704031,0.5174383450339629,0.28626771361446063,0.55324023888425,-2.4285162273213303,46.93044588747821,53.88980308280207,0.8708594799533641,7945.315547013905,1.148290881616804,4.607081259787835,247.52467796842703,0.6,0.6047904191616766,0.8415841584158416,0.21951219512195122,50.92073658927141,51.23534884584593,50.60456118770945,45.50898203592814,0.48794079374967037,0.5120592062503294,32.78283522995358,33.58327425257713,0.5217016857820591,0.4782983142179408,38.92402265780586,37.26971071041201,0.5071402990020453,0.49285970099795456,35.98467608288053,35.47441081936111,0.5261951502794142,2.0706045522313095,1.0861310109190345,1.053336093045348,-0.6578225339766917,-0.6533636390071552,-0.5158383298434973,0.0026092072785361595,0.2991427463683854,0.8077957382135892,0.838645038920288,0.873421561823909,0.8017167306994364,-0.12104562968294097,-0.22824425660305048,-0.5855008111856106,0.0013112804013036287,0.046204687213267,0.758115170598539,0.7101786624390782,5.703599595681527,0.5552505544260811,0.49129213683617556,0.8419072692489742,0.7800554468634522,0.8435399369207455,1.9890048240837799,1.6349975114618571,0.9588623564413495,Relax
130.23552330935436,460.9825581395349,36.95049221984733,,,,,,,47.17982272661291,47.31743799151106,0.08015594422698911,0.10234622090047069,457.0,14.825999999999999,0.032442013129102845,20.25,0.783184210630883,446.2,471.8,1.744186046511628,17.441860465116278,414.0,894.0,4.3,78.125,,,0.0409653330909378,0.07681117584820153,0.022182324241704566,0.1399588331808439,0.5333251657531678,0.2926955888379377,0.5488126337045988,-2.566405130558562,33.45848127217145,40.20853707098,0.8321238152262863,4226.436698840123,1.2017442376986431,4.332944478706962,193.28151092536996,0.5872093023255814,0.5941176470588235,0.8217821782178217,0.19047619047619047,49.120992761116845,49.14946832205096,49.093236307745805,46.470588235294116,0.46143155516439627,0.5385684448356036,22.728383395321053,24.554740766655367,0.5325606199863039,0.46743938001369634,29.34288401580134,27.490391249009225,0.5034586405010569,0.4965413594989431,26.24484953404644,26.063930106003294,0.8661820776750104,2.199222288768988,1.1573534805709909,1.2487658513776099,-1.3820433123857079,-0.8596156259857541,-0.4584342286482614,0.001047319915768984,0.22482449085463388,0.48369751488533647,1.0316706126444235,0.7475167761527608,0.4846165999022455,0.18021622647906632,0.20598546853041905,-0.7548295677208814,0.002430414146563006,0.10085912511137643,0.8983644732756786,0.9506272497188851,5.58359529935365,0.6954744017176366,0.7827751186435257,1.0499888532987234,0.9715086992335387,0.838575093746017,1.941399246488087,1.6374127035276143,0.9930470311520246,Relax
130.60398799886786,459.6744186046512,36.230561833500644,,,,,,,46.87154275749665,47.009194805748685,0.07881787710414488,0.1019668288258806,456.5,14.0847,0.03085366922234392,20.25,0.7729756628867506,446.0,470.0,1.744186046511628,14.534883720930234,414.0,894.0,4.410256410256411,78.125,,,0.024034905255932628,0.04020678440176787,0.010623244777452093,0.07486493443515259,0.5977823298616197,0.3210435624805291,0.5370576319223878,-3.213719531383446,33.24052042526432,39.1464086995153,0.849133331244148,4087.988009271723,1.1776713540791086,4.318479723234542,184.4064165619695,0.6104651162790697,0.6153846153846154,0.8365384615384616,0.225,49.94644769725098,50.03354211220062,49.825387830015764,46.15384615384615,0.46440160031090527,0.5355983996890945,22.652424879936724,24.326939799325356,0.5344893478537357,0.4655106521462644,28.619461186072705,26.708945233542366,0.5051259623109415,0.4948740376890583,25.808970451398274,25.545721319707976,0.5134678074287046,1.8488799215611382,1.0162593257376245,0.927898161526173,-0.3389647418701056,-0.3356401979783378,-0.5477917268617649,0.0022364844329473108,0.24149858425286516,0.156650138908929,1.4108506962764713,0.8402921690654479,0.2269463948613878,0.7083589510165975,0.9320550023296332,-0.9347347141854253,0.007464712591519869,0.3059366830942388,0.9143508945767866,0.964129791393618,5.517895357345968,0.6856359418658963,0.7568407590429794,1.0552083828646617,0.952854469001852,0.8142153608979408,1.9348635647869867,1.5895741259411145,0.9930470311520246,Relax
130.76022080425872,459.12138728323697,36.039097863409985,,,,,,,46.67888821138698,46.81508426547026,0.0784957940571326,0.1016700365182297,456.0,14.825999999999999,0.03251315789473684,18.0,0.7720641867091107,446.0,469.6,1.7341040462427744,13.872832369942195,414.0,894.0,4.119047619047619,70.3125,,,0.01117099792852336,0.017912155684032153,0.0036049201615236844,0.0326880737740792,0.6236545799164632,0.34174537189712517,0.5479721995193253,-4.022275708118266,33.10326354593366,38.93751947616355,0.8501636465619886,4049.384027928456,1.1762441314021608,4.314359075493241,183.20011510077887,0.6127167630057804,0.6153846153846154,0.8461538461538461,0.1951219512195122,49.712230215827326,49.77069106106248,49.62706212543773,45.562130177514796,0.46390624749849246,0.5360937525015076,22.5468971945014,24.237735790649047,0.5383473228360238,0.46165267716397634,28.56929740593812,26.45610834358813,0.5071160757779148,0.4928839242220852,25.734872521234273,25.371179564074108,0.25664952411631015,2.3282323082266307,0.9993823700601558,0.9547074269489522,-0.6574262253190728,-0.7253097227577262,-0.5191883528775665,0.005434762163946469,0.4408957614572588,0.8584071199444324,1.032195777313751,0.891897604990752,0.9349218517543827,-0.37148099493181874,-0.3896963578903172,-0.4583177458101993,0.0005803171416257157,0.044996687303454345,0.9110694280742377,0.9215058675532631,5.474881014761673,0.6709880700449574,0.7880423839395405,1.0572812194026695,0.9579590541721033,0.7950244852877117,1.9981377575245876,1.5688446205326594,0.9024693224298914,Relax
131.57455318268416,456.08620689655174,13.46064846898177,,,,,,,15.754804753863818,15.80045108862761,0.029513386428796078,0.03454347997293696,455.0,13.343399999999999,0.029326153846153846,19.0,0.8543837057505005,445.6,468.0,0.5747126436781609,12.643678160919542,414.0,492.0,4.2439024390243905,70.3125,,,0.04673719625873785,0.04334256898944089,0.005016996315941863,0.0950967615641206,1.0783208598023795,0.49146990381186123,0.45577334366130257,-3.1386200093781893,11.172606110574952,15.383186440303296,0.7262868557130139,539.9464178872825,1.3768664435187596,3.4393207742838796,84.72237281618563,0.6206896551724138,0.6257309941520468,0.8504672897196262,0.21428571428571427,50.22244191794365,50.2193304411045,50.225687876873735,46.198830409356724,0.45751146922521607,0.5424885307747841,7.557146625299727,8.229096138447645,0.5598008031187144,0.4401991968812856,11.509675043151404,10.206361029191012,0.5244767356705773,0.4755232643294229,9.736094820697396,9.27059406710279,0.8010837423224693,1.461324845918675,1.0532508723384926,1.0459784643672378,0.004524463446845317,0.2466902667722195,-0.504976585453649,0.0002978472387895907,0.11486812917002068,0.8311163250759601,0.5318365495673021,0.5051365593280086,0.7710548341116596,1.5841324818985525,-0.18893531551795784,0.0,1.4981586303847192e-05,0.008356875739876698,0.7921793553868897,2.2540580520993854,5.4490403560789975,1.2911641603320596,1.5491238042595494,1.3018686603628213,1.9663311220844333,1.8995202803142976,1.9129710064322416,3.409960593322375,1.026612895979135,Relax
131.70154657712743,455.6264367816092,12.76979781997477,,,,,,,14.583227359923244,14.625485493393443,0.02802690271920193,0.032006982437046944,455.0,11.8608,0.026067692307692306,16.0,0.8756496422093758,446.0,466.0,0.5747126436781609,10.919540229885058,414.0,492.0,3.8666666666666667,70.3125,,,0.026833930738394053,0.05500187311705027,0.003797481347964349,0.08563328520340867,0.4878730344562699,0.3133586510742194,0.6422954927678157,-2.90038803765594,10.341779970523982,14.811455621807703,0.69822846819304,481.2191569679119,1.432195972455722,3.389313017906095,84.85162835103861,0.6206896551724138,0.6190476190476191,0.8461538461538461,0.19047619047619047,49.78586723768738,49.79965563246293,49.772076802032366,45.83333333333333,0.4227549467275493,0.5772450532724506,6.724218637066299,7.8573769219137795,0.5802346227984043,0.4197653772015958,11.282349825957603,9.596238848710131,0.528621651149074,0.47137834885092594,9.287263694823016,8.77001060816111,0.7829895372000331,1.9584792623889258,1.0616157579348169,1.117617055522074,-0.9015740355814152,-0.23145877935809134,-0.47140572348009063,0.00015381401153399135,0.16701247422402182,0.8673020105146461,0.09995618317590782,0.784462342146103,0.834440433734057,1.0342330296147295,-0.0022199153142643535,0.0,2.0182500652191444e-05,0.001170717412165241,0.8331088711644368,2.1449561487904627,5.400114221005413,1.3007110871077332,1.7494485485537592,1.325717077749326,1.9687846974909877,1.9010190968299716,1.895268158728702,3.0974526588523603,1.1549395079765268,Relax
131.10702320893503,457.65895953757223,17.84215002503328,,,,,,,14.404658484202658,14.44558509028178,0.038985689350562146,0.03147465636586119,455.0,11.8608,0.026067692307692306,17.0,1.2386374897121275,446.4,466.6,0.0,11.560693641618498,414.0,561.0,3.9318181818181817,70.3125,,,0.03578239594196185,0.039968772414523006,0.0029159292586167455,0.0786670976151016,0.8952588178304921,0.4548584735773036,0.5080748321246094,-3.219656819401977,10.21457117554553,23.056339133561636,0.4430265844188956,739.8784246094648,2.2572008885463823,3.5761304731265984,208.1711567156082,0.5895953757225434,0.5892857142857143,0.8282828282828283,0.16666666666666666,49.17509313464609,49.19558064418507,49.15618568323242,47.61904761904761,0.466362184426574,0.533637815573426,6.976149845485449,7.4623812890339485,0.44403834552208954,0.5559616544779105,15.363868784994235,17.19146038588013,0.44770149933114317,0.5522985006688567,11.93136896397867,13.252045968495011,1.0269112381216763,0.9164521393367426,1.2363358087761807,1.4851373077900476,-0.4699189218314821,-1.4606172401145538,-0.22851664769539382,0.0006408044034237494,0.07028602120395731,0.9237119409050266,0.8176366537118152,0.969614055842691,1.0052575134306816,-0.004251866854156461,-0.1240708679066942,-0.4564067273327579,7.28199123819102e-05,0.023138373594803915,1.044164052249152,1.8209006041355542,5.469440639646846,1.1012247511067679,1.4095781036641228,1.3386513453224507,1.611395062832276,1.6008387111455067,1.8406569476114403,2.653713145377052,1.0313935113484474,Relax
131.3040207343217,457.02312138728325,17.67239134304385,,,,,,,14.040017557797277,14.080738754141032,0.03866848418828288,0.030720584803629027,454.0,11.8608,0.02612511013215859,17.0,1.2587157580318902,446.0,466.0,0.0,10.982658959537572,414.0,561.0,3.6041666666666665,70.3125,,,0.05219264222539258,0.04453926289844585,0.002572378094364319,0.09930428321820274,1.1718344406461605,0.5255829913268587,0.44851300925841314,-3.1113841664940347,9.95658585716934,22.974300695604644,0.43337927839841484,718.6254882832519,2.307447655770654,3.5634727267052635,212.0479851321722,0.5549132947976878,0.5535714285714286,0.7956989247311828,0.13953488372093023,50.419228619340416,50.4298271467178,50.40819229743161,46.42857142857143,0.4793983188320306,0.5206016811679693,6.893933259720004,7.184087354084102,0.4445883580612901,0.55541164193871,15.318679999061503,17.121814609976752,0.45009268433814337,0.5499073156618565,11.878305281123243,13.129502021202565,1.2091624757825281,0.7790064632650084,1.445283898972256,1.5986657074150323,-0.2898848642631062,-1.3364803460946304,-0.3031058589682103,0.0010577735018139423,0.06830369111449168,1.6747363478309347,1.6146685300766475,2.555727513902834,1.7483932488645104,2.7132612641697724,1.742234367766812,-1.0,0.007323963323022074,0.3572118265426337,1.0446263919486896,1.684590634813445,5.409824560792757,1.0655954073531353,1.433514922270261,1.3625873754209865,1.6416643987653994,1.5440382120036342,1.7741402206282746,2.112047449705808,1.0313935113484474,Relax
130.96476420738773,458.15028901734104,17.854400227230343,,,,,,,13.630079595051596,13.668756246302054,0.03897061871449469,0.029750236814836312,455.0,11.8608,0.026067692307692306,16.0,1.3099263362858415,447.0,466.0,0.0,9.826589595375722,414.0,561.0,3.5306122448979593,70.3125,,,0.0323732592261827,0.023522042621161206,0.002108195788639969,0.05800349763598387,1.3762945568791143,0.5581259845630269,0.40552800399693034,-3.749817313584812,9.665270232146161,23.320345222401606,0.4144565674294422,708.1069368712813,2.4127980555411073,3.5570689588749183,225.06913442863177,0.5549132947976878,0.5508982035928144,0.7934782608695652,0.11363636363636363,50.86805555555556,50.85249124096612,50.88236714822958,46.706586826347305,0.49392877261062773,0.5060712273893722,6.793314567059113,6.8763090194517975,0.4531554921387219,0.5468445078612783,15.69851597116608,17.245147073743187,0.45913341702144267,0.5408665829785573,12.095299221267203,13.127808715205049,1.1569227089462975,0.7755639374014036,1.171494063787096,1.4789622504673736,-0.15711222345123055,-0.8589302732789958,-0.10355533328370423,0.00031920016332992137,0.040917102764174824,1.1254056659008973,0.6720914805496649,1.0785928499345412,1.1120160341532555,-0.19498221107099845,-0.3064099211178837,-0.4502698885702593,0.0003814150591309454,0.019733699311991128,1.0405093764723774,1.7682792016192124,5.43262737901061,1.0623282548280426,1.4380758634326516,1.322248715099584,1.6299347175021202,1.528279555167269,1.7627247475756198,2.1759752964902725,0.9884187817089287,Relax
130.86334805558832,458.5549132947977,17.911398268378854,,,,,,,13.53312043976589,13.572181120483071,0.03906053069998162,0.029512540477492737,456.0,11.8608,0.026010526315789474,16.0,1.3235231555131792,447.4,466.0,0.0,9.248554913294797,414.0,561.0,3.5306122448979593,70.3125,,,0.029239755733807306,0.022107667687758462,0.0024804922049157705,0.053827915626481544,1.3226069862628724,0.5432080249345995,0.41071008287161365,-3.8118307764359036,9.596981305785613,23.48700453197352,0.4086081429720411,708.1286293825772,2.4473325292208497,3.5570822630711687,229.92204082022522,0.5780346820809249,0.572289156626506,0.8210526315789474,0.13333333333333333,50.554582603619394,50.56642665605813,50.5419750007572,47.59036144578313,0.4917939113044031,0.5082060886955969,6.730397136427767,6.841779119532275,0.4432627924961681,0.5567372075038319,15.637174069031166,17.52478727459378,0.4502066841520925,0.5497933158479076,12.037845705922964,13.302783741387213,1.3157983214020121,1.3305776092160033,1.5751596247192916,1.9810871260100138,-1.2365723094114305,-2.28671292597704,-0.19492384474296026,0.0022069113881800833,0.17781202772437196,0.9538852699024414,1.2953726749801644,1.1998715985855273,1.2342399504850965,-0.19011410977069154,-0.4443486772125267,-0.4734683673946607,0.0002991128915056646,0.09155741151708363,1.0386369256454944,1.7470235753866634,5.448699945322477,1.0330894775906463,1.4217806281840233,1.2836104354460727,1.732456949103286,1.5215195569867885,1.7299702826105003,2.075086792232547,0.8594945927903728,Relax
130.85975767341827,458.5895953757225,17.96700161207625,,,,,,,13.487720513532402,13.526779077444205,0.03917882523557012,0.029411309479191107,456.0,11.8608,0.026010526315789474,16.0,1.332100675874009,447.4,466.0,0.0,9.248554913294797,414.0,561.0,3.9318181818181817,70.3125,,,0.06598917419963178,0.029793834188922005,0.0015546098096386489,0.09733761819819244,2.214860087533413,0.6779411230842836,0.30608756142211907,-3.513453813290876,9.564877213273109,23.51801078376634,0.40670434677559586,706.691482768696,2.458788571915024,3.556199967076928,231.30326459719583,0.5953757225433526,0.5903614457831325,0.8469387755102041,0.15555555555555556,50.47003525264395,50.492797367226274,50.447466809342814,48.19277108433735,0.49316075423457995,0.5068392457654202,6.717133543479367,6.809650874254843,0.44796200403089936,0.5520379959691005,15.740596079527863,17.473707857421164,0.45437740236746077,0.5456225976325393,12.101368682504132,13.260878766426867,1.290733266631586,1.3557674423459303,1.580381487149098,1.9686169878045512,-1.292965012207853,-2.363094578721261,-0.21364152248436047,0.002694718165301103,0.19734462528995267,1.085276104300773,0.6765315354031314,0.8513463151864871,0.9810687465220789,-0.45352112966695657,-0.3532668194042978,-0.30825368139226084,0.0014936390554825122,0.047083667735193756,1.0575704881950756,1.8389380295031454,5.435460095290955,1.0332396182434762,1.414865903499224,1.2787624708022503,1.7752975836480855,1.53986602023144,1.720131913768719,2.004673096709541,0.9024693224298914,Relax
130.59069079438865,459.5,17.720540168393544,,,,,,,13.513476054950454,13.553162025682155,0.03856483170488258,0.02940908825886932,458.0,11.8608,0.025896943231441046,16.0,1.311323607363177,448.0,468.0,0.0,9.883720930232558,414.0,561.0,4.3,62.5,,,0.05992340328747237,0.029261217255122953,0.0018048711857899884,0.09098949172838532,2.047878007432558,0.6585749865088928,0.32158897361984656,-3.5314922829183906,9.583532774879856,23.233076666537055,0.4124952072612561,699.4911605305729,2.4242705912620326,3.551752340645175,225.29305802888766,0.5872093023255814,0.5792682926829268,0.8315789473684211,0.17777777777777778,50.029850746268664,50.03071185592337,50.02925274829588,48.78048780487805,0.49213821372530203,0.5078617862746982,6.723094525588644,6.829649891982664,0.4444622543653098,0.5555377456346902,15.489028109025147,17.316635343825244,0.45139483508635503,0.5486051649136452,11.939639688076252,13.162636082450893,1.2004298119693613,1.4467267711469396,1.3569009723441812,1.923793197542831,-1.463457555852587,-2.4850808433684057,-0.10815529476293047,0.0018446033591390024,0.18643060461182526,0.6800147140578053,4.054929388390747,1.306411417916067,1.7752902771667678,-4.265999225846258,-3.387281067220716,-0.3843681814551199,0.0025630962991487227,0.7764671246257842,1.0646874171244378,1.845040835840992,5.429748500027769,1.0494248648887554,1.4312832974814949,1.3121620977431219,1.9341335817900283,1.5494126388113256,1.7088208279482462,2.2227348690572235,0.8635191575234997,Relax
130.76907333111097,458.8779069767442,17.90331996499738,,,,,,,13.435790554941578,13.475217732862665,0.03901543241196991,0.02927966317546532,457.0,11.8608,0.025953610503282275,16.25,1.3325096049828404,447.0,466.0,0.0,9.883720930232558,414.0,561.0,4.195121951219512,70.3125,,,0.06790327803353846,0.030423638424233786,0.0021265130360849306,0.10045342949385719,2.2319249619877968,0.6759677432186704,0.3028631135594452,-3.4925353929839336,9.528417836872404,23.533570280953086,0.4048861997188857,704.4634821704842,2.46982979586438,3.5548285951248335,232.49565233186559,0.5755813953488372,0.5670731707317073,0.8172043010752689,0.18181818181818182,50.150511739915736,50.15314200544183,50.14786469204828,47.5609756097561,0.4936019955294956,0.5063980044705043,6.694378677842548,6.780595150002342,0.45828779670994685,0.541712203290053,15.931510918967346,17.320966774616906,0.46326160628231555,0.5367383937176844,12.219405591998505,13.152801233874442,1.2255159114068868,1.7545036351233287,1.2511675060357625,2.0771486042554836,-1.5608954247886668,-2.4071157366786453,-0.029222350022853796,0.0029607781682627608,0.287535564299239,1.2454337086813616,1.0179944591881593,1.2454337086813616,1.3344438484841614,-0.28276266094274405,-0.12275815985402083,-0.41256323745240764,0.0004595748749812597,0.042317454171739245,1.0029958655689972,1.67555746156899,5.464875499911296,1.0239974722133294,1.5186973868946967,1.3038049647746537,1.874098631272267,1.5397493272988845,1.7028154382097038,2.1346929994700607,0.9930470311520246,Relax
130.69155595352143,459.20348837209303,17.56256616927482,,,,,,,13.260987940933761,13.29990132673914,0.038245715927671384,0.028878238682255763,457.5,11.8608,0.025925245901639343,15.5,1.3243784133958096,447.2,466.0,0.0,9.30232558139535,414.0,561.0,4.095238095238095,70.3125,,,0.0704242931333047,0.028281551064619024,0.0020100799440122804,0.100715924141936,2.4901142434655,0.6992369253749566,0.2808051587230899,-3.565545592759805,9.404450417249206,22.984555320513238,0.4091639053315045,679.0775915438581,2.444008347192307,3.5388895096533686,224.6977802393508,0.5755813953488372,0.5670731707317073,0.8172043010752689,0.18181818181818182,49.84746796827335,49.84008859138642,49.85511204886501,47.5609756097561,0.507299391440258,0.4927006085597419,6.698331662348732,6.601247653908713,0.45531391917845,0.5446860808215501,15.50927760045387,16.963257104512493,0.46276901321128494,0.5372309867887151,11.945822256060143,12.871063712491459,1.2585145640290967,1.634522725867273,1.3851546450979324,2.0757759269627334,-1.6460359824368158,-2.656102640100625,-0.07747832383403594,0.0023821341394948668,0.24257062497039036,1.0724418050612503,1.796019301137675,1.1506235213795009,1.5756775362760966,-1.8828682442333289,-1.7693451503788156,-0.2633354972146744,0.0007529856318973585,0.1475223606387333,0.9990844645806933,1.6270595137839197,5.410418896238179,1.0159521845769894,1.3271714713931813,1.406190720730278,1.7887667848495248,1.5574443157353222,1.7068816851906978,2.0550247627098686,0.9498710732758497,Relax
130.8456713483171,458.5606936416185,17.791200581206294,,,,,,,12.690181152151398,12.727220833426237,0.038797918853269074,0.027673940065323668,456.0,13.343399999999999,0.029261842105263156,16.0,1.4019658480753923,446.0,466.0,0.0,8.092485549132949,414.0,561.0,4.325,70.3125,,,0.06197557763345736,0.026863856089127957,0.002140422209499739,0.09097985593208506,2.3070246292206513,0.6812010966440867,0.29527257230635073,-3.6169735356770856,8.999504156974394,23.463167877292804,0.383558784731875,663.3688930590225,2.607162291170167,3.528725212524274,244.6891460842919,0.5722543352601156,0.5662650602409639,0.8085106382978723,0.18181818181818182,49.906191369606006,49.90053251175399,49.9120153080803,48.19277108433735,0.5109931766489766,0.4890068233510237,6.43319243550826,6.293271260472946,0.45233982329821437,0.5476601767017854,15.780438244130032,17.363698213837495,0.45986210485137663,0.5401378951486234,12.050066308719684,13.059542082690307,1.397277973936984,1.5834404730315736,1.732993293449393,2.188998210452771,-1.3923475123016296,-2.4832329262800172,-0.21201638156290503,0.0048521011573739725,0.3069267771710342,1.4622938022050906,1.9428775570839054,2.0310260083115077,2.4337325807470434,-2.4680570998800455,-3.572552723996493,-0.29272673619228784,0.0050497083169480355,0.3895515841475677,0.9660358235666293,1.537432990477157,5.422620275614369,0.9833330838257379,1.3987633619478232,1.4624999631204039,1.8939392134548771,1.5654327192639108,1.6955180202764426,1.9995070115055338,0.9884187817089287,Relax
130.9277119649177,458.28323699421964,17.948427635233905,,,,,,,12.695677711652085,12.732156656964872,0.039164486471191376,0.027702688396198563,456.0,13.343399999999999,0.029261842105263156,17.0,1.413743168571525,445.4,466.0,0.0,8.092485549132949,414.0,561.0,4.435897435897436,70.3125,,,0.059637823313013844,0.029451702936248925,0.0019717601158475997,0.09106128636511036,2.0249363319365847,0.654919622746113,0.3234272665352242,-3.5250035458959177,9.002994311269305,23.767935957540825,0.37878738512895294,672.2461397029957,2.6400034406097337,3.5344984269776196,250.98973081639832,0.5664739884393064,0.5602409638554217,0.8172043010752689,0.15555555555555556,49.34579439252336,49.35248650920985,49.340815356850165,49.39759036144578,0.5083143959888899,0.4916856040111099,6.41908703497414,6.313218287545492,0.4484992270921341,0.5515007729078657,15.917406888692446,17.650805579960615,0.4560052337655336,0.5439947662344663,12.13607268482615,13.255332186855364,1.322527517221804,1.2297809601602463,1.5014503044477632,1.9374179973019272,-1.247746568438263,-2.2965124987086316,-0.14549158998415834,0.0015496945004189312,0.13815634239865732,1.4958637641967147,1.2328684711112874,1.7730702451121334,1.1566360095564896,1.5544129618308373,0.15806691625639124,-1.0,0.002132843073282931,0.16182849802065422,0.9540702229545106,1.491128422435471,5.451796381190675,0.984954784229883,1.3352435651274934,1.4505448126307583,1.8605667516757787,1.5763985473933009,1.7019215024632632,2.3425043024746093,1.0313935113484474,Relax
130.72877503420196,458.9360465116279,18.445160780224995,,,,,,,12.44261682486013,12.477918576925557,0.040191135388964606,0.027111875215373553,456.0,12.6021,0.027636184210526316,17.0,1.4824181311580606,446.0,467.6,0.0,7.55813953488372,414.0,561.0,4.526315789473684,70.3125,,,0.0485628291893788,0.025223536713164747,0.0022399673933013895,0.07602633329584493,1.9252981745431732,0.6387632690426345,0.33177368445497935,-3.679977723813984,8.823220840837655,24.496477987264402,0.3601832412571637,679.0170349266348,2.776364598501738,3.538850779797278,272.044617087272,0.5813953488372093,0.5757575757575757,0.8421052631578947,0.18181818181818182,50.968992248062015,50.93790680841636,50.99897036463611,49.09090909090909,0.5311248772380449,0.46887512276195514,6.430853936526717,6.042253183160382,0.4350840431260685,0.5649159568739314,16.158097538941536,18.41177117233921,0.44611476516459464,0.5538852348354054,12.297154110421031,13.702228673321596,1.276943730418134,1.9165079813978674,1.3774025205406863,2.2351977211170677,-1.871051187325838,-2.880953574632432,-0.05241762157926394,0.003931499858385422,0.35947329948066836,0.6244780865233768,1.8893018335945007,1.0033931726257928,0.4599687142042754,0.9688637165653724,2.2778173910846338,-0.7876324199546362,0.004503782466735108,0.3833427516696713,0.9452035647085033,1.4685969567608645,5.481551002933339,0.9420609180480212,1.4521169025734884,1.3866892700229585,1.8873061584920714,1.5424639423659452,1.684490513618284,2.1494670706311445,1.0362229890281998,Relax
130.4909646852227,459.84302325581393,18.219063601781837,,,,,,,12.38065837322014,12.416950807451125,0.039620180540711265,0.026923662526315402,457.5,12.6021,0.027545573770491803,17.0,1.4715746976098139,447.0,468.8,0.0,8.13953488372093,414.0,561.0,4.095238095238095,70.3125,,,0.05060868356028321,0.022932599402213687,0.0016712824354583374,0.07521256539795523,2.2068446176842014,0.6728753804967152,0.3049038319711023,-3.7751958260334995,8.780110117608467,24.299276391722742,0.36133216380876704,670.2598057992516,2.7675366329393367,3.5332132863255543,268.9965502720427,0.5813953488372093,0.5757575757575757,0.8315789473684211,0.20930232558139536,50.22920759659464,50.228925297674934,50.22918877045386,49.09090909090909,0.5188279729884399,0.4811720270115599,6.3243227956461405,6.090494039653829,0.43116243013023375,0.5688375698697661,15.955624110262276,18.326835308185423,0.44128643617230173,0.5587135638276983,12.136288550696055,13.655896346641086,1.3138848371435006,1.4201214472831012,1.4142818451647554,1.7764137778758222,-1.338353423991915,-1.6554830789362454,-0.24499932142854552,0.000327877192320829,0.09486486016739235,0.990393836627238,1.0553352057748837,1.4709203111979026,1.2169051857338804,0.651846869256163,0.3591206064576187,-0.7406961542399324,0.0011274589472880646,0.09797323683745933,0.9216111532700388,1.367042429620569,5.464669188354617,0.9238276482176327,1.5626536709841328,1.233795863706511,1.7877403607783033,1.5198862492687042,1.6766321711051972,2.1110667128410996,0.9498710732758497,Relax
130.31227691948393,460.4593023255814,18.59332633784836,,,,,,,12.076752593987106,12.11207836749998,0.04037995593517491,0.026227622143786943,458.0,11.8608,0.025896943231441046,16.25,1.5395965258993376,448.0,469.8,0.0,8.13953488372093,414.0,561.0,4.195121951219512,70.3125,,,0.05236462329022428,0.025079920000305733,0.001660865842049535,0.07910540913257956,2.0879102999366004,0.6619600842018515,0.3170443118279325,-3.6856877530029775,8.564532747922122,24.90517275304391,0.34388569928210455,670.105381247704,2.9079429650247133,3.5331132154917957,289.6912875997568,0.5523255813953488,0.5454545454545455,0.8,0.17777777777777778,49.66843501326261,49.67315459729997,49.66489394853421,49.696969696969695,0.5105453087409784,0.48945469125902163,6.119640512317697,5.991906305715284,0.4292205918559957,0.5707794081440046,16.316606240183,18.8158441389639,0.43782098149690857,0.5621790185030914,12.322370697174687,13.963146705493227,1.3940564881518256,1.5513849711913625,1.5061090737933847,2.169748973747507,-1.6819525891468121,-2.704041075999648,-0.07222745335447589,0.00221346062327876,0.21800575926678853,1.0330142672107352,0.91416809195184,1.1296096450539441,1.0620935303649448,0.2606356718163019,0.3313042760353415,-0.5738552518769777,0.00012907458135511196,0.03474730381989094,0.8895397471244588,1.3409257560900398,5.463304857865901,0.9368136484349334,1.2254573931844175,1.236017619887739,1.7644003837585327,1.5022892410387996,1.6805772890266446,2.2811883706265044,0.9498710732758497,Relax
129.8034285504696,462.2690058479532,19.70243725308446,,,,,,,12.199566048212777,12.235570644683648,0.042621151329286545,0.02639062081576238,459.0,14.825999999999999,0.03230065359477124,20.0,1.6150113188633335,448.0,474.0,0.0,8.187134502923977,414.0,561.0,4.384615384615385,78.125,,,0.037120010157560356,0.023943401495268933,0.001953239456143704,0.06301665110897299,1.5503231721230184,0.5890508223512183,0.3799535689997911,-3.732062504765322,8.651854974542864,26.56734640274404,0.3256574760379248,722.116522646319,3.070711018725527,3.5655773921009635,326.3225733488165,0.52046783625731,0.5121951219512195,0.7619047619047619,0.16279069767441862,50.16611295681063,50.165754527412595,50.166315701362095,49.390243902439025,0.5242875775661041,0.4757124224338958,6.264627852488727,5.967366877913683,0.44606600984360156,0.5539339901563985,17.74384536798342,19.77321032206178,0.4535662478833265,0.5464337521166732,13.305818474883162,14.604610811249161,1.4122026675654222,1.3960611823398539,1.4606095443073968,2.109486018321046,-1.351842792107517,-2.252040076966355,-0.03520914253478022,0.0012108297185339408,0.15889113601612828,0.9229736477768357,1.447557513784989,1.4569664808259297,1.337850599985894,0.4822699278163336,0.2767082334721942,-0.5822874944212603,0.004027713025746465,0.22332505634275976,0.8592342499083498,1.3476092188086533,5.5791581793123335,0.9144504004702325,1.4799780902486976,1.2387555555052152,1.8725824446094979,1.5040273939283522,1.6780067308563704,2.1453139485857715,0.7374473260412882,Relax
130.07564436430823,461.3313953488372,19.81111249169452,,,,,,,12.052516662288289,12.087862038786291,0.04294334331335565,0.02612550713825739,458.0,13.343399999999999,0.029134061135371175,20.0,1.6437324292346744,446.2,472.0,0.0,8.13953488372093,414.0,561.0,4.777777777777778,78.125,,,0.018497747271036848,0.019181608237817668,0.0021755311322739315,0.03985488664112844,0.9643480901964963,0.4641274591394273,0.4812862324898226,-3.9538033633122316,8.547409217673232,26.713883636554378,0.31996131052907806,717.3339727912055,3.1253778725510006,3.5626915093827183,333.96392323035724,0.5116279069767442,0.5060240963855421,0.7619047619047619,0.16279069767441862,49.79784366576821,49.78743082073782,49.80877759234097,48.19277108433735,0.5178341384863125,0.48216586151368773,6.15080099996549,5.935189178807639,0.45084780264305263,0.5491521973569473,17.93709088077309,19.796271105494974,0.4570687287835607,0.5429312712164395,13.408422394269387,14.613672027770614,1.44242658021665,1.1585408296218302,1.5143532349996909,1.9382553600373265,-1.0276613173389393,-1.7238518992406942,-0.13410687461398724,0.000507939926673725,0.0857280183199666,1.3893273813187828,0.7048659320983863,1.0076696082954921,1.3601025743446853,1.6507164555753935,-0.5588105893243558,0.0,0.0009715185614416903,0.03287522793762377,0.863780411833353,1.3069576188833694,5.60872718305501,0.8972335937644823,1.3715165929654245,1.2049334549888489,1.863897976627359,1.5000351351758219,1.6358372588171326,2.0102951473413246,0.6908153260187998,Relax
129.7377313977171,462.48538011695905,20.43795682350286,,,,,,,12.201012494147891,12.236304561478802,0.04419157383598646,0.0263814014857342,459.0,16.3086,0.035530718954248364,21.5,1.6751033435385585,446.0,475.0,0.0,8.187134502923977,414.0,561.0,5.181818181818182,78.125,,,0.011247782019783135,0.013869860068400535,0.0018463037685419424,0.026963945856725614,0.8109513696831567,0.4171415444738257,0.5143853997519052,-4.278037133502213,8.652373932085546,27.59061424526297,0.31359845254518287,749.9745431346831,3.1887912452499148,3.5820166320684668,351.92283662544855,0.5087719298245614,0.5060240963855421,0.7619047619047619,0.16666666666666666,49.247874427730544,49.262466265942194,49.235540744483956,49.39759036144578,0.5081202829256727,0.49187971707432726,6.168012540375129,6.068640899481852,0.4602497842899065,0.5397502157100935,18.717944965440083,20.270188225610156,0.46453651318033445,0.5354634868196656,13.935670820370804,14.961766825287187,1.3688837834832541,1.7203345256180191,1.6674986487880856,2.2290510462922635,-1.1676595919665704,-2.157500804422785,-0.17357953401391862,0.003750198481841464,0.3157289455751708,1.014035546924433,0.45145517531987656,1.0195880077483754,0.9976787715405708,0.36361783020092897,-0.11766063542251892,-0.5485302581641265,0.00043528283921196077,0.01624471989988987,0.9208960449740786,1.2217906476427298,5.670160741313811,0.8967643344029704,1.1546281154124955,1.3473490793447875,1.6994904405016553,1.5386956062836286,1.6845786637666262,2.421498626519838,0.6506888170952543,Relax
130.24698395107578,460.7151162790698,17.41529889662864,,,,,,,11.34725666926278,11.379977467855666,0.037800580621886175,0.024629659996633118,458.5,15.5673,0.03395267175572519,21.5,1.5347585239525647,446.0,474.0,0.0,6.976744186046512,414.0,525.0,5.212121212121212,78.125,,,0.02069055307809777,0.0185728751035006,0.0021067254812207406,0.04137015366281911,1.1140199329826987,0.5001323719204152,0.44894382686793666,-3.9860530904266573,8.046859237270857,23.32661336227083,0.3449647453018658,589.695709608134,2.898846950649804,3.4775980779968627,270.4811280568231,0.5232558139534884,0.5180722891566265,0.7674418604651163,0.17073170731707318,49.317871759890856,49.31102389823095,49.32597654947523,48.795180722891565,0.4956399309655737,0.5043600690344267,5.665426623258782,5.715047218167349,0.48950317928572784,0.5104968207142725,16.320349293719378,16.666646029836528,0.49015585711822623,0.5098441428817738,12.215786096124473,12.458708893576173,1.3214999077803458,1.5697019823386849,1.5249988874725258,2.057504547896885,-0.9063709331170546,-1.8086782310114486,-0.1607600255234538,0.0020334954023024823,0.2270772620162926,1.060166057543266,0.774277528365442,1.417969077589448,1.4402835473639777,0.6091825349876716,-0.3767749162883094,-0.4711802694033532,0.002373496431452088,0.09824641751783976,0.8699534623911029,1.3888951428199479,5.679509835115126,1.022235591953222,1.3052867049821126,1.2658250011050993,1.7987464480878856,1.6984743785867815,1.6975694388821767,2.714106843257597,0.8203431996473248,Relax
129.72764370577931,463.0,37.75602795659024,,,,,,,52.8370413741768,52.992911412162925,0.0815464966665016,0.11411887985783326,458.0,16.3086,0.035608296943231435,23.0,0.714574983281385,446.0,475.0,1.7543859649122806,9.35672514619883,414.0,895.0,4.75,78.125,,,0.02677686129871755,0.021258529110078882,0.0016007723459223182,0.04963616275471875,1.2595820322311186,0.5394627588566354,0.42828711830786925,-3.850997094252992,37.47164701435838,38.23246807409308,0.9801001322158891,4500.751030186181,1.0203039129676676,4.360255099526158,156.0349471136344,0.5321637426900585,0.5301204819277108,0.7727272727272727,0.17073170731707318,50.52461662631155,50.68321397340848,50.336978699828585,48.795180722891565,0.48843863648814384,0.5115613635118563,26.18843866149006,26.801152496635826,0.5127206039128331,0.487279396087167,27.376171924028753,26.688327520145712,0.5008235767871722,0.4991764232128281,26.788888636341444,26.744799503552983,0.5746266093798291,3.332662299094687,1.414294057572119,1.0929019678302416,-1.21587349946385,0.013828538063863194,-0.596437040689416,0.008878224471637648,0.7630419556217015,1.1415414024389536,0.882834008091643,1.307784626477849,1.5044996490191918,0.6955520257094112,-0.14753045935942222,-0.27717779249740593,0.003047619579320856,0.12587466277321233,0.8381307431595015,0.78755686503102,5.705002793599542,0.6089918091135373,1.0654760817495326,1.1600632150255854,1.222854176622521,0.7032306367278823,1.8449457627609964,1.5003135950360693,0.7808265805143051,Relax
130.22138743438546,461.1279069767442,37.92584223249271,,,,,,,53.11049939700087,53.26629171265199,0.08224581869517042,0.11517520105257772,457.0,15.5673,0.03406411378555799,21.0,0.7140931202509907,444.0,471.8,2.3255813953488373,11.046511627906977,408.0,895.0,4.777777777777778,70.3125,,,0.007358002699879126,0.01378133817260777,0.0011999598466265735,0.02233930071911347,0.5339106121424498,0.32937479970371814,0.6169100074299317,-4.2844399083431295,37.664956078677015,38.377906512606096,0.9814228940889494,4541.178976622344,1.018928747253543,4.364138728583246,156.4174088204133,0.5523255813953488,0.5508982035928144,0.7934782608695652,0.20512820512820512,49.54198473282443,49.561218086058474,49.521556185458365,49.101796407185624,0.4849567943210655,0.5150432056789345,26.22952983364585,27.03091911562191,0.5116937131847069,0.48830628681529287,27.45277945691616,26.818064963383463,0.498575860758351,0.5014241392416491,26.84812223605401,26.9247023810436,0.5799264150705392,2.991698058264978,1.3438588532385114,1.3743659968502469,-1.6707696780086714,-1.3198302132043014,-0.48980273309084266,0.0065528296729729,0.5993057490191367,0.9849321393627076,1.1139126209591343,1.1310422314520057,1.0296465906731098,-0.2697419824192515,-0.2023231935135894,-0.5910265660618775,0.0017010603105434465,0.07617863474912036,0.8549742276276562,0.7895836980091582,5.667109996892024,0.6080232348677643,0.923733942401609,1.1834616717730264,1.2705923859140487,0.6952646221812383,1.8078355332989111,1.5441093466347695,0.8635191575234997,Relax
130.14599880118197,461.43859649122805,38.37524518129439,,,,,,,53.51321991697335,53.67128327237041,0.08316435918689759,0.11597040283124785,457.0,17.7912,0.03893041575492341,24.0,0.7171171019205015,444.0,472.0,2.3391812865497075,12.865497076023392,408.0,895.0,5.516129032258065,78.125,,,0.044584740933047526,0.08414711352416328,0.02309068988542262,0.15182254434263343,0.5298427844496981,0.2936635077885969,0.554246498031675,-2.4751886604884374,37.951328356877234,39.01483938590151,0.9727408584588819,4651.646224617244,1.0280230251500948,4.3745767875274515,160.43261284495816,0.5614035087719298,0.5602409638554217,0.7956989247311828,0.24324324324324326,50.164895566141446,50.26802145455574,50.04131160835749,48.795180722891565,0.4856570047019143,0.5143429952980858,26.447950446872753,27.217836998695798,0.5110957020874876,0.4889042979125125,27.892082289385815,27.279835737588716,0.49872778952181057,0.5012722104781893,27.179609427639928,27.24885400119972,0.8431739498057796,2.6190001217482273,1.429473299293433,1.2420748321358444,-1.1315861547356167,-0.34020406609499754,-0.571553439651044,0.005061639785367194,0.42836980458518104,0.5309129356860863,1.2703782924045657,0.481471138936441,0.4279641089545888,1.088341149559463,1.564721714546887,-0.5421189737747915,0.00591044542929797,0.2857459394223785,0.8876843670002699,0.8666351414282941,5.736734296783134,0.6386640925674392,1.1296156370562596,1.2121886844285072,1.333891249263286,0.7477271257876685,1.8082318925903336,1.5511870973482593,0.7374473260412882,Relax
129.97330737917656,462.10526315789474,38.36742684523499,,,,,,,53.70064081116176,53.859190729489264,0.08302746128239917,0.11620867601504253,457.0,17.7912,0.03893041575492341,24.5,0.7144686965683333,444.0,474.0,2.3391812865497075,14.035087719298245,408.0,895.0,5.516129032258065,78.125,,,0.021898282759543593,0.020328470191729522,0.0017470939268885426,0.04397384687816166,1.077222366120434,0.4979842409561567,0.46228546363145384,-3.895732902981404,38.08419899404149,38.82955270017834,0.9808044735438474,4645.763377356634,1.0195712060598534,4.374027196070584,158.35797550914188,0.543859649122807,0.5476190476190477,0.782608695652174,0.1891891891891892,49.698901877435354,49.732485855599336,49.65777607459842,49.404761904761905,0.48368856822896583,0.516311431771034,26.486738894739506,27.365377858261773,0.5127647307434174,0.4872352692565824,27.80490787738708,27.103897520946045,0.49850836831974277,0.501491631680257,27.153823297540338,27.234951497582927,0.5016379995190778,2.383191394833749,1.3495743418919819,0.9355063541422246,-0.04435343199395447,0.3945373899869421,-0.6737451673614501,0.009134540694919249,0.5645985558757609,0.4015485075530448,1.5619753585226535,-0.20643807730896668,0.23455685461344722,1.0,1.8552321038856983,-0.2176684449494034,0.01949222059115046,0.6755069661828406,0.9299621770357609,0.9489530443367565,5.767745810869722,0.6643914132063349,1.115625738979573,1.293669796057848,1.4487116425211264,0.773346994522275,1.8156448853097418,1.5683060758453427,0.7808265805143051,Relax
130.39470331270212,460.59302325581393,38.78999627081079,,,,,,,53.59175331514927,53.7490525192289,0.0842175072401537,0.116353810434042,456.0,17.7912,0.03901578947368421,26.25,0.7238053221118569,442.0,473.8,2.3255813953488373,13.953488372093023,408.0,895.0,6.142857142857143,93.75,,,0.06646302160254292,0.11815366233280761,0.03784971885840476,0.2224664027937553,0.5625134277711525,0.29875532110868724,0.5311078924683553,-2.1357692785142857,38.00631951869864,39.72178832626066,0.9568129009330656,4742.796389648716,1.045136409662557,4.3830045905592465,166.05874894673653,0.5465116279069767,0.5502958579881657,0.8064516129032258,0.1794871794871795,50.29709891646278,50.42508296396531,50.147394188407546,47.928994082840234,0.4842494273351999,0.5157505726648002,26.447895501732994,27.294580371331204,0.5188446002592009,0.4811553997407992,28.611949075784544,27.553163845935533,0.5023101320511034,0.49768986794889664,27.551177891207086,27.42417688434812,0.7895910790146048,1.7698272264588213,1.3516494474904746,0.7976086304889696,0.5779133899460547,1.2996647511260693,-0.813047968026836,0.005181795782173842,0.3200871053829275,0.7562592803001185,1.1996668604488048,0.6691678998217911,0.6365354639600604,1.093075585471894,1.5227079272838626,-0.5272012480610848,0.005658488567513275,0.2634901273938187,0.9560181965076535,0.9653934448818872,5.84321752047024,0.6703865387638864,1.244689324697517,1.3245994805130186,1.521764840323677,0.8094334578483199,1.8128425100195489,1.5504988160775433,0.7771672417711498,Relax
130.27549326255505,461.0174418604651,38.70135676742967,,,,,,,53.40521471789368,53.56168734800265,0.08394770621095786,0.11584206988432703,456.0,17.7912,0.03901578947368421,27.0,0.7246737415412468,442.2,474.0,2.3255813953488373,12.790697674418606,408.0,895.0,5.733333333333333,93.75,,,0.05563316325927965,0.08924791928851947,0.027008052500726736,0.17188913504852588,0.6233552972751053,0.3236572413001782,0.5192179206866331,-2.4163371718880473,37.873832335566384,39.672872007277384,0.9546531526283,4720.443089871344,1.0475008616971029,4.380952876065037,166.2294704544877,0.5523255813953488,0.5508982035928144,0.8043478260869565,0.175,50.606276747503564,50.74584180457203,50.42821525541523,49.101796407185624,0.48489887474575183,0.5151011252542484,26.373504975749476,27.182444594216445,0.5120001861857616,0.4879998138142383,28.387601536184654,27.714271636263867,0.49907783363546676,0.5009221663645332,27.399066459307296,27.44964614021706,0.5924531010210731,1.953529309510087,1.2884937703140218,0.8436774258299715,0.16870271081767108,0.5672851969694612,-0.7276988332443309,0.007578605694256327,0.39850902615767225,0.47656845370438566,2.128198882206203,1.060443501436989,0.5775133249832514,0.9654376718403594,1.8715814371006365,-0.726919664553675,0.00970639597738243,0.5999857370907026,0.9622329818278357,0.9811009552277709,5.829750511142239,0.6636700069398499,1.1371908888124065,1.268434525885217,1.48254559295281,0.795303994818031,1.8030508502535152,1.5629885803143335,0.8203431996473248,Relax
130.08458984210782,461.6279069767442,39.39143686789823,,,,,,,53.84225389128475,54.000182190827715,0.08533157608663092,0.11663561296348837,457.0,20.7564,0.04541881838074398,28.25,0.7316082448449354,441.2,477.8,2.9069767441860463,14.534883720930234,408.0,895.0,6.615384615384615,101.5625,,,0.055463705922782415,0.09340665890343909,0.027476935673497578,0.17634730049971908,0.5937874941027392,0.31451406267980136,0.5296744471775335,-2.3707926418193006,38.183895012443315,40.66556952621764,0.9389735704506892,4878.170313924043,1.064992702105576,4.395227068937899,173.23413908955476,0.5348837209302325,0.5329341317365269,0.797752808988764,0.15384615384615385,49.569114098586695,49.573993454320856,49.55702217100871,49.700598802395206,0.47969951202980676,0.5203004879701931,26.44639417209617,27.542854309773553,0.5028621941198885,0.49713780588011136,28.837084632034774,28.672479746553215,0.4920091015198899,0.5079908984801101,27.66757321108068,28.113341302181745,0.9965416425334772,1.5577759684855275,1.397392452533202,0.8357374831893695,0.5647074322458696,1.4367202085223643,-0.8605492578562979,0.004644414387206061,0.24546260979051063,1.4046035195965583,0.9755476073469844,0.5217419688938945,0.9663540442889567,1.0,2.3256924189809363,-0.04424358991132062,0.0037737041190775526,0.21117100483878062,0.9577027520388461,1.0006692991557842,5.968124168466544,0.6694512813975558,1.2175758738361355,1.3861869980637407,1.6132931418452812,0.8593377557876739,1.7662031032809034,1.5716958155665641,0.9066951153996748,Relax
130.09121779309817,461.66279069767444,39.508119075301686,,,,,,,53.992527098258144,54.15109453068968,0.08557787170934048,0.11695230411934111,457.0,20.7564,0.04541881838074398,29.0,0.7317330971266255,441.0,477.8,2.9069767441860463,16.27906976744186,408.0,895.0,6.88,101.5625,,,0.060499403969855814,0.11788625144856452,0.03768463964348329,0.21607029506190362,0.5132015245751756,0.27999871038507573,0.5455921250757324,-2.1380350902099794,38.29060615132443,40.88300195241551,0.936589886327124,4917.95886333199,1.0677031800135504,4.398755001688068,174.60364477237692,0.5348837209302325,0.5329341317365269,0.7865168539325843,0.15789473684210525,50.03371544167228,50.12156382919923,49.93137748759446,49.101796407185624,0.4797652147049738,0.5202347852950262,26.522021926294073,27.617982206824422,0.5045878022501665,0.49541219774983347,29.04097222999214,28.77571511844729,0.49298840821998596,0.507011591780014,27.81003159942468,28.20278994846526,0.5781083867158162,2.2731621896777523,1.3957285659462186,0.886515733889064,0.2912601944890465,0.8786836293128164,-0.7240107786278733,0.00891534719304424,0.5417766117641565,0.9766971638709995,0.9518734854789113,0.31279083767329663,0.7887275804127523,1.0,-2.7258367357803213,0.0,0.0025345589458626813,0.16971720102249252,0.9815361725054874,1.1039915377878455,5.990665139068786,0.6884107028040494,1.4045070049708015,1.3529685456336695,1.6774939186370186,0.8974338678141367,1.7599139955766434,1.580243051401646,0.9498710732758497,Relax
130.33870237685466,460.8139534883721,39.750835550571566,,,,,,,53.99702179354987,54.15558813435776,0.08626222198710963,0.117177488625922,456.0,22.238999999999997,0.048769736842105255,29.25,0.7361671853413208,440.0,477.8,2.9069767441860463,15.69767441860465,408.0,895.0,6.88,101.5625,,,0.06495003399215575,0.11579879103696615,0.038097791608051025,0.21884661663717292,0.5608869782709728,0.29678335900361114,0.5291321968616478,-2.155901153993024,38.2937836089501,41.36459793301879,0.9257622586096153,4976.304636054087,1.0801909353076038,4.4038770688044435,178.72665491956215,0.5406976744186046,0.5389221556886228,0.7888888888888889,0.125,49.882115190299764,49.9481856151265,49.80548064567484,49.101796407185624,0.47967130716974776,0.5203286928302522,26.521633788730462,27.622774065231454,0.5060613095227028,0.4939386904772971,29.42594201182731,29.071358738058304,0.49388212417673694,0.5061178758232632,28.01145410458865,28.35631804321307,0.6965326458800164,1.9563977850973426,1.3663259891746344,0.7428218872781764,0.6692013691571645,1.4653118308819109,-0.8187000653169493,0.006986026231502203,0.4172520730587407,0.28946371455307407,1.987467368547096,0.9445566645979913,0.2481229292382945,1.0034383466572026,2.0779830089058766,-0.8504126640674421,0.0081651322438852,0.5064185555325169,0.9834484356852808,1.0738131741339771,6.006397513294928,0.684964747817993,1.314815852221581,1.256127130424731,1.5961496236733892,0.9007499367835253,1.7675612860002443,1.5895196209872224,0.9066951153996748,Relax
130.6063192380135,459.84302325581393,39.43109777204064,,,,,,,53.92213359306241,54.08048760881211,0.08574903995032418,0.11726204566784336,456.0,19.273799999999998,0.04226710526315789,28.0,0.731259969600198,440.0,474.0,2.9069767441860463,14.534883720930234,408.0,895.0,6.37037037037037,93.75,,,0.05880691175671951,0.076514206906052,0.023684449553580785,0.1590055682163523,0.7685750677508244,0.36984183897700595,0.48120457518784676,-2.570278844201613,38.240679518066095,40.8101699217272,0.9370379881144989,4902.79660416674,1.0671925927060788,4.397413986581355,174.20924419017476,0.5523255813953488,0.5481927710843374,0.7912087912087912,0.15384615384615385,50.085704490915326,50.18044483666508,49.974264377618525,46.98795180722892,0.4792024923622132,0.5207975076377868,26.471905195997554,27.59688814511733,0.5144439267624357,0.4855560732375645,29.27099094287682,28.437282891694675,0.497967495220572,0.502032504779428,27.906564420256565,28.020236379770143,0.6511455974755971,1.8204624383452757,1.3821360023095768,0.7400306118031348,0.8882727512187332,1.4813543718720614,-0.8527155391846969,0.008264791239414461,0.44152919145155367,0.7128427898581207,1.3607918356652249,0.6722139882514622,0.6351213720324416,1.0975286686617673,1.6025988813983418,-0.5272581119660288,0.007254326792892499,0.3380151633364225,0.9395149588568179,1.0172209631232796,5.960750912163398,0.6651636435488553,1.2701415061404082,1.279153994094254,1.506304054306726,0.8612364741799842,1.7534678239860915,1.583096630314923,0.8635191575234997,Relax
130.6691483912567,459.5755813953488,39.44601888775028,,,,,,,53.90993138332107,54.068256241433716,0.08583140724749894,0.1173037331958357,454.5,20.0151,0.044037623762376236,28.0,0.731702264788159,440.0,474.8,2.9069767441860463,13.953488372093023,408.0,895.0,5.733333333333333,85.9375,,,0.05599072515556738,0.0962107769290303,0.029699130685955866,0.18190063277055354,0.5819589753117661,0.3078094028743328,0.5289194186058109,-2.341213901295656,38.23203063524965,40.768731568252285,0.9377782718415986,4896.710601623354,1.066350149098903,4.3968745476879985,173.89497194551586,0.5465116279069767,0.5449101796407186,0.7912087912087912,0.15789473684210525,49.965776865160834,50.047739371245584,49.87134631936584,47.30538922155689,0.47911560765754346,0.5208843923424564,26.463515394951283,27.592944537241653,0.5171703865240885,0.4828296134759115,29.318653713001247,28.328537169104383,0.49936367050646874,0.5006363294935312,27.927594799782753,27.963159749719114,0.9203052815127684,1.8106495209184557,1.400246479210178,0.9167003753573488,0.1319371905397091,0.9304172039704185,-0.7670567099079173,0.004889941806688881,0.2841895371871459,0.6469199612689736,2.8859787985677507,1.3959787173011837,1.0799255240828163,-0.7264386448338556,0.29281326274069386,-0.6095133454809917,0.005186868578149136,0.5880640258987895,0.9296621252160935,1.0199200200924448,5.9741608335962875,0.6600980177744545,1.2621367418419993,1.1773799652265016,1.4062535444476472,0.8557519352892814,1.7607964169133499,1.6167567809048018,0.7771672417711498,Relax
130.62415281562548,459.7151162790698,39.40485919346211,,,,,,,53.8199836796227,53.97790512317117,0.08571582225184306,0.1170724689569514,455.5,20.7564,0.04556838638858397,28.0,0.7321603705424674,440.0,476.8,2.9069767441860463,13.372093023255813,408.0,895.0,5.931034482758621,85.9375,,,0.06723656551511406,0.11736177336974953,0.03831557636044451,0.22291391524530813,0.5729000473031755,0.3016256990557221,0.5264892200228839,-2.1424940347490518,38.16814274683842,40.74959442944715,0.9366508619594192,4886.233210365532,1.067633672922756,4.395944301121075,174.02255668329335,0.563953488372093,0.5602409638554217,0.8172043010752689,0.1794871794871795,49.62910632285411,49.68965723156509,49.57140607511644,48.19277108433735,0.4789034093318017,0.5210965906681984,26.41351035761367,27.552516699397682,0.5100927423845663,0.4899072576154338,29.10367707016313,28.52201653390046,0.49551716880598123,0.5044828311940189,27.79116359938986,28.041456841885722,0.9344775393531005,2.248264386142994,1.4908408850116328,1.1199438602886138,-0.11190772153337747,0.7456094454238885,-0.6649703775983886,0.004454783098540384,0.3705414369371887,1.079213099126612,2.4732832846636783,1.47878412580534,1.13301037221514,-0.8513471161296842,0.8247600757572715,-0.6398035379668282,0.0017846432010775477,0.30838098368887706,0.8865056459211362,0.9715149091342729,5.994566502226096,0.6218474263201637,1.207222330444299,1.3001893421562882,1.5000247148618062,0.8524946232626717,1.7379793974934543,1.6094389401829468,0.6908153260187998,Relax
130.4583056885414,460.4593023255814,39.679617163272304,,,,,,,53.769542890841635,53.92546615053785,0.08617399401612187,0.1167737140270049,456.0,22.238999999999997,0.048769736842105255,30.0,0.7379571227493322,440.0,479.8,2.9069767441860463,12.790697674418606,408.0,895.0,5.931034482758621,93.75,,,0.06974002239986193,0.11463286207491857,0.038751848260278915,0.22312473273505942,0.6083772239262698,0.3125606988745257,0.5137613417829157,-2.1660207612272933,38.131062793690944,41.06547709466831,0.9285430364241805,4919.326586185728,1.0769560061006977,4.39887576559088,176.90284880197467,0.563953488372093,0.5575757575757576,0.8152173913043478,0.1794871794871795,51.40819964349376,51.57941881277105,51.15918444427115,44.84848484848485,0.48025340369627967,0.5197465963037202,26.42592310146811,27.491014574819552,0.5377816769003573,0.46221832309964267,30.114792374828628,27.91903811440664,0.5111451170950496,0.4888548829049504,28.330461799481338,27.705852915824767,0.5992215256851251,1.730617341572752,1.2952870198006412,0.7300106303068428,0.7838332425729551,1.2017766933965837,-0.826632800859424,0.007900062414132753,0.39263867738431546,0.9875798888129546,0.8404689341779572,0.3273675615187428,0.7476020286077214,1.0,-1.446186432562771,0.0,0.004013882738837693,0.16582405454395263,0.915337227852592,0.9913834406904166,5.934888231839524,0.6201876719820518,1.2865681834440315,1.3121158648273064,1.515920029334472,0.8620559991360282,1.7534450921640907,1.555692898504173,0.7771672417711498,Relax
130.14181298528933,461.4269005847953,39.54951001833093,,,,,,,53.88626366491469,54.04537290145275,0.08571132278635543,0.1167817992332507,457.0,23.7216,0.05190722100656455,32.0,0.7339441877853109,440.0,481.0,2.923976608187134,12.280701754385964,408.0,895.0,6.84,101.5625,,,0.06976254264662105,0.08738408044626063,0.02892677953203164,0.18607340262491334,0.7983438435279243,0.3749194761985857,0.46962155371775194,-2.437442158835022,38.21584967037291,41.0211935749214,0.9316123286509256,4924.948407204995,1.0734078642433886,4.399371795235312,176.129887135884,0.5730994152046783,0.5644171779141104,0.8260869565217391,0.20512820512820512,49.71202303815694,49.77786527916253,49.64521404327781,46.012269938650306,0.477833779682923,0.5221662203170769,26.416945879223032,27.61522391211008,0.5297876576322232,0.470212342367777,29.857896680530146,28.12906553950841,0.5056477749330773,0.49435222506692245,28.189971831938852,27.873328827410763,0.8360541762038484,2.6208243545742134,1.38191366238056,1.2530063521944474,-1.1868882349735603,-0.4200660274758926,-0.5491857876553713,0.004573466547349391,0.41345767398538735,0.6177512028266535,1.5141069767209623,0.45921573364946777,0.4829221446470402,1.0,1.769318606256257,-0.4843429748610548,0.0113725410745963,0.47525538206083373,0.8936155668277435,0.9865435542751647,5.958086433593796,0.6127392602807785,1.302868260401643,1.2885785197676145,1.5318567531755722,0.8901046758283288,1.7632339629967573,1.5937463851520588,0.6940680715682712,Relax
130.31310934283994,460.83720930232556,39.088551580751655,,,,,,,53.74370628187342,53.90148168874558,0.0848207366760356,0.11662188989304387,457.0,23.7216,0.05190722100656455,30.0,0.7273140295859233,440.0,477.8,2.9069767441860463,12.209302325581394,408.0,895.0,6.615384615384615,93.75,,,0.047640350543223534,0.03226211733678929,0.009206435545019214,0.08910890342503203,1.4766653423858844,0.5346306453350501,0.3620526804477136,-3.4338615749364005,38.114103218114515,40.15520585522557,0.9491696632195091,4808.143658557346,1.0535524245560886,4.388947545076831,169.222457949287,0.5697674418604651,0.5636363636363636,0.8064516129032258,0.20512820512820512,49.75,49.824204620989654,49.673961630090794,46.06060606060606,0.4777329656579892,0.5222670343420109,26.343823921813808,27.544349265694915,0.529082048687411,0.470917951312589,29.20810424231628,27.555892361626167,0.5047456459265189,0.4952543540734809,27.812860444887217,27.550121418208988,0.7607583635387923,2.613119043012552,1.3351388172343306,1.1989911108731275,-0.9871464327441384,-0.27742955821651916,-0.5521016088896754,0.004532759702726535,0.42906357431488057,0.24911939041617343,3.3531477830367464,1.1350255515078287,0.8888482065377321,-1.4500281527605345,-0.4033733895119269,-0.5734167895061125,0.007427871799991184,0.7759023055728325,0.8832445449579196,0.9663811172643401,5.936521022634102,0.6183467682234569,1.4388402151375557,1.2432880115314782,1.4866207380640915,0.8807916760992301,1.776026745991248,1.607648899888686,0.7339912838949748,Relax
130.01853932680365,461.77777777777777,39.29567822035123,,,,,,,53.90219901658493,54.0608698969984,0.08509651202674713,0.11672757246132444,458.0,22.238999999999997,0.04855676855895196,32.0,0.7290180908623137,441.0,479.0,2.923976608187134,12.280701754385964,408.0,895.0,7.434782608695652,101.5625,,,0.018188490681667172,0.006605117183629082,0.0009809726917174575,0.02577458055701371,2.7536968953022845,0.705675525599107,0.2562647787427026,-5.0199105995105615,38.22680770101126,40.418024534539356,0.9457861471765998,4853.924174521193,1.057321470593793,4.393063097688188,170.9393805574206,0.5497076023391813,0.5426829268292682,0.7865168539325843,0.20512820512820512,50.74946466809423,50.88595033969686,50.565055573902264,45.73170731707317,0.47910415730291595,0.5208958426970841,26.459861306420894,27.589767419682776,0.5385729075146451,0.4614270924853546,29.661788546906546,27.455327487998193,0.5104938650592354,0.4895061349407649,28.106457978162474,27.522629541392103,0.27734573355760817,1.9553223188104385,1.1235491401389799,0.5800665088869871,0.6072726101506403,0.9571533783023208,-0.777950405426064,0.011164574111611363,0.5124487710433313,0.9113765627093049,2.8297209603037805,1.3231327660109198,1.7384421941077286,-2.6356236734302403,-2.4311389714162233,-0.3532330806030344,0.0009366000764661312,0.39535405811121,0.8873608442019592,0.9898987873369122,5.939582524233781,0.6227627305566383,1.3576484796438195,1.2184642409424633,1.5521368631744183,0.8961422867851812,1.8559135920234413,1.573555495850831,0.8242058349873219,Relax
130.3099868877273,460.50581395348837,20.899508120634863,,,,,,,15.962126226922607,16.00887481765713,0.045383809470743705,0.03466216004937302,459.0,22.9803,0.05006601307189543,32.0,1.3093185596656036,441.4,480.8,1.1627906976744187,11.046511627906977,408.0,512.0,7.478260869565218,93.75,,,0.02130540042251551,0.008363197726005455,0.0010052312813330299,0.030673829429853992,2.5475184397788584,0.6945790864240626,0.272649287078117,-4.7839144219104925,11.31998394273191,27.37629147107625,0.41349588766220446,973.5769868146581,2.4184037371054243,3.6953404095536353,264.82770240695265,0.5581395348837209,0.5515151515151515,0.8021978021978022,0.19047619047619047,50.28810895756941,50.29954072526513,50.276277585669106,45.45454545454545,0.3908742454497464,0.6091257545502536,7.077304239194302,8.834924015119835,0.54908941586555,0.45091058413445,20.285987441812072,18.383145765074186,0.5259875272470651,0.47401247275293507,15.19225990074345,14.42213456068321,1.1729794330303953,0.7925004659956585,1.2906276108083947,1.2578232128969242,0.4731402777066993,0.32725418113010374,-0.5413935376937056,5.333704936785766e-05,0.029339651177920326,0.9717972518818299,0.9589450868405067,0.5844758150519851,0.5421113902093257,1.0,2.4373222728343658,-0.5441781551665694,0.0013072003492793271,0.09686536345075417,0.8857453559539317,1.4822356548612252,5.898787156380189,0.9896836462890156,1.7372313533857486,1.1422197368225426,1.8995141431268971,1.8926117490419045,1.7123515662974942,3.224296948735691,0.7339912838949748,Relax
129.33084202529517,463.94152046783626,23.07575952541061,,,,,,,15.488705562441298,15.522106217042744,0.04973850907360292,0.033385038585946276,463.0,23.7216,0.05123455723542116,31.5,1.4898442889486665,444.0,482.0,0.5847953216374269,11.11111111111111,419.0,550.0,7.434782608695652,93.75,,,0.03361136574046392,0.007707593798957419,0.0011456561329721581,0.04246461567239349,4.360811767871112,0.7915146577510384,0.18150626532028577,-4.865549228448969,10.975786564368791,30.07655304073908,0.3649283396771547,1037.0831730198383,2.7402640224781702,3.722783697725049,329.6707848707748,0.5263157894736842,0.5182926829268293,0.7764705882352941,0.16666666666666666,52.87356321839081,52.70749764799278,53.05657075711245,43.90243902439025,0.43616212637618623,0.5638378736238139,7.254462001755281,8.248184307997622,0.6449737850078154,0.3550262149921846,24.15455792510297,17.92083631573137,0.6203993408215558,0.37960065917844427,17.833534247199378,13.949711800498507,1.1629977275157362,1.3204134519045496,1.3594572755530532,1.627404382188545,-0.28452086980895075,-0.7909230844831052,-0.2970733286236913,0.0007988020865355998,0.1250535018298508,1.2765672574517017,0.6390441317484425,0.6375231257032592,0.9570451915774805,0.9979315661695474,-1.0254192222208356,0.0,0.0004593536415865476,0.040278850992870055,0.8676673940942945,1.510788831364261,5.949975398347677,0.9339494743044742,1.5363483811710659,1.2504348981710713,1.7641528123576398,1.784585132484926,1.6830148337699942,2.2532070491579,0.7374473260412882,Relax
129.18731114252324,464.46783625730995,22.830394227537887,,,,,,,14.52583904633395,14.568632057535307,0.04915387556543335,0.0312741548766507,463.0,23.7216,0.05123455723542116,31.5,1.5717091559884695,444.0,484.0,0.5847953216374269,8.771929824561402,419.0,529.0,7.7727272727272725,101.5625,,,0.023379593544292608,0.006513793589990201,0.0006473864188318166,0.030540773553114624,3.589243844051217,0.7655206736539356,0.2132818796701994,-5.033833259767048,10.30157852049494,30.68140293244813,0.335759695968797,992.9533927358528,2.9783205429544246,3.7038989740133945,365.5162105614896,0.5146198830409356,0.5060975609756098,0.7469879518072289,0.17073170731707318,49.71098265895955,49.71936345764831,49.703403473086446,46.34146341463415,0.40446055199330905,0.5955394480066909,6.551570569190026,7.949917196546934,0.5999559043348703,0.40004409566512955,23.76483919900022,19.40569256040349,0.5801493750058687,0.41985062499413117,17.431159730170197,14.828723599501949,1.3024520595788902,0.7228542548566348,1.4879474579763654,1.2271273781989371,0.9399191299380805,1.1086059304310334,-0.8608197337500036,0.00015786399538420613,0.032777112479285275,1.1206316575492745,0.31886715287638623,0.8502375102325237,1.0096710866707168,1.0,-0.6881391048531835,0.0,0.00023354473023328427,0.012786551396773406,0.8661835291178517,1.4552872326068422,6.06538672871908,0.9112250049134276,1.657204685681446,1.1946587188631843,1.7967042470834922,1.8094630988816471,1.6327414304629033,2.703863744056775,0.6940680715682712,Relax
128.88642858371924,465.6058823529412,22.640043348596176,,,,,,,14.105267806094885,14.147006230705896,0.048624908332739754,0.030294436433693357,466.0,23.7216,0.05090472103004291,33.0,1.6050771711554046,445.8,484.20000000000005,0.5882352941176471,8.235294117647058,419.0,529.0,7.391304347826087,78.125,,,0.017311798675056476,0.008336822429282447,0.000521041776806445,0.026169662881145368,2.0765464086472702,0.6615216540496295,0.31856820117040685,-4.787073138894986,10.003444039220478,30.4860318887391,0.3281320466936709,958.0767899895102,3.0475535994616045,3.688370429199199,371.6312648633124,0.5176470588235295,0.50920245398773,0.7469879518072289,0.14285714285714285,50.35799522673031,50.378330544270966,50.33743530546408,45.39877300613497,0.4126814180347371,0.5873185819652628,6.4263223578979485,7.666407863126611,0.6000044014521462,0.39999559854785394,23.61446537387983,19.28095343667028,0.5817953362002163,0.41820466379978355,17.305210110567693,14.671894474655566,1.3306675493423545,1.3090317080911356,1.449371375610304,1.7015157665839837,-0.41159206007286286,-0.6425847124730772,-0.3073809905327936,0.0007646675651449986,0.10265390698468135,1.096695850889417,1.058142486200392,1.18816435215579,1.5520273042775452,-0.9126812365270212,-1.7073448700181677,-0.15613047688093076,0.00022510194197713595,0.0638915680116206,0.8712576525672593,1.437066686493314,6.015971583732036,0.9143659380560617,1.4473126868175674,1.0893828287044107,1.8384515076537409,1.796408657273757,1.6354987213194396,2.4571303916516647,0.6101851359172225,Relax
128.38691802623785,467.4117647058824,21.383394606907558,,,,,,,14.356822183034318,14.39899821583471,0.045748516022832676,0.0307155772856259,467.5,21.4977,0.04598438502673796,28.75,1.4894239361811314,449.8,485.0,0.5882352941176471,9.411764705882353,419.0,529.0,6.8,93.75,,,0.021235553807814386,0.007378611250779244,0.0006828613733783988,0.029297026431972028,2.8779878877033576,0.7248364900486929,0.25185529555064057,-4.909169835478531,10.181629280709721,28.4997386205036,0.357253426646683,911.6077942472327,2.7991334033836472,3.6667781397041055,319.09828144141846,0.5352941176470588,0.5276073619631901,0.7558139534883721,0.1794871794871795,50.58685446009389,50.618879449580476,50.554875468143415,44.785276073619634,0.40954240110237133,0.5904575988976287,6.516005934108205,7.823955886524778,0.5958894362267938,0.4041105637732064,22.000052651730655,18.117195830428706,0.5747966069482229,0.4252033930517772,16.224374410316326,13.954337506173287,1.2613882430969063,1.1183984433906025,1.3690564630452309,1.4829148929479232,-0.3143086715677601,-0.390188238021123,-0.3981951105390379,0.00010154375704170917,0.05169597034373408,1.2035705706310211,0.9644084520700331,1.4463677899665877,1.6857747966660377,-1.165419667348976,-2.162448232005165,-0.2517576643116512,0.00031357042338840154,0.060282266764456895,0.8721715343551404,1.408204470755635,5.990145939464017,0.9487175151022662,1.3795323534510888,1.271189961987014,1.9066893562798641,1.7778133013139468,1.6444241878183425,2.3803826666411774,0.8716930513103178,Relax
128.5361183058514,466.84705882352944,21.37105595702779,,,,,,,14.454990334210887,14.496193182813997,0.04577742443292581,0.03096301039282106,467.0,20.7564,0.044446252676659526,28.5,1.4784552229307635,449.8,484.20000000000005,0.5882352941176471,9.411764705882353,419.0,529.0,6.8,93.75,,,0.027752172352569514,0.010128420707641968,0.001101182725741056,0.038981775785952535,2.7400295814756483,0.71192683742669,0.25982450782275146,-4.5924098753788645,10.250356500957976,28.43751708807725,0.36045188014165813,915.7575708678066,2.774295419424636,3.668750627767956,315.57629358905007,0.5647058823529412,0.5609756097560976,0.7934782608695652,0.1951219512195122,48.904267589388716,48.93870452034604,48.87123262773293,46.34146341463415,0.39873130946986857,0.6012686905301312,6.473388749701496,7.949243749595063,0.5965831894191467,0.4034168105808535,21.964796338836045,18.062117814036657,0.5738281311741594,0.4261718688258404,16.191927620133857,13.954041997188781,1.2221811550131794,1.202305745045079,1.3000351878788923,1.6880516914364323,-0.594967835375936,-1.17276353218515,-0.17727301881686355,0.0011548527465764901,0.11146390125751651,1.1769004225861543,0.5568808918696972,1.2576394215886282,1.3776475353640614,-0.6352936090348669,-1.608559765692387,-0.2844994943667173,0.0003315767246255424,0.02509398033513232,0.8820943047973806,1.4522523289116882,5.985857375033426,0.9586838490322657,1.386113452826875,1.2356915984521768,1.9810502543438246,1.773681797709813,1.6970465105381598,2.578874413931089,0.7409390936137702,Relax
128.37440981982056,467.4556213017751,19.52744057665473,,,,,,,12.64699286674222,12.683619982245062,0.04177389186651455,0.027054959423790322,466.0,17.7912,0.03817854077253219,24.0,1.5440382375802562,453.0,482.4,0.0,7.6923076923076925,425.0,529.0,5.451612903225806,78.125,,,0.034042449494229486,0.03443240078244395,0.0011414537667432992,0.06961630404341673,0.9886748736842861,0.48900110343402686,0.49460253967188383,-3.3687572746858634,8.968673699438682,26.046710347048645,0.34433038107074904,733.8900115455115,2.9041875331777116,3.5726010868286258,302.5781258807583,0.5384615384615384,0.5365853658536586,0.7727272727272727,0.17073170731707318,50.902302426882386,50.94895435582837,50.85678997347159,42.68292682926829,0.4580402664582636,0.5419597335417365,6.070444744925828,6.603165635298393,0.6676348581959015,0.33236514180409854,21.28248727315865,15.016219743027566,0.6454149384160347,0.35458506158396536,15.649194291294322,11.599324372093326,1.253133708163123,1.041459057667062,1.372545084464487,1.751442397166639,-0.21200512717897269,-1.1671634475189427,-0.13618607000172686,0.0012405389243631056,0.11068117425698283,1.0714405838081862,1.365845729493127,0.9049948458629515,0.4448130841471081,1.0,3.641588844604207,-0.836920745717468,0.0018373477217078504,0.14720432066353478,0.8207285977204855,1.6094379124341005,5.867814756250765,1.007269829276699,1.3000954394683524,1.254342539905239,1.7915452034373618,1.7061819786519803,1.7097161057198038,2.2021438718662103,0.8320515342565769,Relax
128.14565971228174,468.27810650887574,18.59402249605573,,,,,,,11.880856951615986,11.914436901187127,0.03970722149424959,0.025371369676431364,466.0,16.3086,0.0349969957081545,23.0,1.5650405161663568,454.6,482.4,0.0,6.508875739644971,425.0,529.0,4.694444444444445,70.3125,,,0.03599475650089731,0.017166258222333957,0.0020926004199494632,0.05525361514318074,2.0968318217459156,0.6514461797227705,0.31068117765417513,-4.064809553137361,8.424779126848653,24.75959690721355,0.34026317788696103,655.3178027673256,2.9389016061332693,3.523422076389759,291.0640764712889,0.5562130177514792,0.5521472392638037,0.7777777777777778,0.225,51.18890356671071,51.260349920310965,51.12038874150976,43.558282208588956,0.4681200978325041,0.531879902167496,5.765112917030142,6.145199187487108,0.6679334562214554,0.33206654377854466,20.235324287400317,14.267771023935225,0.6471937371817317,0.35280626281826827,14.87791779723159,10.984825056534534,1.3045773897281854,0.6620970011535809,1.396417919185822,1.4349355459637685,0.6435768119536398,0.20023236059588534,-0.44182479801171615,0.00034865712157004547,0.030020146195166467,1.4552522669919954,0.9783758820991921,1.7581689965870755,1.7524122472375427,-1.50672135761784,-2.50672135761784,-0.5058839853423013,0.0019960339018203796,0.11506010914598659,0.8418925027204343,1.4930623365455966,5.768578661971671,0.9973774045829452,1.255764457005432,1.135543149967112,1.803845347710814,1.6168278336160513,1.6881007754788533,2.0949672375226553,0.788259348243073,Relax
127.93733632816125,469.0295857988166,18.030538260031612,,,,,,,11.947304936181014,11.982165246875113,0.038442219437657285,0.02547239086385829,467.0,16.3086,0.0349220556745182,22.0,1.509172014638066,455.0,482.4,0.0,6.508875739644971,430.0,529.0,4.447368421052632,62.5,,,0.05014978300985484,0.016942207508107286,0.0016822016964362489,0.06877419221439839,2.960050098893953,0.7291947952440744,0.24634542351717087,-4.077947284900738,8.472670299363173,24.094848695841726,0.3516382446022739,641.3489425679783,2.843831737162339,3.514064492988587,274.08678169343716,0.5621301775147929,0.558282208588957,0.7802197802197802,0.225,50.793650793650805,50.7946375132225,50.79187544126442,44.171779141104295,0.4668890742285238,0.5331109257714763,5.789728671002842,6.186715534255345,0.63833353447173,0.36166646552827014,19.2507668272233,14.490331612471302,0.6194649169036358,0.38053508309636397,14.214657602628938,11.141031355785278,1.244658088797881,1.3483966320812635,1.3869917398103642,1.7996557298953404,-0.2828757993777682,-0.9140223096045119,-0.19395949213546662,0.0028798133061552524,0.18450843996711225,1.1580229439774308,3.265003786272045,1.4261910607079655,2.7861313260915006,-5.264985833925522,-6.264985833925522,-0.08347972792512326,0.01222371674910685,1.0277608326440495,0.8684197247642751,1.5373346185327565,5.706601072831614,1.0250400057579583,1.4462226774990221,1.4741702521743738,1.741752950983995,1.65562101970206,1.682849500266141,2.4807915136845873,0.8320515342565769,Relax
127.99440985139287,468.8047337278106,18.296264941013845,,,,,,,12.061351104921474,12.096696002519016,0.039027474819903825,0.025727878234105737,468.0,17.7912,0.03801538461538462,23.0,1.5169332839957124,454.6,482.4,0.0,7.100591715976331,430.0,529.0,4.694444444444445,62.5,,,0.027608539167671954,0.011068696117048768,0.0015772223998252127,0.040254457684545934,2.4942901020787245,0.6858504810579309,0.2749682085842171,-4.503634324469935,8.553655773333398,24.332408062529918,0.35153346727344204,653.8629547402409,2.8446793636924053,3.522456842633254,276.8715963376862,0.5325443786982249,0.5304878048780488,0.7471264367816092,0.175,49.27916120576673,49.24241051448029,49.31483468994142,44.51219512195122,0.45040916530278247,0.5495908346972176,5.740913153178275,6.341574635867297,0.6378512944111531,0.3621487055888469,19.433221988597786,14.642949336228368,0.6172334260880795,0.38276657391192037,14.328436772559241,11.28342886993192,1.2671893140466437,1.189036526639891,1.282870538518119,1.816845820608475,-0.08544584858625903,-0.9957223350700306,-0.05091767988043093,0.0020569820515245105,0.1592614542211198,1.1222664525702521,3.691182644774031,1.252109468984366,2.941150638462407,-4.070749662843335,-5.0173353898536135,-0.04241192267486898,0.017550349827434236,1.3979534414132369,0.8715655024580835,1.6062068918526538,5.777305532388757,1.0319917927247082,1.2064083728830755,1.2712038250735307,1.8263034220832381,1.6686822557169276,1.6770239125313176,2.4586944384625804,0.8758437202700811,Relax
128.10665258983943,468.43195266272187,18.4506206270021,,,,,,,12.634278768493278,12.67181181427508,0.039388048834249414,0.026971428180071547,467.0,17.7912,0.03809678800856531,23.0,1.460362001273339,454.0,482.0,0.0,8.875739644970414,429.0,529.0,4.225,70.3125,,,0.03718704032192427,0.021938886872312845,0.002433933031740649,0.061559860225977765,1.6950285827333742,0.604079349521194,0.35638298709220934,-3.819494560503577,8.960324063793717,24.480187210645738,0.3660235106330039,689.1096383449186,2.732064938316646,3.5452584342499223,267.52584464653114,0.5325443786982249,0.5304878048780488,0.7241379310344828,0.175,50.40498442367601,50.389701009208565,50.42053895407286,44.51219512195122,0.48070253943394115,0.5192974605660587,6.212552485350408,6.457136422474216,0.6481151738458415,0.35188482615415834,19.707921757886346,14.521617880019203,0.6283355619059472,0.37166443809405264,14.61160477836373,11.237704316979881,1.2499274330571368,2.167641931740943,1.4088010113926464,2.333748398927608,-1.8914090996553359,-2.8865152636532816,-0.0732932759830449,0.0069143204066205504,0.5176274386414642,1.219228616902192,1.7850696755517292,-0.004608224980103159,0.8879266127957615,2.4076537944736467,-0.664519654865706,0.0,0.00030620706363438445,0.13327837866634265,0.845487774095087,1.5310845981875854,5.743121026628545,1.071408560456132,1.2435796513937427,1.1558456868635774,1.5880689310157374,1.6386782129863522,1.711884386867742,2.990564485156436,0.8758437202700811,Relax
128.2431508426705,467.8757396449704,18.302418284878883,,,,,,,12.616127245183709,12.653567657032454,0.03911811776940384,0.026964696341718795,466.0,16.3086,0.0349969957081545,23.0,1.4507160501148206,454.0,480.8,0.0,8.875739644970414,429.0,529.0,3.9302325581395348,62.5,,,0.023851462368076917,0.012539648251408627,0.001636863058063706,0.03802797367754925,1.902083845565412,0.6272083432664785,0.329747999662988,-4.378859794297679,8.947423496490423,24.327580947421595,0.3677892806452149,683.8278634426439,2.718948192959007,3.541916902668125,264.58172902422365,0.5443786982248521,0.5426829268292682,0.7415730337078652,0.16666666666666666,49.56736711990111,49.57904995216263,49.556139332922264,45.1219512195122,0.46462228870605826,0.5353777112939416,6.098983914589311,6.546928703529755,0.6434347057920934,0.35656529420790684,19.514218679586048,14.52674994892682,0.6221281261543162,0.3778718738456838,14.456872681619704,11.266959206630402,1.2367225902099475,1.8188721029270447,1.3107915306345754,2.1454441083132534,-1.2580467176385461,-2.256617650918113,-0.04111530088591616,0.004730313970283995,0.3664630279893848,0.9329593684055711,1.5841850306780518,0.9473103781413779,1.4268235954927082,-1.8538104982906738,-1.7926270736188759,-0.1973123668855194,0.0011458297881963568,0.13269086498291088,0.8713004992181634,1.6126074871953795,5.704085520463397,1.0815511937375828,1.3155335651141604,1.2211424784730027,1.6238504988969273,1.6594001620541792,1.7192897402165652,2.88175742799437,0.9196359062835849,Relax
127.79296431998911,470.2189349112426,50.48802895644127,,,,,,,70.49894460540662,70.70963141342334,0.10737132260735367,0.14992791521403498,465.0,14.825999999999999,0.03188387096774193,22.0,0.7161529756087909,454.0,479.0,1.7751479289940828,10.650887573964498,390.0,1076.0,3.9302325581395348,101.5625,,,0.03319689783387315,0.006672642536764198,0.0017777627925967413,0.04164730316323408,4.9750751146893455,0.7970959777097671,0.1602178779886702,-5.009739315090721,49.99925986763296,51.26133148251913,0.9753796560021747,8051.991927374407,1.025241805943275,4.612873440771241,210.22104025677913,0.5266272189349113,0.5272727272727272,0.7126436781609196,0.14285714285714285,50.289214018373606,51.05750300485028,49.374890669604994,44.84848484848485,0.4203445124835773,0.5796554875164225,32.416544160803774,38.0670303858235,0.6052474450192985,0.3947525549807017,39.880111596950044,32.20715455260706,0.5151000820260517,0.4848999179739483,36.34044328509581,35.25903860551736,-0.231875668639622,5.215105016493599,1.149379025421345,0.547668202942277,-1.508831533059789,1.0554176116581524,-0.6153784670828414,0.023298794035790004,2.0436996307811617,0.0007888606183137972,5.809605762271706,1.0818362485019566,1.1958745194314315,-3.569871079396737,-1.0853475111573836,-0.4803707384638639,0.011931760520775339,1.9919883294902492,0.7284427340215536,0.7433687978985233,5.6862011473835965,0.5178432336748462,0.7419832987378375,1.0345889603231397,0.9817258046530044,0.5375854314233471,1.9050388746343154,1.4381004743525638,0.8758437202700811,Relax
127.85018033397992,469.8698224852071,50.590273868475435,,,,,,,70.71375059922592,70.92515015649938,0.10766870194152162,0.15049647203391572,465.0,14.825999999999999,0.03188387096774193,21.0,0.7154234281137003,454.0,478.0,1.7751479289940828,11.834319526627219,389.0,1077.0,3.9302325581395348,101.5625,,,0.025231460486807137,0.02670767333050629,0.005861896244572597,0.05780103006188602,0.9447270143890453,0.43652267891752944,0.46206223837033866,-3.622804364209051,50.15165463233483,51.32209281175936,0.977194262445269,8086.107235192307,1.0233379773410287,4.61470960646272,210.07938660357752,0.5443786982248521,0.5481927710843374,0.7472527472527473,0.2,50.04991680532448,50.75894819914556,49.19937912614707,44.57831325301205,0.4192373757994842,0.5807626242005158,32.472466457667046,38.219465523606935,0.60729590446552,0.39270409553447994,39.99489250544319,32.16155755023201,0.5154354897437716,0.4845645102562283,36.428371528015546,35.320626615103144,0.4037305001921336,2.271455184841693,1.3269377699107263,0.9017855389142551,0.5246391600989107,0.7999842674963606,-0.6871717451586445,0.01003928788071467,0.6093061914640554,0.09540287888261301,5.753875839036806,-0.060672461513932685,2.414940170538482,-5.205858934686599,-5.091057678961532,-0.06974868744007684,0.015514387307872739,2.381229150211682,0.7688971452222848,0.7648210188001546,5.681255398866213,0.519032882546648,0.7460392064458575,1.0229474767977114,0.9514175484577497,0.5391105193563077,1.8292764882202712,1.4497834590768086,1.0072202783105932,Relax
128.5348889650826,467.37278106508876,51.068553062158486,,,,,,,70.68306188964397,70.89379277889257,0.10926728113215993,0.1512348702219359,460.0,14.825999999999999,0.032230434782608695,21.0,0.722500577887964,452.0,477.0,1.7751479289940828,11.834319526627219,389.0,1077.0,3.9302325581395348,93.75,,,0.05237335714946583,0.11362496909639336,0.027498685806895726,0.19349701205275494,0.4609317614426374,0.27066752397802807,0.587218210198588,-2.1748519984634673,50.12948161798884,52.203152111636385,0.9602769103058565,8221.287078310712,1.041366286399088,4.621909923517798,217.450410611286,0.5798816568047337,0.5792682926829268,0.7894736842105263,0.21052631578947367,49.191374663072764,49.70031027782301,48.567349502302385,45.1219512195122,0.41873653710516784,0.581263462894832,32.4389800263464,38.219348017388405,0.6065437755101473,0.3934562244898529,40.6562953180574,32.74499566959126,0.5164435578502211,0.4835564421497788,36.777858652583326,35.587591266309396,0.8927192101915353,2.5743206911620438,1.4362335830007842,1.3495532028942383,-0.5406264941079897,0.10808099203328081,-0.5336711663019026,0.005831389041438282,0.4600308743215774,0.7974881610775678,1.2842487078988365,1.0564767501526264,0.5456355652417003,0.593105890206747,1.4304373773779848,-0.8977743421262343,0.003687132142252395,0.17877080143973767,0.7524014988393088,0.7641774906735201,5.724700570495136,0.49981640700672286,0.7780794330865424,0.982223010682268,0.9322434464194269,0.5464592995064951,1.8115069948050337,1.454191790720319,0.9196359062835849,Relax
129.10493016658015,465.2705882352941,51.11071362238263,,,,,,,70.432434365503,70.64167164965247,0.10985158940787206,0.1513795115067198,459.0,14.825999999999999,0.03230065359477124,19.0,0.7256701274465117,449.8,474.0,1.7647058823529411,11.76470588235294,389.0,1077.0,3.8636363636363638,93.75,,,0.06986291368940589,0.16192166349850073,0.04047629419996635,0.27226087138787297,0.43146119042961023,0.2566028431969447,0.594729836399521,-1.8206426193531713,49.95120505782274,52.528622328289615,0.9509330883578344,8243.12438668748,1.0515987005215048,4.623061963250164,220.95612392245704,0.5882352941176471,0.5878787878787879,0.7938144329896907,0.20512820512820512,49.71019434026594,50.36806749311814,48.926217419928655,44.84848484848485,0.4189235450514875,0.5810764549485128,32.33060248654295,38.077028758132094,0.602964044217838,0.3970359557821619,40.788874163213,33.09869949417441,0.5155694826487469,0.48443051735125303,36.803533204335714,35.67480923041691,0.8663591545608079,2.3632023133428115,1.4164813254556572,1.2502866094775578,-0.27699311738834975,0.30760830133808814,-0.5703260635112584,0.005220022753648047,0.40257376945437423,0.5955965889069292,1.689005240096781,1.2597494776894127,0.7986046373548377,0.5047201975797382,0.7527633078542407,-0.7730274775868375,0.007367469581160206,0.3593707908604491,0.7252972004858811,0.7199974852577763,5.754716983539718,0.4782956729901148,0.8105094572174126,1.0122380189134694,0.943059278606806,0.5450469971804932,1.8074554852966784,1.4499288627346898,0.8716930513103178,Relax
129.2760557336549,464.6588235294118,51.058512191864544,,,,,,,70.25115552125108,70.45989588916744,0.10988387523568174,0.1511886828870352,459.0,14.825999999999999,0.03230065359477124,19.0,0.7267996065405539,448.8,474.0,1.7647058823529411,10.0,389.0,1077.0,3.953488372093023,93.75,,,0.06569581750501718,0.15221158399023715,0.03872620016921287,0.2566336016644672,0.43160852664952826,0.2559907084611253,0.5931085524382911,-1.882483726133862,49.822670184928434,52.557605691590304,0.9479630879170836,8226.449657205043,1.0548933948443655,4.6221825542919746,221.77068437157294,0.5588235294117647,0.5548780487804877,0.7582417582417582,0.1794871794871795,49.80461811722913,50.509673644903586,48.97509540870188,44.51219512195122,0.4192563302332106,0.5807436697667892,32.2601958781288,37.968149245688245,0.6003751711707873,0.39962482882921263,40.723672300807024,33.22475628758122,0.51465057989776,0.4853494201022399,36.73647862655562,35.67537517330424,0.6662624011200535,2.38922968345572,1.4078758019955695,1.2162102129696915,0.029346131569504053,0.3047602374998306,-0.5802206628994573,0.005427549521089607,0.5012917785464405,0.4653794495956327,2.8440144152993394,1.114328359110659,1.2575502538844932,-2.1375053767194707,-1.913863586244605,-0.44964093922893855,0.004711787769345386,0.4792599967454912,0.6992615887063116,0.6998755490886298,5.745083664115313,0.46990707161265755,0.7661519203212908,0.9760950136352756,0.8821312906961425,0.5224195833454984,1.8371329279523385,1.426019174809544,0.8716930513103178,Relax
129.98414550040442,462.0643274853801,49.838580165644935,,,,,,,69.95406055573396,70.16071377236966,0.10786069644647443,0.1513946357565275,458.0,14.825999999999999,0.032371179039301305,17.5,0.7124472799679359,446.0,472.0,1.7543859649122806,9.35672514619883,389.0,1077.0,3.8,93.75,,,0.049782934228969365,0.11555981411893301,0.029473342926534418,0.1948160912744368,0.43079797772721634,0.25553810213161654,0.5931738665064595,-2.1579670119096863,49.61111648133099,50.274316941764766,0.9868083645730683,7835.6504214170845,1.0133679809581255,4.601045162165023,203.78553221330014,0.5555555555555556,0.5515151515151515,0.7582417582417582,0.175,49.91010427903632,50.65453931245044,49.038052068551146,44.84848484848485,0.4184770653450446,0.5815229346549554,32.09333651275152,37.83227544159559,0.5866214865716719,0.41337851342832826,38.50571231371567,32.32363010514725,0.5036656329271432,0.496334367072857,35.44483128262387,35.1859213909707,0.5338511947434043,2.2033049509868277,1.9842436200061417,1.0481057440529769,0.4393860725021925,0.6141819248698752,-0.9248789417615036,0.006950459349328658,0.5305435999971869,0.0871813052821655,5.144346008939971,1.0549373383459866,2.012661147771614,-4.447472327440794,-4.15408600347972,-0.3138298225350178,0.01267652840614508,1.81318437687851,0.7413254225487944,0.7467793354757404,5.621624124416131,0.467675979178785,0.6233974817867657,1.022096627046353,0.9465746803061451,0.4802106173062878,1.8571156313877584,1.435160898208534,0.867585089460339,Relax
129.87570715501064,462.4970760233918,50.032033770023524,,,,,,,69.94628190934223,70.15279827748004,0.10817805422729428,0.15123616026018843,458.0,16.3086,0.035608296943231435,18.5,0.7152922557752294,446.0,473.0,1.7543859649122806,9.35672514619883,389.0,1077.0,3.717391304347826,93.75,,,0.05320243172005512,0.14490487231097837,0.03485781236401987,0.23296511639505335,0.36715419482843964,0.22837080736944526,0.6220024463458907,-1.9316778048862548,49.60551938121809,50.72850484999578,0.9778628313194256,7905.547203342956,1.0226383169208966,4.604902046110783,207.50765127885288,0.543859649122807,0.5365853658536586,0.7386363636363636,0.1794871794871795,49.60260115606937,50.281515095078454,48.811035649545296,45.1219512195122,0.418186605620628,0.5818133943793717,32.078629358787474,37.837514648730554,0.5839583446342678,0.4160416553657324,38.765286380798685,32.72054058432882,0.5029274960079732,0.49707250399202674,35.57938932671412,35.371678578515386,0.5860935134705981,2.193006238824041,2.015981610686694,1.0802702861627376,0.4717957321816657,0.6764484256214274,-0.9266797366822421,0.007420177062766395,0.5360276694579877,0.7757387563829565,1.2580135295478487,1.1407545558254222,0.8570822090844168,0.2702839670386554,0.361185947718758,-0.7254922861147304,0.0025918945279341647,0.14150242407279123,0.6922672774583012,0.6818167213884966,5.655597056665588,0.46697252512050574,0.794619014776283,1.0336873254385461,0.9631709115869573,0.5025708483495972,1.8279529811102218,1.4258837797438417,0.867585089460339,Relax
129.92442910214254,462.32163742690057,49.946047947143484,,,,,,,69.84638607013841,70.05260715264423,0.1080331178638392,0.151077475972952,458.0,14.825999999999999,0.032371179039301305,18.0,0.7150842120448239,446.0,472.0,1.7543859649122806,7.602339181286549,389.0,1077.0,3.8,93.75,,,0.06085495774461101,0.1689687468792681,0.04220103971477483,0.272024744338654,0.3601551107441971,0.22371111088648007,0.6211521208854165,-1.7780415108691432,49.53467355743197,50.630544842080425,0.9783555304793472,7879.012307331497,1.022123316980738,4.603441888826902,207.00264173811698,0.5497076023391813,0.5426829268292682,0.7528089887640449,0.175,50.40801186943621,51.289302027210546,49.38438768188958,44.51219512195122,0.41875666185967775,0.5812433381403223,32.05464084964921,37.76496137549074,0.5845211038923568,0.4154788961076434,38.7090665648182,32.63526063457117,0.503452092198891,0.49654790780110886,35.537950379274314,35.293431006199285,0.8019514985859704,2.6502429494593636,1.4936040937733086,1.3716434721642965,-0.5433032942699345,-0.0502949767691343,-0.5460186571325061,0.005651092381183759,0.5234872122417134,0.653503621061086,3.054225692099763,1.3102972291892592,1.551333672913069,-2.4062271513686273,-2.1792543305119194,-0.4210809979277927,0.003978448591466566,0.538381470641702,0.7295376207075734,0.7092590030731523,5.641144989280574,0.4447095357089252,0.8129224176667844,1.1050728500354727,1.0314035540091568,0.4790576735291483,1.8119500250066491,1.3996998692928393,0.910964343933356,Relax
129.77971213677586,462.90058479532166,50.07695900496968,,,,,,,69.84158545468115,70.04718811257341,0.10818080739109878,0.15087815342804684,458.0,16.3086,0.035608296943231435,18.5,0.7170077637693899,446.0,474.0,1.7543859649122806,8.187134502923977,389.0,1077.0,3.9767441860465116,93.75,,,0.06247822090751376,0.1437847158534586,0.03638627198130749,0.24264920874227985,0.43452616320631626,0.25748371994022246,0.59256206355972,-1.9394381268722147,49.53084171745038,50.82114512880708,0.9746108945777116,7908.061309227103,1.02605050442545,4.605040137593285,208.58024637956603,0.5380116959064327,0.5276073619631901,0.7325581395348837,0.15384615384615385,51.0059612518629,52.02756984860001,49.81942227032882,42.944785276073624,0.41897582588268223,0.5810241741173178,32.06082422059892,37.755245726675604,0.5851777289271114,0.41482227107288855,38.87660581532173,32.73222131911252,0.5042125521590005,0.49578744784099954,35.632056700561435,35.33310694210899,0.5167266416494629,3.1319326381631614,1.4070695724765803,1.4172448405667484,-0.949439512698298,-0.641129263429628,-0.49675112166648144,0.007335679978248431,0.7842910386565812,-0.04005564037265539,2.8478111087418747,0.7269702881534083,0.6386248028881603,-1.8017895899608636,-1.38479655305826,-0.5310222419577112,0.009720990387136827,0.5698463009951972,0.6641382319544542,0.6546880820664799,5.6700661359911395,0.4490324553389125,0.9097093323816877,1.0460175293133243,0.9776988580864722,0.49952597815238803,1.8251721908241019,1.389580855244251,0.8242058349873219,Relax
129.40949977185437,464.1588235294118,50.01861853141447,,,,,,,70.03811303930532,70.24624953263312,0.10776186080246948,0.15089255980688535,460.0,14.825999999999999,0.032230434782608695,19.0,0.714162851636852,450.8,474.0,1.7647058823529411,8.235294117647058,389.0,1077.0,4.0476190476190474,101.5625,,,0.04839218389545759,0.10942960293057494,0.027634388183884473,0.185456175009917,0.442222055088319,0.26093595369833267,0.5900563997112706,-2.212473832082768,49.67159939744722,50.65740716634766,0.9805397112871713,7904.983616585915,1.0198465074782976,4.604871084137203,206.651119106023,0.5352941176470588,0.5217391304347826,0.7142857142857143,0.15,50.03748125937032,50.84732995329191,49.10851316408547,44.72049689440994,0.418354841122217,0.5816451588777831,32.12776762212016,37.88237591231448,0.5835057835737485,0.4164942164262516,38.6959523629671,32.69244823411229,0.5025528864440605,0.4974471135559397,35.56381715773752,35.382697581600645,0.7002861402242943,2.351729530296355,1.460713207905993,1.1715949293443457,0.09461423045583928,0.47399314141408144,-0.6229385755619667,0.006116325583928196,0.49764873005673577,0.5753006029501254,5.809418040651296,1.3626598750947414,2.8000610831450987,-6.465425383660847,-6.1224754075153145,-0.25257397591425357,0.012775827779535216,2.1801932774788915,0.647516528859563,0.6288963878087643,5.694171769809117,0.4488270883061684,0.8930254393960766,1.051926745797283,0.9858425405449762,0.49289233390091297,1.8322465151363323,1.400058114457644,0.8716930513103178,Relax
129.1506625440456,465.09411764705885,50.02854180144547,,,,,,,70.01238267485725,70.22033310759309,0.10756649009998899,0.15053379524353996,462.0,14.825999999999999,0.03209090909090909,20.0,0.7145670507141825,451.0,475.0,1.7647058823529411,8.235294117647058,389.0,1077.0,4.722222222222222,109.375,,,0.03981383546824579,0.11272390307770394,0.027847509630958212,0.18038524817690796,0.35319780792899735,0.22071558439856148,0.624906438951998,-2.182813785680828,49.65327371755731,50.68042585602327,0.9797327642552971,7905.6578710800895,1.0206864937910984,4.604908125645813,206.91530468329645,0.5294117647058824,0.515527950310559,0.7108433734939759,0.12195121951219512,50.3981797497156,51.30311377693365,49.36418112132908,44.72049689440994,0.41843062411198545,0.5815693758880144,32.11887332721252,37.865991778023364,0.5833636917328422,0.41663630826715764,38.708821844695045,32.71288242181559,0.5025853302339689,0.497414669766031,35.566802726797526,35.38337186926131,0.5530361888722659,3.374927867896269,1.4943194334786827,1.600663813597499,-1.4814554512017892,-1.2017828327559863,-0.4684898805896242,0.008314105983291136,0.8733300307953098,0.6789993244706912,2.3552239222218487,1.201173090547864,1.2315854790512932,-1.8934002203403235,-1.6774892093999272,-0.487087262397225,0.004863586147038525,0.32136723649929083,0.6298537383268716,0.5915370041491629,5.71540494907051,0.4409620497706257,0.7853027728648154,0.9994030271954936,0.9540372205186181,0.49629103638833266,1.8274113785204797,1.394376917144661,0.8716930513103178,Relax
128.94212036685093,465.90588235294115,50.01706774476982,,,,,,,70.09098060471246,70.29879022441325,0.107354445692274,0.15044021391345283,464.0,14.825999999999999,0.03195258620689655,20.75,0.7136020542621285,451.0,476.0,1.7647058823529411,9.411764705882353,389.0,1077.0,4.473684210526316,101.5625,,,0.06683170740542707,0.15590179263438086,0.03897776384559236,0.2617112638854003,0.4286782485058401,0.2553642759323181,0.5957015006532087,-1.8585290043675753,49.708751276893196,50.56025401156807,0.9831586539403055,7895.72426194271,1.0171298355481058,4.604362083259679,205.70537139222674,0.5294117647058824,0.5185185185185185,0.7142857142857143,0.125,50.81602373887241,51.80528410998063,49.678365607814385,44.44444444444444,0.4186863297256022,0.581313670274398,32.16475444599925,37.90016647783514,0.5842282096267152,0.41577179037328477,38.645640428013266,32.601438029985616,0.502862409361369,0.49713759063863106,35.553178146705264,35.35022192766695,0.9192961574943133,2.8316275010303644,1.6143929803479424,1.5162741556505728,-1.1588446144335567,-0.5338088964594927,-0.5346510353715899,0.004775016066955778,0.5278634521410057,0.7787135929810021,0.962602966135396,0.1932484653553641,0.41158664893656655,1.0,1.7030253873089958,-0.2731793987112109,0.00638385776945814,0.2174372302262577,0.6305863065214088,0.5827199168146292,5.722141696292431,0.45807444069119063,0.6274548323922484,0.9346443257011483,0.8906591132992019,0.501971906565883,1.8457489655715533,1.3918864134905249,0.8281083987448019,Relax
129.10444225781384,465.2529411764706,50.05666159460217,,,,,,,70.06835208920674,70.27656341122209,0.10759020989319369,0.150602706373069,463.0,14.825999999999999,0.03202159827213823,20.75,0.7143975861009703,449.8,475.0,1.7647058823529411,8.823529411764707,389.0,1077.0,4.857142857142857,93.75,,,0.06276228931574092,0.1458029088983823,0.03700685068384646,0.24557204889796969,0.43045978842221355,0.2555758670312573,0.5937276231260362,-1.925499508314544,49.69303454656154,50.68325950197675,0.9804624847504808,7912.430856482551,1.0199268361139706,4.605280037880815,206.77286603117793,0.5470588235294118,0.5370370370370371,0.735632183908046,0.15,49.85174203113417,50.601533228849725,48.98477774973452,45.67901234567901,0.4178949956491242,0.5821050043508756,32.12396931828171,37.91370998414563,0.582032209551803,0.417967790448197,38.6667834920877,32.766944442848654,0.5015826608790452,0.4984173391209547,35.54623433210535,35.43389657434414,0.5277744456362207,3.1662363711567614,1.3728984319341104,1.4993480383256579,-1.7224646139261175,-1.4993754281482305,-0.46006311861506727,0.007847214353036388,0.7197057741195397,0.9821011502505854,0.7059359932223288,1.0097285372795968,0.8340861797845959,0.9228736633583807,0.977445268921278,-0.7488077661166708,0.0012744746011605936,0.05814894959777677,0.6272299541480411,0.5938680507974227,5.707944948575565,0.4495826961069486,0.7944339467674815,0.9386103591909915,0.8778182672683186,0.5039639072197524,1.8491231589480845,1.4000130559125379,0.8716930513103178,Relax
129.0376759923594,465.50588235294117,49.975763008383375,,,,,,,70.02015770624271,70.22823958629641,0.10735796238658984,0.15041734242394436,463.0,14.825999999999999,0.03202159827213823,20.75,0.7137339395613463,449.8,475.0,1.7647058823529411,7.647058823529412,389.0,1077.0,4.857142857142857,93.75,,,0.04655447991273647,0.10476772133194473,0.027001346174595757,0.17832354741927697,0.44435900028057157,0.26106748428056387,0.5875147889785599,-2.256009557095504,49.65886444226373,50.583247282150765,0.9817255140870874,7891.38738337353,1.0186146592409857,4.6041234731173075,206.09934877444206,0.5411764705882353,0.5308641975308642,0.7325581395348837,0.12195121951219512,49.94388327721661,50.73052143442195,49.04294042746624,45.67901234567901,0.4178187422532849,0.582181257746715,32.09894487214123,37.89011367475313,0.5827462387613094,0.41725376123869085,38.61414701884743,32.67434093618492,0.5018032377884923,0.4981967622115076,35.50629952485845,35.3784770015596,0.7789472605405304,2.3185064245378966,1.4690446231404386,1.1398214376964724,-0.04188371232998911,0.5406091075843211,-0.6419979612562791,0.005450699433554692,0.4443463633514023,0.4250989112938519,1.5575838373997914,0.9062864560258237,0.5302751855606376,0.16521692312312197,0.48104959229394106,-0.741406761829844,0.005573453353303508,0.24258431802668348,0.6927143921845045,0.6653982078768723,5.704227687129978,0.4459360790918594,0.8705612391472015,1.0192903892941425,0.9674796918888907,0.4936736710353908,1.8484023871097452,1.402018897118692,0.9152777038758337,Relax
129.1402992896267,465.1058823529412,49.91081360091822,,,,,,,69.96799775653989,70.17579413356644,0.1073106479505754,0.15043455783138288,462.0,14.825999999999999,0.03209090909090909,20.0,0.7133377429862651,450.8,474.20000000000005,1.7647058823529411,7.0588235294117645,389.0,1077.0,5.0,101.5625,,,0.025935135204756668,0.050840647907451374,0.012474221041871594,0.08925000415407963,0.5101259773866007,0.2905897366680534,0.5696430872953347,-2.9790590886930843,49.62177990699597,50.4747310186037,0.9831014233380787,7868.5774529283835,1.01718904709195,4.602866334038009,205.36937418814392,0.5411764705882353,0.5337423312883436,0.7471264367816092,0.125,49.55921809122269,50.28124127887388,48.74691889408908,44.785276073619634,0.41721873515579383,0.5827812648442059,32.05199458914932,37.88139384975162,0.5842204787045947,0.41577952129540513,38.580015818510276,32.546595072970256,0.5021424155019993,0.4978575844980005,35.46651926605824,35.314875412805094,0.4606261206801211,2.902467026606097,1.3271594007084002,1.3036362765085692,-1.097110587058932,-0.8806638721097313,-0.5081045276257065,0.009213652560865619,0.6675298308867973,0.26706009928807745,1.9874617226899385,0.914368782996235,0.6160874859294913,-0.2223344443554538,0.028372259438121716,-0.6500815304573684,0.006523752712363016,0.3600738574650117,0.644252635240345,0.6087455159229624,5.653315792823782,0.422466943423305,0.6990161017608254,1.0118932510615057,0.9660282672410523,0.4681549945298059,1.8433558580354137,1.4041371622593342,0.8281083987448019,Relax
129.76471222477366,462.9356725146199,50.35791265575911,,,,,,,69.74128661577394,69.94717414024214,0.10877950360191514,0.15065005951463256,461.0,16.3086,0.035376572668112796,22.0,0.722067445259452,445.0,474.0,1.7543859649122806,6.432748538011696,389.0,1077.0,5.181818181818182,101.5625,,,0.01131388725976164,0.018168902188559405,0.001830867655368265,0.03131365710368931,0.6227061570558604,0.36130839723695707,0.5802229400544462,-4.008043817300871,49.46012115940153,51.49889343530511,0.9604113381879794,8002.081051967676,1.041220527328127,4.610173055935541,214.48681991809363,0.543859649122807,0.5365853658536586,0.7613636363636364,0.15,49.53632148377127,50.23571812800978,48.73718336771351,46.95121951219512,0.41750780669864335,0.5824921933013565,31.958645615635824,37.748623549497225,0.5702565795145681,0.4297434204854319,38.889561813661494,33.760006027877324,0.49696539718368365,0.5030346028163162,35.59320895651583,35.80989100014108,0.17822438798874277,2.9169976082736015,1.2015229381895447,1.0635438482177708,-0.791853912229401,-0.645495224413856,-0.547301749435933,0.014320209550504531,0.7874102185053571,0.7718679838266302,0.8310048505245117,0.9881936118528856,0.6157880865723777,1.0,1.1309894312559403,-0.9481388105562245,0.002301994512441447,0.10035285152680995,0.588443291339197,0.554380173881478,5.754313925210828,0.42100707954067157,0.6855182714569578,0.9883936407290813,0.9449458708995281,0.5109956383172518,1.9369505859675478,1.3891226142071904,0.9543435984063728,Relax
130.9527920176089,458.29651162790697,16.70694744779117,,,,,,,9.521290393651164,9.545765418597954,0.03645445039161811,0.02077539355434052,459.0,17.7912,0.03876078431372549,24.0,1.7546936136861693,444.0,473.0,0.0,4.651162790697675,415.0,503.0,5.375,70.3125,,,0.01670643702930075,0.022037457394113988,0.002033467632779172,0.04077736205619391,0.7580927658997038,0.4096988178459944,0.540433620098939,-3.8150116645957413,6.749875459106655,22.570450039781658,0.29905808024251307,478.61449938300115,3.343832071646675,3.386955961169099,301.88717885808353,0.5465116279069767,0.5365853658536586,0.7613636363636364,0.15,48.267716535433074,48.23878550207385,48.296674222840046,48.78048780487805,0.42800928912398395,0.5719907108760159,4.417545232632365,5.106800540916581,0.4773583106979121,0.5226416893020877,15.594177120274724,16.317072499066132,0.47330435264083903,0.5266956473591609,11.460651507241039,12.08979459512208,1.280693166356276,1.5002739709491109,1.4677089041819362,1.8297677583799363,-0.7536966541647718,-1.320402321002053,-0.2586715085319033,0.0008914409360974469,0.15096951033401157,1.2548818802508088,0.5994034890446298,1.5901440411952183,1.427492148847209,-0.5090929247853175,-1.5090929247853175,-0.7713562655553692,0.0008482703248848274,0.055938455172078586,0.9266586958881913,1.5128110767450287,5.731005950555582,0.9724702477282811,1.3138366143586875,1.3470763184654366,2.132319329880164,1.7525255495941725,1.7021399312074326,2.5229677436745908,0.6908153260187998,Relax
137.40263107405795,438.0111111111111,69.31548706719074,,,,,,,91.5590294068356,91.81537738280566,0.1582505222101714,0.20903357719528182,426.0,13.343399999999999,0.031322535211267606,18.25,0.7570579058805073,413.0,443.0,13.333333333333334,24.444444444444443,357.0,1059.0,4.864864864864865,93.75,,,0.020409742309252958,0.1286226369790815,0.05137309972007227,0.20040547900840672,0.1586792402069341,0.10184223709969925,0.6418119784723348,-2.0508724563935194,64.92327596458385,73.74818465437271,0.8803372756746819,15041.86314036873,1.1359282716202261,4.884271742857496,335.0905917182835,0.6277777777777778,0.6294117647058823,0.8785046728971962,0.2127659574468085,49.56649762800588,49.24672371982306,50.13954481331317,49.411764705882355,0.5349577859569085,0.4650422140430917,47.48565720772366,44.27401271905666,0.4749345449465196,0.5250654550534803,50.823926499354386,53.43896738339614,0.501141910274325,0.49885808972567514,49.1831228434166,49.070925389943824,0.8186528393856125,1.7151317781472653,1.1518559132988342,1.165728010303134,-0.40443906585765177,-0.2940524354797036,-0.49191193517545057,0.0010360370488667065,0.1680243977549104,0.7335112712850402,0.614390046119407,1.0836305249063862,0.9341427372881944,0.9877159151690782,0.2008430292821768,-0.7433108878673773,0.0023353154275770087,0.08248131461088816,0.6429804308445779,0.5237869218660335,5.7939794522280605,0.465181548974236,0.35325070330505204,0.7651813045142822,0.6876589172017024,0.6447059294577538,1.915498551704798,1.8036225028031678,0.7491853096329675,Stress
138.4265793209077,434.6923076923077,69.91497477227297,,,,,,,90.89785415235478,91.14892090797765,0.16083784675978563,0.20910849477625415,423.5,15.5673,0.03675867768595041,20.0,0.7691597939714594,408.0,435.8,12.087912087912088,23.626373626373624,346.0,1059.0,5.352941176470588,101.5625,,,0.021022480593561023,0.13491245519846878,0.051205444250801195,0.207140380042831,0.15582312665376222,0.10148905099630572,0.6513092964808337,-2.0031291909091578,64.45202007186728,75.2219035649601,0.856825166837314,15231.080933545189,1.1670992387994024,4.8897008358070675,351.1657055668279,0.6208791208791209,0.6198830409356725,0.8679245283018868,0.2127659574468085,49.3353273512795,48.96466611189752,49.972093227434705,47.953216374269005,0.5344420387055014,0.4655579612944985,47.11855614652611,43.977298436554484,0.4862524307889458,0.5137475692110541,52.453589381629364,53.91619178799236,0.5066537025419255,0.49334629745807435,49.85748375294282,49.19836640935018,0.9066809489048737,1.1525189653811574,1.1452199170910042,1.207981610530547,0.014480948701869778,-0.41893871309287434,-0.445543895306932,0.00037778253807092176,0.081496356249683,0.9247061238214612,0.519528024249332,0.42428017704783416,0.6840441891725002,1.0382041549514098,-0.9614839375251645,0.0,0.00016181381988810035,0.015448762866985998,0.5905444757398923,0.48414675697045517,5.845718593717779,0.45038009653488476,0.3561516255376865,0.7877336539339658,0.6990375630623173,0.6626776747251953,1.9102824381227812,1.8085421641627577,0.783780759141622,Stress
139.52916829166406,431.21311475409834,69.45038107493575,,,,,,,89.83088506793146,90.07829030926582,0.16105813737724609,0.20832131953861843,421.0,17.7912,0.04225938242280285,23.0,0.7731236425246877,405.0,433.6,10.382513661202186,21.85792349726776,345.0,1059.0,5.545454545454546,93.75,,,0.07273243954856792,0.05740574768578597,0.03522772163226397,0.16536590886661784,1.2669888030493668,0.43982728995994597,0.34714378603929036,-2.8576108467709704,63.69496991537233,75.07230006320437,0.8484483606036672,15022.241223267123,1.178622113535,4.883704841450521,353.92749187371055,0.6229508196721312,0.6184971098265896,0.8691588785046729,0.2127659574468085,49.575169065371945,49.25617913941106,50.16743789886894,47.398843930635834,0.5358083701865299,0.46419162981347,46.62424736109904,43.396603477347924,0.48535190808176015,0.5146480919182399,52.30077118058693,53.85610058940102,0.5064710189803172,0.49352898101968296,49.543875040579245,48.90677235345758,0.8129775824009537,2.2142969675114657,1.2434323589546896,1.48006897288702,-1.4806113012674658,-1.5694196177661537,-0.39313239488456053,0.0016250328203595817,0.27765068871665055,0.6467052893806027,1.1427314188995186,0.9534016610069873,0.8661578286775014,0.16068092219015995,0.03806102425945079,-0.5763467520771453,0.0011703933224645965,0.09167686032602838,0.5536499515460682,0.4552685333285881,5.770286641989267,0.41730460904772004,0.3088041007936182,0.7803649680202299,0.6978145218159106,0.6331159658228112,1.8898819353632552,1.7724718764108782,0.8624573584916114,Stress
140.40017191939347,428.4756756756757,69.19671629792833,,,,,,,89.21737011610902,89.46068911343147,0.1614950864802536,0.20822038491547873,419.0,17.7912,0.04246109785202864,25.0,0.7755969068341124,404.0,431.0,10.27027027027027,20.54054054054054,345.0,1059.0,5.606060606060606,109.375,,,0.0679724561833176,0.0455236956622616,0.028501421651959846,0.14199757349753905,1.4931225418868102,0.4786874487295068,0.3205948844122366,-3.0895223048000755,63.258259921728936,74.99192916105535,0.8435342393429196,14903.272417253296,1.1854883339163105,4.8802517499655735,355.60822863323796,0.6216216216216216,0.6149425287356322,0.8598130841121495,0.2127659574468085,49.770318021201426,49.474056143540466,50.33132211216203,47.701149425287355,0.5362196434228782,0.4637803565771218,46.322196640912274,43.07982804862913,0.4849681867092286,0.5150318132907715,52.22412246089206,53.81849563566871,0.506275205411935,0.493724794588065,49.361446840877726,48.745779597755664,0.7645632709196826,1.8637237943910354,1.2065336457902347,1.3010139105044727,-0.8079529009561828,-0.9912441097397706,-0.44930565087027335,0.0015956054329551498,0.2196079071783098,0.00695222520761737,2.8643696263573597,0.8754429260463323,0.8631467187056293,-1.710376304806866,-1.5842718679540588,-0.5042928144564709,0.011376019864324202,0.67733274410511,0.528475753111741,0.43760213508586665,5.704226715138704,0.4020989849611318,0.33669027922447314,0.7526528633611548,0.6664338297291301,0.5951620062022488,1.9218387357359807,1.728008471060701,0.9363339113074334,Stress
141.08976610850968,426.3010752688172,65.80031790709971,,,,,,,86.2709747312564,86.50502114849341,0.1543517521404498,0.20237099959660104,418.0,19.273799999999998,0.04610956937799043,25.0,0.7627167551088295,402.0,431.0,9.13978494623656,18.817204301075268,345.0,1059.0,5.470588235294118,109.375,,,0.03740020014762317,0.018441135120162853,0.01598333369537688,0.0718246689631629,2.0280855762903216,0.5207152457159923,0.25675210740784415,-3.9931715052557113,61.168287060785396,70.45187121334541,0.8682279974587607,13538.44310025343,1.1517711971128854,4.838538833997357,324.57774418495075,0.6129032258064516,0.6057142857142858,0.8679245283018868,0.2222222222222222,50.19054878048781,49.95095630514449,50.70901816102281,45.14285714285714,0.5465656084410152,0.45343439155898485,45.2217963991394,41.189250391650575,0.4445321944839975,0.5554678055160026,46.97255052925648,52.507577112624965,0.4883878287986651,0.5116121712013351,46.10548434182625,47.18898177575113,0.5895036865329659,2.3522906216900834,1.1081689516938655,1.392004142002039,-1.5363461257698887,-1.7777851959318445,-0.3793366824273428,0.001964142611491333,0.34754737370292876,0.8125776785670634,1.6302766631124488,1.2470392512405923,1.175192732777334,-0.4301342344247452,-0.5282922266857968,-0.5440701385776401,0.0024457087362835766,0.1857434022034003,0.5132364293955569,0.4395526395657229,5.807762007855159,0.40737125257624873,0.3429206468903802,0.7480342583938169,0.6553490901831539,0.6246442437001022,1.9099223465820456,1.668568078280686,0.9322615734165846,Stress
141.34166307908086,425.3494623655914,59.60737687642165,,,,,,,76.69546658437247,76.90359501329861,0.14013742146261046,0.18031165751998077,419.0,17.7912,0.04246109785202864,24.0,0.7771955701038435,404.0,432.0,8.60215053763441,19.892473118279568,345.0,1059.0,5.8125,101.5625,,,0.051312909463209974,0.03574460231697113,0.02219298766911186,0.10925049944929296,1.4355428830396355,0.46968123461097877,0.32718021882876125,-3.331356005382041,54.379053531527404,64.69182004313633,0.8405862363320061,11051.745791980964,1.1896459361071792,4.750400996846003,307.8414432547764,0.6236559139784946,0.6171428571428571,0.8703703703703703,0.25,49.97849462365591,49.61614399875973,50.694801494833975,45.14285714285714,0.5638068527466307,0.43619314725336933,40.83164001221303,35.914602819078674,0.4301131828633438,0.569886817136656,42.42684590527188,48.83640370690548,0.4854669801396391,0.5145330198603609,41.636883165990234,42.86521330097416,1.0556934828478297,0.8706138130976417,1.1599081244003646,1.047146197511769,0.7251219504342128,0.8483731063172235,-0.6295200296528594,0.00044791685525777023,0.04366594314290963,1.3964468052816914,0.9785834805525226,1.4589347722648722,1.0989277550099068,0.4844547935129704,1.3065541793226743,-0.867885851753496,0.002546448265299453,0.09031350030991991,0.6018611165645469,0.5722586104450018,5.828490752947981,0.44656119792284493,0.44050538846610754,0.9102272943692995,0.8310832653825787,0.6388871551743956,1.8688619902081935,1.6064491733112047,0.891728461528907,Stress
140.88822540838618,426.7204301075269,59.50305294759487,,,,,,,76.62312120178024,76.83080630001064,0.13944270943999804,0.179562813954027,421.0,17.7912,0.04225938242280285,24.75,0.7765678559464946,404.0,434.0,8.60215053763441,18.817204301075268,345.0,1059.0,5.470588235294118,93.75,,,0.07041626234878724,0.04244186482731926,0.029004399193828165,0.14186252636993466,1.659122723171703,0.49636971898528637,0.29917601154686674,-3.15962002587844,54.32758413876764,64.51709868187405,0.8420648982783671,11011.46479944667,1.187556923515678,4.748815204773934,306.470908899215,0.5967741935483871,0.5885714285714286,0.8349514563106796,0.20454545454545456,50.39249890972526,50.09213511736312,51.02358279735255,44.0,0.5644825687701743,0.4355174312298257,40.8175620237811,35.85292268724255,0.43132335147783774,0.5686766485221625,42.37174154939882,48.65276498204007,0.4865696661928224,0.5134303338071776,41.601910121377045,42.734784459588745,1.0207239061989175,1.2118895798460012,1.1767535994570728,1.1510857227018338,0.1389571041537856,0.28863557926560013,-0.5211800457583773,0.0003012357355063821,0.07292877460727923,1.4537046123524473,0.7068934893028971,1.4537046123524473,1.1002578677009986,1.0418334461992287,1.7779663317704002,-1.0,0.006292928657855864,0.14296898980741551,0.6009743119252757,0.5640142637079749,5.8299284221369545,0.43090721538542753,0.4885192370085351,0.9524374452231338,0.8586832304824049,0.6260021393529382,1.8607424140976956,1.6088419703273684,0.972794685304262,Stress
140.7014336098948,427.2432432432432,59.68076551145186,,,,,,,76.77943423690442,76.98892348585329,0.13968802656400042,0.17970894906158044,422.0,19.273799999999998,0.04567251184834123,26.0,0.7773014493348012,404.0,435.0,8.64864864864865,18.37837837837838,345.0,1059.0,5.0,85.9375,,,0.0669053149092352,0.043277423725721416,0.027825336769406992,0.1380080754043636,1.5459634411988075,0.4847927537080903,0.31358616949710066,-3.140124171961447,54.43938987309911,64.7965994181107,0.8401581311670386,11081.928307237054,1.1902521238602188,4.751585446196066,308.4971603053043,0.6,0.5895953757225434,0.8431372549019608,0.18604651162790697,50.055444666223096,49.69418911621478,50.76911494567176,45.08670520231214,0.5645301213705234,0.4354698786294765,40.90315765330262,35.92463270477066,0.4314710817570096,0.5685289182429903,42.56259132353828,48.85719103649501,0.48652923662423103,0.5134707633757687,41.74112172777263,42.88125669187673,0.9002350144209603,1.839239611616223,1.2318596065533511,1.3934388737287258,-0.7897351047693313,-0.7929979299775716,-0.412148876005673,0.0004960560311098847,0.18697660659908413,0.8287179103155413,1.4115708232285047,1.225398026967842,1.010600681756806,-0.010659833744005809,0.04124499517558844,-0.6521690174353119,0.0026259499970871145,0.15859990969718457,0.5959169180677817,0.5502572554703404,5.8568198427206015,0.4168535303180426,0.6542982394308817,0.9790539270836093,0.9169552192936352,0.6485913579413195,1.8552293328119227,1.6061647672777832,0.9363339113074334,Stress
140.31208230805834,428.4594594594595,59.76593592952691,,,,,,,76.78714934380508,76.99666272971461,0.1394902939123507,0.17921683755256343,423.0,19.273799999999998,0.045564539007092196,28.0,0.7783325262138882,404.0,438.0,8.64864864864865,18.37837837837838,345.0,1059.0,5.0,101.5625,,,0.05815114362949228,0.04215688451698908,0.024397425465896922,0.12470545361237828,1.3793985085889724,0.466307943598388,0.3380516512776197,-3.1663572741353794,54.44486234491471,64.9514758247111,0.83823903388814,11109.532923314933,1.1929771336960269,4.752665910298602,309.9425018347625,0.5783783783783784,0.5706214689265536,0.8217821782178217,0.15555555555555556,50.0329887838135,49.67104603880041,50.746755358543325,45.19774011299435,0.5644351206041404,0.4355648793958594,40.903825625724444,35.93216134021491,0.43356940674683464,0.5664305932531651,42.767940640857525,48.8835091329184,0.4875748613154571,0.5124251386845429,41.846264453828994,42.89940374718133,1.0951058565103355,0.8506094351944538,1.1873490975651007,1.0771392179588866,0.7214105172961807,0.8439028700196172,-0.6295657854782901,0.00048554136831356474,0.0420269569505409,1.6726328786836548,0.7061824985004534,1.6726328786836548,1.3195416294334281,1.1162355571846652,1.9095447596310926,-1.0,0.006738526150113676,0.14303571077596625,0.5984677607884423,0.5537171883953036,5.898217462232516,0.4229996858924711,0.6494485148828407,0.9858531538414168,0.9321425965598312,0.6852623949440291,1.8588414518331642,1.607968281260627,0.9770440813642783,Stress
140.12976848496183,429.0108108108108,59.766210206865104,,,,,,,76.69894563075535,76.90804631831985,0.13931166464991804,0.17878091576712915,425.0,19.273799999999998,0.04535011764705882,28.0,0.7792311838886554,404.0,438.0,8.64864864864865,17.2972972972973,345.0,1059.0,5.0,101.5625,,,0.050298736855056,0.03445492430873474,0.02129461386566565,0.10604827502945639,1.4598417458228072,0.4743003772676625,0.32489848891143586,-3.3681033509905074,54.38220107949306,64.98561850880702,0.8368344000930458,11102.5799901817,1.194979556156884,4.752394020757685,310.6259422489391,0.572972972972973,0.5649717514124294,0.82,0.13043478260869565,50.335270451497536,50.027749889033245,50.98245232426927,44.06779661016949,0.5650236229492748,0.43497637705072506,40.87813422752434,35.86663213275604,0.43390589246965366,0.5660941075303466,42.80702346154914,48.894676145103816,0.4879089268532145,0.5120910731467856,41.85369228372281,42.87834334416986,0.7646022061758082,2.4914143913290037,1.2108928668743473,1.5410489287502385,-1.6303835712789958,-1.5752207616098381,-0.36748247781463006,0.001163044600326971,0.36011077731170454,1.1547776394557083,0.36580946874347764,1.1547776394557083,0.9718729050839695,1.0588501633697864,0.04483429250697202,-1.0,0.0017568508494452695,0.04628219395515125,0.56528490158821,0.5269822780512533,5.90002484188114,0.4138797680654459,0.5705444241710808,0.930464186723418,0.8757358786063197,0.6766448779931077,1.8564721171926613,1.5900662676607236,0.9363339113074334,Stress
