PPG_Rate_Mean,HRV_MeanNN,HRV_SDNN,HRV_SDANN1,HRV_SDNNI1,HRV_SDANN2,HRV_SDNNI2,HRV_SDANN5,HRV_SDNNI5,HRV_RMSSD,HRV_SDSD,HRV_CVNN,HRV_CVSD,HRV_MedianNN,HRV_MadNN,HRV_MCVNN,HRV_IQRNN,HRV_SDRMSSD,HRV_Prc20NN,HRV_Prc80NN,HRV_pNN50,HRV_pNN20,HRV_MinNN,HRV_MaxNN,HRV_HTI,HRV_TINN,HRV_ULF,HRV_VLF,HRV_LF,HRV_HF,HRV_VHF,HRV_TP,HRV_LFHF,HRV_LFn,HRV_HFn,HRV_LnHF,HRV_SD1,HRV_SD2,HRV_SD1SD2,HRV_S,HRV_CSI,HRV_CVI,HRV_CSI_Modified,HRV_PIP,HRV_IALS,HRV_PSS,HRV_PAS,HRV_GI,HRV_SI,HRV_AI,HRV_PI,HRV_C1d,HRV_C1a,HRV_SD1d,HRV_SD1a,HRV_C2d,HRV_C2a,HRV_SD2d,HRV_SD2a,HRV_Cd,HRV_Ca,HRV_SDNNd,HRV_SDNNa,HRV_DFA_alpha1,HRV_MFDFA_alpha1_Width,HRV_MFDFA_alpha1_Peak,HRV_MFDFA_alpha1_Mean,HRV_MFDFA_alpha1_Max,HRV_MFDFA_alpha1_Delta,HRV_MFDFA_alpha1_Asymmetry,HRV_MFDFA_alpha1_Fluctuation,HRV_MFDFA_alpha1_Increment,HRV_ApEn,HRV_SampEn,HRV_ShanEn,HRV_FuzzyEn,HRV_MSEn,HRV_CMSEn,HRV_RCMSEn,HRV_CD,HRV_HFD,HRV_KFD,HRV_LZC,Labels
88.58534545703225,680.9224137931035,123.79577508152684,,,,,,,154.91809897911978,155.59588859992118,0.18180599224501642,0.22751211568457966,675.5,54.1149,0.08011088082901555,71.25,0.7991046617362141,632.0,718.0,32.758620689655174,68.10344827586206,336.0,1514.0,10.545454545454545,359.375,,,0.04654081342722862,0.09574167091243149,0.008171494604182492,0.1504539789438426,0.4861082220906338,0.3093358763519316,0.6363518704159187,-2.3461016425647685,110.02290795375089,137.15372958019566,0.8021867745814305,47406.79702421363,1.2465924790667182,5.382810723755746,683.8992310824896,0.5431034482758621,0.5526315789473684,0.7777777777777778,0.16666666666666666,50.14992503748127,50.7413257597002,49.41016819632113,48.24561403508772,0.4059365439159176,0.5940634560840824,70.09914657738133,84.80082443326481,0.5985971708131944,0.4014028291868056,106.11455366092271,86.89561001052117,0.5231619872101738,0.47683801278982607,89.92827377842309,85.85460635184926,0.8425164317118101,0.8927679392370047,1.1808610542836144,0.8411302231206679,0.7642195169715666,0.7698424699439821,-0.8805365495688545,0.002722235202896796,0.11717282100826355,0.7998914049118251,1.0615710169877606,6.41729637893133,0.7807909427872349,0.9616681536743832,1.0603694716063052,1.1289524418592187,1.1733874104745785,1.9199024395682338,2.0236103620712074,0.9459284131210444,Relax
88.02382359597537,684.3362068965517,119.56835003392446,,,,,,,142.175335719514,142.79707909163076,0.17472164826140657,0.20775655925656153,679.0,55.5975,0.08188144329896907,73.75,0.8409922116857947,632.0,721.0,33.62068965517241,67.24137931034483,336.0,1514.0,10.545454545454545,359.375,,,0.06687529571013671,0.13306572194696845,0.01119432988275191,0.21113534753985705,0.5025734256098574,0.3167413533042464,0.6302389604462084,-2.0169121228350706,100.97278295932387,136.36661253022018,0.7404509145297373,43257.58315266965,1.35052841502006,5.343032361246546,736.6679403283716,0.5172413793103449,0.5263157894736842,0.75,0.13333333333333333,49.75294117647059,50.09146533757107,49.225076283343085,48.24561403508772,0.41362089658821555,0.5863791034117845,64.9392090896785,77.3205619369493,0.5859520823384593,0.41404791766154053,104.38524223187895,87.74721771748182,0.5249264537602688,0.4750735462397312,86.92922314446686,82.69837820478939,0.6063411526356919,1.8201663789748086,1.203921530045329,0.884503439151976,0.4463979062562835,0.8314614627520684,-0.6754884029191124,0.0036386471844764884,0.3185237673078067,0.8095793192035967,1.0728195341063806,6.510010926363775,0.7976993914835714,1.2073726690903661,1.1380834460227678,1.168726188078316,1.2029147543579475,1.900696150770938,1.9344333546338783,1.0641694647611748,Relax
87.90829397633823,684.9739130434782,142.0753111921394,,,,,,,152.30345401619476,152.914698136152,0.2074171125158182,0.2223492765432184,678.0,57.8214,0.08528230088495575,75.5,0.9328436581420683,628.0,720.2,35.65217391304348,68.69565217391305,336.0,1514.0,10.454545454545455,367.1875,,,0.0622787582231043,0.1199129617845277,0.011026198016030556,0.19321791802366256,0.519366357867245,0.32232392761564327,0.6206099465880928,-2.1209891178330587,108.12701999516699,163.6350074327208,0.660781709803899,55585.347765073915,1.5133590793497766,5.451930437094338,990.5540967911048,0.5043478260869565,0.5132743362831859,0.7241379310344828,0.0967741935483871,52.62258305736568,52.19234812816639,52.78809741810861,46.902654867256636,0.45815602354121926,0.5418439764587808,73.21746007734077,79.62420030578821,0.6167354733963011,0.38326452660369886,128.50667448186672,101.30375250264986,0.5685119346235981,0.43148806537640194,104.58193401961317,91.11109577174017,0.8863645249511708,0.7564965965396826,1.127350266469834,0.8115064273348443,1.051238923692077,1.1377932572481042,-0.9175086055637289,0.0015781058545016992,0.07652657117944014,0.7531052743161597,0.9459354484591518,6.459711546800027,0.7889714388122178,1.0503655091159543,1.1689476450056204,1.0896667859552345,1.1366020617609567,1.904330280983039,2.0614303865077175,1.1905200088598913,Relax
87.734157504716,687.3157894736842,143.0604993495758,,,,,,,158.35492788619086,159.06004420088775,0.20814376963335174,0.23039617350774383,678.5,62.2692,0.09177479734708917,84.25,0.9034167819039574,628.0,724.4,37.719298245614034,70.17543859649122,336.0,1514.0,10.363636363636363,359.375,,,0.0448922815574749,0.08301724651454162,0.007994993317140276,0.1359045213891568,0.5407584982912123,0.3303222078162342,0.6108497764899615,-2.4887069034389255,112.47243587027971,169.13737459669122,0.6649768339994085,59763.43602036245,1.5038117854206174,5.48340566867852,1017.4031090944239,0.5,0.5089285714285715,0.7017543859649122,0.1,49.83690112130479,50.059197079631836,49.37514887947604,48.214285714285715,0.42740346270847906,0.572596537291521,73.53021123514957,85.10815073439541,0.5802238408099787,0.4197761591900211,128.83604067449284,109.58433331814302,0.5333671597881378,0.46663284021186247,104.89379710203384,98.1124952037467,0.9294245721324709,0.7222436886401422,1.0452188313468447,0.9006029787335869,1.089955547570893,0.9910796132373763,-0.7002313829637529,0.0025663911445759466,0.09787812514845395,0.7736240120568683,1.039070894977093,6.454649527508918,0.8309225200927742,1.3339054341243124,1.3318812799388504,1.2651339831886734,1.2029827175444678,1.8802794672156584,2.171103526729152,0.9590021072511917,Relax
88.11919397165437,687.4298245614035,148.76631132689167,,,,,,,171.3134579796805,172.06943874769908,0.21640945157101396,0.24920864917227373,679.0,66.717,0.09825773195876289,90.25,0.8683866001031679,625.2,728.2,40.35087719298245,73.68421052631578,336.0,1514.0,11.4,343.75,,,0.04312206797988205,0.08213341549799488,0.004501624294854229,0.12975710777273117,0.5250246531015721,0.3323291395752293,0.6329781613339525,-2.499410335609951,121.67146697346128,171.4741637315477,0.7095615125083491,65544.65932364538,1.4093210840381276,5.523507420469008,966.6486172587047,0.5263157894736842,0.5357142857142857,0.75,0.14285714285714285,49.203764024610926,49.06281504431445,49.11027456207947,46.42857142857143,0.4470464286425049,0.5529535713574952,81.3547676186572,90.4796741183976,0.566587581353506,0.43341241864649427,129.07205336296587,112.88841334743488,0.5265539972143979,0.4734460027856022,107.88464481476969,102.29947530821636,0.9367521480302919,1.2388149162319269,1.288084301849164,1.1344881580087975,0.17542463496623206,0.16761900238700367,-0.6239863532702334,0.001543529769354268,0.11718362604697113,0.7833115529831436,1.0849134443099482,6.4304838476653785,0.8629491997913863,1.2201172958196727,1.252889508066707,1.2972668328973729,1.2526671745032223,1.8998487949440408,2.1630550405690765,0.9590021072511917,Relax
87.27003287039,693.2894736842105,157.76697971443872,,,,,,,192.33713947451474,193.17715180245366,0.2275629238621625,0.27742688555822964,682.5,72.64739999999999,0.1064430769230769,92.0,0.8202626915710334,625.2,740.6,39.473684210526315,73.68421052631578,336.0,1514.0,12.666666666666666,343.75,,,0.08015769010170061,0.11183365400450972,0.010899294732019175,0.2028906388382295,0.7167582139314542,0.395078307016484,0.5512016456002087,-2.1907427438401497,136.59687400981807,174.92735375841124,0.7808777248095192,75066.87897344156,1.28061022645246,5.5824184697100305,896.0550324371543,0.5350877192982456,0.5446428571428571,0.7540983606557377,0.14285714285714285,48.81090969565942,48.70792543691503,48.61569216643024,45.535714285714285,0.4230406906341545,0.5769593093658453,88.85245595126467,103.76501612503402,0.5783865483552394,0.42161345164476044,133.03527702334202,113.58342379169153,0.5195362553033317,0.4804637446966681,113.12193390596003,108.78504660952159,0.9388027103331923,0.4993061216485106,0.8415228823255669,0.9269298751278825,1.0,0.5797808921894774,-0.3289486367194226,0.002934238910072054,0.08369565155277643,0.7826614737518662,1.0794423725603894,6.454649527508916,0.8317070612394558,0.9305672531208424,1.2924880196380526,1.3117981398307175,1.2511659902031367,1.9128355236462462,2.2624558469395244,0.9590021072511917,Relax
86.50439840645979,699.212389380531,162.48601320726004,,,,,,,187.67793937639934,188.52088509018466,0.23238434512182335,0.2684133494011356,683.0,75.6126,0.11070658857979503,106.0,0.8657704456216595,624.8,749.6,43.36283185840708,74.33628318584071,336.0,1514.0,11.3,343.75,,,0.0609349119215879,0.11407482880836213,0.00997127100232566,0.18498101173227569,0.5341661482916127,0.32941171286153104,0.6166839922654517,-2.170900652863532,133.30439624255948,188.40708844550468,0.7075338690407965,78902.6488437275,1.4133599022696959,5.604061693131976,1065.1480964490258,0.5221238938053098,0.5357142857142857,0.7333333333333333,0.1111111111111111,49.79239599446389,49.82124834165694,49.59003177908213,44.642857142857146,0.4656549328424477,0.5343450671575525,90.96573951640126,97.44434771140345,0.519896107689384,0.48010389231061595,135.84871077209286,130.54638546536816,0.5018010859711737,0.49819891402882643,115.60631034724165,115.19062387836388,0.6980801202746268,1.5368068469524379,1.1532361168189935,0.9855061375458181,0.3238447602730279,0.5223753096756614,-0.6091418740135054,0.0023862572164792067,0.20325328703407503,0.7892989098693675,1.047318994280559,6.427572520144388,0.8785853188263623,1.0070062264181932,1.2052242752527467,1.2644833105256175,1.2674402770235522,1.9073413886351345,2.391179185355085,1.0864001887033041,Relax
86.74371221260084,697.6842105263158,164.1111923827879,,,,,,,190.6155608427555,191.46463192487784,0.23522274104352517,0.2732118026563333,681.5,71.9061,0.10551151870873074,103.25,0.8609538049108599,628.0,748.4000000000001,45.614035087719294,73.68421052631578,336.0,1514.0,10.363636363636363,343.75,,,0.06416898274678094,0.08592204578600514,0.02052091968600024,0.17061194821878634,0.746827920119573,0.37611072036111476,0.503610952709021,-2.454314838146512,135.38593959146743,189.77736036626004,0.7133935224421917,80717.52515892484,1.4017508829862313,5.613937947701306,1064.082329856805,0.5614035087719298,0.5752212389380531,0.7692307692307693,0.14814814814814814,50.003862495171894,50.07008356325965,49.767698198211306,43.36283185840708,0.46314983163958096,0.5368501683604192,92.13705338864955,99.19735919584035,0.525472616778826,0.47452738322117405,137.5686407608896,130.7299337825375,0.504452457981017,0.4955475420189831,117.07768260420418,116.03971660215139,0.8346320098396435,1.0780396250178805,1.2769718918410986,0.8979166836809447,0.5432786607957443,0.7193256378723105,-0.8516152833008034,0.0021981891687273495,0.11539677810460268,0.7560443507459604,0.981595830281922,6.454649527508918,0.899108498079309,1.1681342056393222,1.3172845250453928,1.4296885621791868,1.2272439558406503,1.8831243262027688,2.418445281217989,1.0788773706575907,Relax
86.71655656005156,697.858407079646,164.88063145676875,,,,,,,191.46677723749957,192.32707868697975,0.23626659761362032,0.27436335980924514,680.0,71.1648,0.10465411764705883,105.0,0.8611448619738724,628.0,749.6,46.902654867256636,75.22123893805309,336.0,1514.0,11.3,343.75,,,0.0668278415300584,0.07353066530188412,0.023211244772909874,0.16356975160485238,0.9088431507547644,0.4085586783276372,0.4495370603699248,-2.6100527447816995,135.9957815453621,190.63004566396546,0.7134016102849268,81445.41898120669,1.401734991319417,5.617836771753846,1068.8512216159947,0.5398230088495575,0.5495495495495495,0.7540983606557377,0.14814814814814814,49.87230090550268,49.929060224556075,49.65462770440135,43.24324324324324,0.46283379369083316,0.5371662063091669,92.52060885588175,99.67363409314088,0.525072223863768,0.4749277761362322,138.13409106541,131.3727033876466,0.504080167863156,0.495919832136844,117.56081442710841,116.6053612161806,0.8751380040444037,1.4752100190937956,1.351654686402036,1.133694532030371,0.3667599551435554,0.546922705212423,-0.647748558883538,0.003256445739026158,0.21137405405050402,0.7754598183227217,1.0887599922250986,6.4284562853665985,0.91121552447359,1.2979498028763403,1.3398648970945213,1.5690114658858567,1.2286852917747646,1.8771816119517162,2.3853413730713733,1.0864001887033041,Relax
86.37412734166882,700.8230088495575,166.3211840132828,,,,,,,191.8173889778654,192.67757024274016,0.23732266479993125,0.27370304136096363,683.0,80.0604,0.11721874084919473,113.0,0.8670808465257301,628.4,763.2,48.67256637168141,73.45132743362832,336.0,1513.0,14.125,335.9375,,,0.07935631197832937,0.0807220820419752,0.018975310360598543,0.17905370438090312,0.9830805892378293,0.44319838147282187,0.4508260933281455,-2.516743109885195,136.2436165011889,192.91587938441333,0.7062332916084291,82572.2298573649,1.4159627022432268,5.623804122808556,1092.6467595151291,0.5221238938053098,0.5321100917431192,0.7413793103448276,0.14285714285714285,50.369970710652076,50.43328053195003,50.10857105995557,44.03669724770643,0.4657207447466803,0.5342792552533199,92.97866170004562,99.58745986399173,0.5181641293880385,0.4818358706119616,138.8678301264565,133.9113971050677,0.5007115671771231,0.4992884328228768,118.1721324500026,118.0040771261597,0.991942103349695,0.8214833082932684,1.5082833374365703,1.1716059556350624,0.8119383276954268,0.36235825233108754,-0.9098408067487045,0.0024449956008262283,0.10704504649502398,0.7225718859260764,1.0246811355405758,6.492572325170462,0.9161980827306296,1.0233237656909389,1.452026644437377,1.7658348080927702,1.2379278907626683,1.887192069015533,2.3717045223782565,1.0260446226642317,Relax
87.5926100733088,688.7565217391304,148.4961214748006,,,,,,,164.1617462972675,164.84942082972657,0.21560031271986146,0.23834510616720445,687.0,81.54299999999999,0.11869432314410479,108.0,0.9045720140299964,625.6,755.6,47.82608695652174,72.17391304347827,305.0,1183.0,12.777777777777779,367.1875,,,0.07665389694132903,0.0749613463249722,0.018386953902589046,0.17000219716889026,1.022578978357983,0.45089944846522484,0.4409433970462226,-2.5907826806346548,116.56614334337453,172.01323016187428,0.677658010570926,62991.81933805412,1.475670595493295,5.506254261843449,1015.3394631427929,0.5130434782608696,0.5225225225225225,0.7241379310344828,0.14814814814814814,48.29920315311455,47.60651125442777,48.8904660108505,47.74774774774775,0.4979407231637314,0.5020592768362684,82.27331420386865,82.61286192689496,0.4546410594629009,0.5453589405370992,115.98349164456408,127.029055796921,0.46827177782692386,0.5317282221730762,100.55115256463539,107.1477157302233,0.9247142817371818,1.0013041498045565,1.7197184081513766,1.2814684232900042,0.9568173614164452,0.24461322811535702,-0.9376791856369654,0.004383301634615666,0.19368262595630897,0.742843965774783,1.0958985827965133,6.495362550887938,0.96285172277648,1.112259255511155,1.2046269314870013,1.6720221616965947,1.3111561287912716,1.8368601604767139,3.061135163489806,0.8928900066449185,Relax
86.95284420499753,695.780701754386,150.35037302424536,,,,,,,174.17240467040858,174.94815061769359,0.21608873693268915,0.2503265816818994,687.5,86.73209999999999,0.1261557818181818,115.5,0.8632272908487293,626.6,763.4,50.877192982456144,72.80701754385966,336.0,1183.0,12.666666666666666,289.0625,,,0.06683797213794498,0.05766240502506445,0.023112530188084984,0.14761290735109442,1.159125640161768,0.4527921937000548,0.3906325406078179,-2.853149877182764,123.70702365781662,173.70043904747175,0.7121860159720604,67506.43085653854,1.404127541924708,5.53631525690356,975.5902820438762,0.5350877192982456,0.5412844036697247,0.7288135593220338,0.14814814814814814,49.923993919513556,49.87949735388861,49.957183316232886,44.95412844036697,0.49126669974746,0.5087333002525399,86.70681304586986,88.23474675950673,0.48948984120226047,0.5105101587977392,121.52699455874443,124.10895261343298,0.490087793517027,0.5099122064829729,105.5624976851451,107.6763731152699,0.9099482885825738,1.0420494687629438,0.9487827320381204,1.3428418272845608,0.6930678560893568,-0.13066975255167312,-0.12184223776416032,0.003914738143761838,0.1873010766466623,0.7375611633339973,1.198695747225092,6.4972350798972816,1.0222567918358885,1.3414465308174957,1.2806248036914336,1.4749031778196695,1.3910762290296137,1.8690734263361004,2.898798076991512,1.0788773706575907,Relax
86.69483682297582,697.7433628318585,151.14956988981513,,,,,,,175.0600662221807,175.83815990313644,0.21662630981735187,0.25089463482917645,696.0,91.9212,0.1320706896551724,123.0,0.8634154730524372,619.6,764.6,51.32743362831859,74.33628318584071,336.0,1183.0,12.555555555555555,335.9375,,,0.06798541889761128,0.04610115907737377,0.021846970964983163,0.13593354893996823,1.4747008591152364,0.5001371583966766,0.33914482066331714,-3.076917186619385,124.33635525887225,174.53790975533994,0.7123744946479641,68176.98254257374,1.4037560405558491,5.540607885761832,980.0345805002005,0.49557522123893805,0.5045871559633027,0.6909090909090909,0.1111111111111111,50.77633569551715,50.764752533112166,50.7365090792885,44.03669724770643,0.49332746758420976,0.5066725324157901,87.33478610991651,88.50815608571727,0.49149248549813374,0.5085075145018663,122.36246342929152,124.46248223974358,0.49211025467290714,0.5078897453270929,106.30131071945814,107.99213670210479,0.8456097367197793,1.895483097650096,1.4193159111541807,1.61540400495079,0.0387535719307035,-0.6162454379277769,-0.39654980619995644,0.006035544022386291,0.4484663082358636,0.7397056069718602,1.284400053438551,6.49925274554359,1.0512475578647122,1.1703648675370097,1.294793474733528,1.5142142216200423,1.424362022833045,1.885750964259247,2.8021582120828636,1.0864001887033041,Relax
86.46406036402287,700.2857142857143,148.36219550593424,,,,,,,181.14478306711578,181.92133462068702,0.21185952030631164,0.2586726808383946,697.5,92.6625,0.1328494623655914,126.75,0.819025494380176,616.0,768.2,53.57142857142857,75.0,341.0,1183.0,14.0,359.375,,,0.0811991456753311,0.050877907736910824,0.01670579902945348,0.1487828524416954,1.595960787051447,0.5457560756684053,0.3419608301759688,-2.9783264823187623,128.63780935279485,164.1585842599795,0.7836191444552782,66341.01415708808,1.2761301291268679,5.5287522162688685,837.950861315886,0.5357142857142857,0.5462962962962963,0.7457627118644068,0.15384615384615385,48.28327828558262,48.27115139046387,48.27507590306803,47.22222222222222,0.47057360326234243,0.5294263967376578,88.26525106436023,93.62218559916039,0.4710981688750405,0.5289018311249595,112.67285684302115,119.38537647916868,0.470898539937261,0.5291014600627388,101.20752742415577,107.27996493622767,0.9894279973630529,1.6685213375640948,1.1140987315831041,1.7434488084190245,0.14228139084161828,-0.6972388937062304,-0.12280969223041505,0.006112495107331393,0.38788825569496044,0.7484055884870346,1.3227215571022783,6.447849006821084,1.050829111193539,1.3814025383046393,1.2926231755296302,1.5513731127341326,1.4467634386811017,1.8882063196231846,2.864862656763277,1.1548191385633435,Relax
85.66720904424885,706.2321428571429,155.55103922628035,,,,,,,198.43965656414875,199.3346787910076,0.22025482810366126,0.2809836093856312,698.0,98.5929,0.14125057306590258,130.25,0.7838707339024044,614.0,769.0,53.57142857142857,75.0,341.0,1263.0,16.0,335.9375,,,0.07223258899105423,0.04801458484952562,0.01516114644777119,0.13540832028835104,1.5043884939841956,0.5334427665688154,0.35459109711485165,-3.036250463195838,140.95090309876372,169.86466453857983,0.829783542572804,75217.8267484191,1.2051335663990486,5.583290891257635,818.8384359222268,0.5357142857142857,0.5462962962962963,0.7457627118644068,0.14814814814814814,49.44152194278303,49.423545355817616,49.476385249912354,46.2962962962963,0.4829767437178433,0.5170232562821565,97.95840954200919,101.35231082264926,0.48483514043363063,0.5151648595663695,118.2769428370971,121.92033895915118,0.48407731485581545,0.5159226851441847,108.59393446894244,112.10900936366627,0.8421058771475737,1.6544757434635309,1.3716874763392874,1.518189775473149,0.3372323474556378,-0.36045970573198205,-0.4114509235250744,0.005703435109835383,0.37769200329233077,0.7182803208302921,1.2383742310432682,6.483563292535371,1.0429854057969543,1.191230400472188,1.3366862908667687,1.7144305237019015,1.4449506278338036,1.8939974634496841,3.468626470252461,1.1548191385633435,Relax
86.94130329288399,698.2389380530974,163.11270612328826,,,,,,,202.5958767737248,203.50631079359317,0.23360585787165652,0.2901526479440172,694.0,100.8168,0.14526916426512967,142.0,0.805113651476064,607.6,769.0,53.09734513274337,73.45132743362832,330.0,1277.0,16.142857142857142,343.75,,,0.06033464494614116,0.05216190015199247,0.020961508774144103,0.13345805387227774,1.1566803504154268,0.4520869531327253,0.39084864973314043,-2.953402932732936,143.9006923764068,181.54060735030362,0.7926639360566518,82070.3981435824,1.2615686856838784,5.621156650258943,916.1037816527022,0.5398230088495575,0.5504587155963303,0.75,0.17857142857142858,49.91671293725709,49.86820252392339,49.91904642965344,45.87155963302752,0.48665122197931276,0.513348778020687,100.38574250010456,103.10254669568126,0.4833025897643904,0.5166974102356098,126.20697144392341,130.4944154976366,0.4845947227913186,0.5154052772086813,114.02959470756835,117.59874066333566,1.0249418570986506,2.316194234319706,1.011504050037594,2.0781098650115766,-0.829547009483413,-1.6196887909895583,-0.039500703710517115,0.007455568048425852,0.6091946231825995,0.6981345575016142,1.2065012506792945,6.505933165916719,1.0720563540835384,1.341343411808819,1.3443593156563522,1.5322735954584523,1.4620101299887251,1.8701934486212053,3.0542873756037388,1.0864001887033041,Relax
85.89774751976695,706.5892857142857,175.8100199858163,,,,,,,226.55691566587862,227.57881625607777,0.24881500970976556,0.3206345188730876,697.0,110.4537,0.15847015781922524,151.25,0.7760081808541974,598.0,792.2000000000003,57.14285714285714,75.0,341.0,1292.0,16.0,273.4375,,,0.05246297618930743,0.0351087936527623,0.02047804357935826,0.108049813421428,1.4942973178794974,0.48554434781562694,0.3249315527813736,-3.3493036484703427,160.9225242290799,190.60716513418745,0.8442627228404055,96362.02795106423,1.1844654192899078,5.690876041166565,903.0703830813042,0.5446428571428571,0.5555555555555556,0.7666666666666667,0.18518518518518517,49.45564765557342,49.68624376669961,49.165758398459865,46.2962962962963,0.44933155615216175,0.5506684438478383,107.87254684875279,119.4187628017093,0.5507974095802214,0.4492025904197785,141.46049282613475,127.74983510705005,0.508570811680765,0.49142918831923516,125.79260191730134,123.65448087103312,0.7468235819571489,2.139453840011968,1.367483709138657,1.589139873912143,0.09028102821936912,-0.4275306327964148,-0.3963959115975851,0.008703488214777793,0.5960585237233991,0.7074544740662354,1.2142142983781328,6.550614855074001,1.131726326334894,1.087621280611379,1.168717485274201,1.4857704816256376,1.5384690375905254,1.930291894184244,3.6893155204338717,1.0332592292408862,Relax
85.60686819262337,708.4642857142857,173.840764280451,,,,,,,228.04506034893532,229.05649979487615,0.24537689165965762,0.3218864591304224,686.0,112.6776,0.1642530612244898,150.75,0.762308834992762,592.2,792.2000000000003,58.03571428571429,78.57142857142857,388.0,1292.0,16.0,289.0625,,,0.053437355905436655,0.04859939752560164,0.016627255267354202,0.1186640086983925,1.0995477027731966,0.4503248836069412,0.40955465822098086,-3.0241441447450863,161.96740427981194,183.8558690650929,0.8809476961677438,93552.41281098008,1.1351411716611006,5.678025102834502,834.8094665092777,0.5625,0.5740740740740741,0.7903225806451613,0.23076923076923078,48.916277093072665,48.935404334523014,48.78979949470857,45.370370370370374,0.43663279633365415,0.563367203666346,107.03578416076135,121.58124855420756,0.5857996765626355,0.41420032343736446,140.71878018334274,118.32668969168644,0.5206126007465164,0.47938739925348384,125.0168672363794,119.96500634225102,0.7241538008325182,2.6269396252940362,1.320824239745086,1.6774122872505504,-0.6565328888336985,-0.744145311177423,-0.36425723527408777,0.007433622171516995,0.6818627580380979,0.6934154232869161,1.2595426554807465,6.543874788090401,1.0973837276073946,1.4025332621470863,1.1340346537654793,1.6757131278948865,1.601362046937218,1.921240085502842,3.609879734730024,0.9724792745796577,Relax
86.8165058435575,698.9646017699115,162.6539890821892,,,,,,,223.14571232396878,224.14818864530886,0.2327070479253432,0.3192518072573652,678.0,106.74719999999999,0.1574442477876106,142.0,0.7289137998136568,593.4,767.4000000000001,58.4070796460177,78.76106194690266,387.0,1292.0,14.125,289.0625,,,0.056257216783149724,0.08874592289465898,0.04074808682802986,0.18575122650583856,0.6339132542452321,0.302863231868789,0.4777676280477723,-2.42197779089696,158.4967041817794,168.0802430581874,0.9429823594847475,83692.54528090025,1.0604652249766446,5.629656885905431,712.9730110753193,0.584070796460177,0.5963302752293578,0.8307692307692308,0.2222222222222222,50.15161829321122,50.49708987099996,49.746517032040096,44.95412844036697,0.44921353669734726,0.5507864633026527,106.23007497328065,117.62853808907502,0.548310892743911,0.4516891072560891,124.46008815421277,112.9630672527306,0.5016676715864923,0.49833232841350783,115.7046722742501,115.31939892342031,0.7053926027101816,2.1484797414601915,1.3131205936727017,1.4880460433212266,0.12105778032707626,-0.20367969703083944,-0.41858175514857837,0.007653411879768473,0.5592799240468295,0.7395441191974843,1.3814750746839422,6.559030511049462,1.0841030545780195,1.0396634679540788,1.2379723993213911,1.5776005581554615,1.6187462853393,1.9184624186650767,3.3146512071060577,0.9656890566251594,Relax
87.35860282964282,694.4955752212389,162.97760165421755,,,,,,,223.2591583467838,224.2613987108291,0.23467046799009383,0.3214695187592264,670.0,108.2298,0.16153701492537312,139.0,0.7299929053798001,593.4,764.6,58.4070796460177,76.99115044247787,387.0,1292.0,11.3,289.0625,,,0.047869361980093235,0.11355486034581393,0.036577743541567016,0.19800196586747418,0.4215527352533782,0.2417620540804779,0.5735037015835387,-2.175469207772738,158.5767557868073,168.5911069711051,0.9405997661192523,83989.31971138334,1.0631514444510468,5.631194173579465,716.9515155917254,0.5752212389380531,0.5871559633027523,0.84375,0.1724137931034483,49.74964455708722,50.084816184939015,49.376691390637276,46.788990825688074,0.4486331729600593,0.5513668270399408,106.21540242220858,117.75032755640062,0.545816388266548,0.4541836117334519,124.55407704188649,113.61885073343421,0.5001964440118477,0.49980355598815235,115.74849852042986,115.70303125161855,0.7532594599048493,2.783955037133667,1.456572387330092,1.6552145868264596,-0.4766600304087696,-0.34313441103578857,-0.42864748286276644,0.007443430715122279,0.7465556252181393,0.7228938212415423,1.3156767939059373,6.612127856182204,1.067068625378724,1.2362950246409297,1.1424274393828573,1.5631992796645011,1.596399342519287,1.919692812975456,3.553249963339325,1.0260446226642317,Relax
87.4825421247475,691.9035087719299,155.68904618701924,,,,,,,207.60820827123604,208.52946688366694,0.22501554655121508,0.3000537006088075,669.5,101.5581,0.1516924570575056,135.75,0.749917585067805,600.0,763.4,55.26315789473685,75.43859649122807,387.0,1292.0,12.666666666666666,289.0625,,,0.04504074710195158,0.10048174288625687,0.03325990450021056,0.17878239448841898,0.4482480678399131,0.25193055071688947,0.562033768334867,-2.297779230809011,147.45260011065648,164.5608702738426,0.8960368273775134,76230.52016782183,1.1160255577069997,5.5890989932008495,734.6165480964577,0.5701754385964912,0.5818181818181818,0.828125,0.1724137931034483,49.53848242160989,50.08040311805888,48.96997227817203,46.36363636363636,0.41637600114322504,0.5836239988567752,95.14863841830392,112.6487310498563,0.5649137493602582,0.43508625063974177,123.68517503245546,108.54610772605022,0.4987638254344101,0.5012361745655901,110.34329593515476,110.6164411595721,0.666623240446762,2.4627804745230595,1.261690311826961,1.520311242138484,-0.6180855988014713,-0.7176023270844665,-0.3949882326147614,0.005134814286274701,0.552116769493047,0.7261995435048285,1.2611312181658847,6.626663917635557,1.0608827749008272,1.0930999710184788,1.266445953663625,1.7153414304960954,1.5781147707853904,1.9162040932292097,3.288450083976368,0.8990644755479922,Relax
88.18692183505176,686.8521739130434,154.35765278502657,,,,,,,213.42361713474259,214.36487085685366,0.2247319854949873,0.31072714805407653,667.0,88.95599999999999,0.13336731634182908,127.0,0.72324541612269,601.0,752.4,53.04347826086957,74.78260869565217,387.0,1292.0,12.777777777777779,289.0625,,,0.04153528825661751,0.07513950648697582,0.03447074576909371,0.15114554051268703,0.5527756329330824,0.2748032665451421,0.4971334664066299,-2.5884088067714335,151.57885383105972,158.2603842033675,0.9577814093783452,75363.43885517427,1.0440795678515593,5.584130817179625,660.9457341882946,0.5739130434782609,0.5855855855855856,0.8461538461538461,0.16666666666666666,49.74928127298254,50.384250045274015,49.05417946887848,45.94594594594595,0.40754130013158946,0.5924586998684104,96.76682584476353,116.67282748166504,0.6368430468288773,0.36315695317112257,126.29565844354478,95.37167224343378,0.5271341104640794,0.4728658895359204,112.50424864368306,106.55586454784019,0.7827756766694631,2.6649757298434036,1.4803182707953653,1.645270434677923,-0.5655338628368973,-0.5095590810303698,-0.43810369001287286,0.005930024950893551,0.6504287017787258,0.7531211867013425,1.2215391280438355,6.53014515958359,1.0010596962039666,1.375972000368001,1.1863047354900484,1.3290807659976236,1.5156849469926792,1.9408802037302084,3.396945333223492,0.952416007087913,Relax
87.3791543301402,692.9736842105264,153.29723920912056,,,,,,,208.02758921860868,208.9428708084917,0.2212165378022474,0.3001955109674982,670.5,98.5929,0.14704384787472036,135.25,0.7369082138813138,604.4,763.4,52.63157894736842,76.31578947368422,387.0,1292.0,16.285714285714285,296.875,,,0.04066118675891529,0.09502630275118211,0.042383398450719485,0.17807088796081688,0.42789402072585075,0.22834269668977258,0.5336431116808488,-2.3536015546382414,147.7449208292692,158.35540090633893,0.9329957802743627,73501.34942489775,1.0718162087570575,5.573265422412069,678.9115417425444,0.5701754385964912,0.5818181818181818,0.84375,0.16666666666666666,50.863101528922705,51.675186901013504,49.97896108392365,46.36363636363636,0.4200144822355403,0.5799855177644598,95.75650388205642,112.52388635307616,0.6380073271551143,0.36199267284488557,126.48694790568139,95.27583642095605,0.5365523190767356,0.4634476809232642,112.17899987566489,104.25715804133733,0.7522850262835705,2.246928718532051,1.427322959982916,1.3323041767469481,0.011734665389530718,0.18232655290090571,-0.5422882944404418,0.004579226745129269,0.47453628841672524,0.7542258364064973,1.3109449238781041,6.556488479039066,0.9657661435527501,1.2717958101065123,1.1990996060078714,1.502083207874164,1.6107580330109643,1.9103030799548264,2.490849595622755,1.0189397389543913,Relax
86.63404423977178,698.2831858407079,149.52224327041424,,,,,,,206.40822934867967,207.3357803283741,0.21412837413576674,0.29559387012902444,671.0,90.4386,0.13478181818181817,129.0,0.724400590723689,610.4,763.6,48.67256637168141,75.22123893805309,387.0,1292.0,14.125,281.25,,,0.046437238912182155,0.13001167054124652,0.041125741127444965,0.21757465058087364,0.35717746506033726,0.21343129260787294,0.5975497154385662,-2.0401310591617405,146.6085362527977,153.66335699973263,0.9540891147721887,70774.92978780472,1.0481201226562298,5.556849557157758,644.2306263453111,0.5752212389380531,0.5871559633027523,0.84375,0.125,49.904887328065556,50.47565979146372,49.25081580290495,48.62385321100918,0.41625584070039795,0.5837441592996021,94.58879711964066,112.0136132331671,0.6336381961613168,0.3663618038386835,122.31817457555013,93.0090933884022,0.5300514817741706,0.46994851822582945,109.33612479879488,102.95081593285715,0.7715122087790272,2.1468680056259073,1.4492888425520218,1.2980586762438695,0.2819685237732479,0.48044154887377033,-0.5704422283586372,0.004803565794694086,0.4631045894883609,0.7586162314903282,1.2508041040100348,6.516951860587839,0.9595160143432883,1.1289545930823508,1.1696469408696977,1.5379831360483276,1.5852268294918046,1.9058622652357826,3.0932717401255108,0.9656890566251594,Relax
86.22607909313264,701.7433628318585,151.95986187389502,,,,,,,210.96269558519447,211.91018664516744,0.216546204670418,0.30062656344031896,685.0,97.85159999999999,0.1428490510948905,133.0,0.7203162694350768,609.4,767.0,49.557522123893804,74.33628318584071,387.0,1292.0,14.125,312.5,,,0.04846371647944714,0.12405533465301395,0.033603947115879246,0.20612299824834032,0.39066209135625996,0.23512037420034648,0.6018510098691174,-2.087027565714046,149.84312997930485,154.72830099363972,0.9684274241818522,72837.7405905642,1.0326019018356702,5.569326575581801,639.0909514953375,0.584070796460177,0.5909090909090909,0.8461538461538461,0.16129032258064516,49.79253112033194,50.34736056024583,49.15873865228267,46.36363636363636,0.4095270442558053,0.5904729557441946,95.89136120189949,115.14317370322242,0.6433389915170636,0.35666100848293636,124.10511853922519,92.40544724605387,0.5301819140794151,0.46981808592058494,110.8991289433517,104.39520374804988,0.5609133238819959,1.6677746278850527,1.167109829004918,0.9837094288783824,0.7085801423077376,0.5605958734126526,-0.6099671364824096,0.00467087669347308,0.3488150555427753,0.7586823151095086,1.346448452572691,6.516951860587839,0.9977713072101112,1.2779120795682246,1.2748950352254709,1.5056445496417363,1.5991786731800466,1.9247536976926605,2.854610780810439,1.0260446226642317,Relax
86.30773942788996,701.1858407079646,150.60168306025514,,,,,,,210.97499005467787,211.92319020269716,0.2147814093168189,0.30088312941639445,685.0,96.369,0.14068467153284672,131.0,0.7138366638681868,609.4,760.6,47.78761061946903,74.33628318584071,387.0,1292.0,14.125,312.5,,,0.04285581756874507,0.09112571660907968,0.0363438595437849,0.17032539372160965,0.4702933393938869,0.25161143991712276,0.5350095756010474,-2.395515224661414,149.85232488301364,152.67955387402458,0.9814825959385257,71877.71132220964,1.0188667676208434,5.563564350129953,622.2404941496793,0.6017699115044248,0.6126126126126126,0.8676470588235294,0.16129032258064516,49.9788045782111,50.58729252701247,49.29102694030063,45.94594594594595,0.4101645480495148,0.589835451950485,95.97156110296706,115.08770646850245,0.6564720086280289,0.34352799137197126,123.70549423210538,89.48741178490812,0.5356198724208517,0.4643801275791481,110.71041017842451,103.08534582602391,0.8352067312444551,1.8239418876501823,1.4140051342609987,1.2766068260522534,0.37409891795903505,0.4433951686252602,-0.5753304198664784,0.0036362905206368495,0.33284243579179823,0.7223047301859191,1.2359244041325381,6.516951860587839,0.9609784359329214,1.2855111561619676,1.1599809654885074,1.7294844274206438,1.5755894664910113,1.9342869448510682,3.1178634704663084,1.0864001887033041,Relax
86.26428946651205,701.6106194690266,150.01996495873465,,,,,,,209.8791106123441,210.8211406147776,0.2138222552450369,0.29913901641223584,685.0,93.40379999999999,0.1363559124087591,126.0,0.7147922655143516,610.4,757.0,43.36283185840708,74.33628318584071,387.0,1292.0,14.125,312.5,,,0.04292777578647399,0.1110607719819917,0.05405315283578427,0.20804170060424995,0.3865250981096606,0.20634216919873152,0.5338389931413727,-2.1976777321574326,149.0730581461919,152.1625312994864,0.9796962292430993,71261.79506401767,1.0207245574197903,5.55982686786703,621.2641296661731,0.6017699115044248,0.6126126126126126,0.8676470588235294,0.1935483870967742,50.29260891554077,50.95710532149332,49.53985117985793,44.14414414414414,0.4086840721068041,0.5913159278931959,95.30059130300663,114.63349352539963,0.6605508748222831,0.33944912517771675,123.66900322907244,88.65333367558632,0.5371996011504436,0.4628003988495565,110.39978501422688,102.47012103445736,0.540146097827922,2.3633094071422835,1.2689611398381746,1.386105536812658,-0.06438673895001656,-0.3833101664986134,-0.4504320523497876,0.007834629734663421,0.6444486263363459,0.7054213821477662,1.0728873974296738,6.534650975632085,0.9061686966697536,1.300326485910239,1.0471276247057142,1.331845607278948,1.5042964611722989,1.9355154373777952,2.8266854319767,1.0864001887033041,Relax
86.65984866228739,697.6578947368421,143.9883739743471,,,,,,,200.44660313401323,201.33925178911022,0.20638822417204897,0.28731360262127054,685.0,86.73209999999999,0.12661620437956203,119.5,0.7183378102849681,612.2,750.4,41.228070175438596,72.80701754385966,387.0,1292.0,14.25,296.875,,,0.0509842492914618,0.1728608949709196,0.05364716787731508,0.2774923121396965,0.29494380033169953,0.18373211458843972,0.622939401953223,-1.7552680832389085,142.36835025910557,146.1853907120973,0.9738890429857717,65383.36951195796,1.026811018362191,5.522437408016213,600.4190796270537,0.5964912280701754,0.6071428571428572,0.8529411764705882,0.2,49.8728715617536,50.41341996533346,49.24382054472577,48.214285714285715,0.4164471283150181,0.5835528716849818,91.8742589863217,108.75619850972042,0.6413886953794213,0.35861130462057883,117.07512317776845,87.5418984861471,0.5318928392246157,0.4681071607753842,105.23180111395835,98.72055182393532,0.7769190444935518,1.6179151344209486,1.2854225619984452,1.0835224456291945,0.2716372149263009,0.39843671635733946,-0.6247903008469666,0.0027318521823044423,0.23478699404938916,0.6802126000028186,1.0302349912233728,6.514778939546404,0.8750408764887755,0.9274299685479909,1.0966147310859038,1.255392239019962,1.442626971270145,1.9290188862569206,2.6560415036775384,1.0189397389543913,Relax
86.08878985946967,703.5446428571429,162.51264058349693,,,,,,,225.05777036130078,226.06454725360965,0.23099122739890676,0.31989124307353944,685.0,85.2495,0.12445182481751825,109.5,0.7220930000444071,613.4,752.4000000000001,41.07142857142857,71.42857142857143,387.0,1500.0,14.0,296.875,,,0.045164670812694145,0.15665399389076307,0.03404609025293601,0.23586475495639322,0.2883084541348373,0.19148545877930853,0.6641687263522069,-1.8537157662768788,159.85177434889408,165.1631375288142,0.9678417154130806,82943.13729158632,1.0332268015263157,5.625750568318649,682.6039212757908,0.5714285714285714,0.5818181818181818,0.859375,0.16666666666666666,51.004423816085264,51.54825244565768,50.52229673092226,47.27272727272727,0.4729984965123462,0.5270015034876537,109.944634827138,116.05132093564937,0.5827852920667816,0.4172147079332185,126.08615926010604,106.68243736153187,0.5296821696294483,0.47031783037055186,118.2910442177208,111.4653567982139,0.537506032452561,1.7215776012913784,1.151162161027092,1.086126247599204,0.35490793295837264,0.0040261669285832635,-0.5377769281960358,0.005274956890454887,0.3642458427098141,0.6337370655112791,0.8353216693404877,6.423251796980339,0.7577625975512708,1.1638920711433924,1.066256384542605,1.1495982727681033,1.3364540795585749,1.9503139155959304,2.242048744578951,1.2155990932245722,Relax
85.67291526286046,705.1071428571429,140.57426347708017,,,,,,,192.78202693692666,193.64893173810373,0.19936581965042013,0.27340813221060356,691.5,75.6126,0.10934577006507593,101.25,0.7291875996462702,621.4,753.0,37.5,68.75,387.0,1292.0,12.444444444444445,312.5,,,0.04678194714358557,0.15343661085047128,0.029378065478933433,0.22959662347299029,0.304894294029839,0.20375712166816334,0.6682877497478595,-1.8744677558746332,136.930472801544,144.24889679316172,0.9492653035529859,62052.95687104108,1.053446277091473,5.499732590755136,607.8338532052334,0.5803571428571429,0.5909090909090909,0.8615384615384616,0.20689655172413793,49.20201416744901,49.87749962969611,48.48299133667136,47.27272727272727,0.401107069659092,0.5988929303409082,86.7255074148525,105.97203747816084,0.6427274706811889,0.357272529318811,115.64475265651494,86.22085251873648,0.5281972111591563,0.47180278884084376,102.21306778819955,96.60255725479122,0.7570830576577712,1.8675433132048043,1.3142646146506825,1.2197506464089816,-0.15884282248909187,-0.13566463380649108,-0.5506087155105976,0.003103376210382645,0.29077125777457374,0.6341688173368571,0.8782426642366252,6.423251796980339,0.817514061108296,1.0940166058221943,1.1826265971179235,1.2978537754751058,1.3724126605616669,1.945509271566506,3.00492433244703,1.1548191385633435,Relax
86.48311512784564,697.1327433628319,126.12115096949856,,,,,,,165.61136736347538,166.35336994991624,0.18091411165270307,0.2375607356564527,688.0,71.1648,0.10343720930232558,96.0,0.7615488778176337,627.8,749.2,34.51327433628318,68.14159292035397,387.0,1292.0,12.555555555555555,312.5,,,0.05935821586164329,0.12554899718731904,0.02407065546662867,0.20897786851559103,0.4727892471580706,0.28404067992116017,0.6007765227921842,-2.0750591807675187,117.62959596482021,134.0718793125308,0.8773621774228846,49545.49537512993,1.1397801566251067,5.401974284975712,611.249870407435,0.5663716814159292,0.5765765765765766,0.84375,0.16666666666666666,49.51263178834295,50.301530956627005,48.58800587333927,45.94594594594595,0.3645439635814128,0.6354560364185871,71.02277264535816,93.77032512407042,0.6943758944076084,0.30562410559239117,111.7210515783257,74.11933254304782,0.5509122326284667,0.44908776737153316,93.61043638398752,84.51789553254618,0.7941322313786761,1.6570603332073701,1.3321822929711455,1.0483347807248091,0.6544016000387956,0.929413691920352,-0.6712958222208647,0.0026449266044863244,0.26712745761318957,0.7110093260762032,0.9940995899326232,6.421775864993471,0.8195519511112519,1.0765442584491172,1.1943568830834164,1.3631838725234824,1.438036105044944,1.925849672605175,2.832082909005062,1.0260446226642317,Relax
86.86730299182409,693.4955752212389,101.76058420677265,,,,,,,126.36296219338051,126.91624097527755,0.14673573681318586,0.18221163437570342,688.0,59.303999999999995,0.08619767441860464,84.0,0.8053038836731492,637.0,744.6,30.08849557522124,67.2566371681416,387.0,1287.0,12.555555555555555,312.5,,,0.05543746763573914,0.13225899498769933,0.019377277020052208,0.20707373964349068,0.4191583917668138,0.26771848391391045,0.6387048170154436,-2.022993195526783,89.74333463632472,110.75437313967525,0.8102915676579835,31225.755788719827,1.2341236659914134,5.201483068806144,546.7383720148678,0.5486725663716814,0.5585585585585585,0.8064516129032258,0.1724137931034483,51.36785850617126,52.09441570349051,50.60887885367451,47.74774774774775,0.415766639025124,0.584233360974876,57.8731526858681,68.60337763859316,0.6144069579969414,0.3855930420030587,86.8138358849873,68.7741889701137,0.5356661037727777,0.46433389622722226,73.77649999446746,68.6888363998122,0.5254813316789616,2.468284716298247,1.2889245664841142,1.1955338894642416,-0.05888005815550734,0.06915137655713705,-0.5378362659717527,0.00519357775406915,0.5774712416760669,0.7746972622601658,1.1777496092268338,6.368678519860728,0.8830526503094525,1.183719474547415,1.1823276157370928,1.5334479233482414,1.4668347427569906,1.8676477258991973,1.8979894349051443,0.9656890566251594,Relax
86.1593095330319,698.2831858407079,94.61665787218789,,,,,,,120.25516026943946,120.79339685303466,0.13549897776540734,0.17221546030018833,697.0,48.925799999999995,0.07019483500717359,64.0,0.786799149909186,647.4,742.0,25.663716814159294,64.60176991150442,387.0,1287.0,10.272727272727273,312.5,,,0.0696591576850946,0.14249012556163543,0.021733304991903304,0.23388258823863334,0.488870070192779,0.2978381512266338,0.6092378514994496,-1.9484825759787059,85.41383003733858,103.59713700371644,0.824480603496547,27798.785512056507,1.2128848098537326,5.150995932608871,502.6055752645748,0.5398230088495575,0.5495495495495495,0.8032786885245902,0.12903225806451613,50.576004495644824,50.93631014810794,50.094130616173906,47.74774774774775,0.4058725687888737,0.5941274312111263,54.416561469484286,65.8379118033875,0.5799447928226418,0.4200552071773582,78.89347398635451,67.14303059686239,0.5094997276277965,0.49050027237220345,67.76924966309483,66.49367333950588,0.9548429996892984,1.9351366693737786,1.4728878833199979,1.258427599088766,0.04064801697054321,0.4324598633444743,-0.6108243606900553,0.001963199989603394,0.27704691604149234,0.798583095093794,1.3342379991638378,6.20270606408937,0.8851540937749891,1.203420951051437,1.0725448483474602,1.5013693463331532,1.403629619814313,1.865400277352965,2.029384049438936,1.0260446226642317,Relax
85.48332729252921,703.1946902654868,83.25497179567026,,,,,,,104.49085742644802,104.9603574733177,0.11839533623929649,0.14859449150134815,699.0,47.4432,0.06787296137339055,61.0,0.79676800292575,664.0,738.2,19.469026548672566,61.94690265486725,533.0,1287.0,8.692307692307692,164.0625,,,0.055250208389986885,0.11116645597101213,0.01723316260347796,0.18364982696447696,0.4970043158018277,0.3008454149029709,0.6053175100051407,-2.1967265976095987,74.21818052514706,91.93409451818043,0.8072976724698152,21435.65600543922,1.2387004621735607,5.038106888929639,455.51522147671164,0.5221238938053098,0.5315315315315315,0.7627118644067796,0.13333333333333333,49.845467032967015,50.21857117284257,49.39628242833978,47.74774774774775,0.3817487615038263,0.6182512384961737,45.85636603903875,58.35704794662805,0.6012498367677033,0.39875016323229684,71.28597413570094,58.05331710076447,0.5146402949697436,0.4853597050302566,59.9353669162963,58.20538064237256,0.8378645198850051,2.364466005447352,1.4026001362043403,1.3096330922452615,-0.6415983473989613,-0.21686920945118526,-0.5393184100532205,0.002104316873376496,0.36641989413668363,0.7573808765516401,1.2289741065313535,6.149608718956626,0.9154066314670383,1.065134410496763,1.1727281741140774,1.4660298299340888,1.4566376214610195,1.8238211043852923,2.020982986452594,1.0260446226642317,Relax
85.45027688154417,703.29203539823,83.56602195440709,,,,,,,104.48295315504822,104.95221954790135,0.11882122610287903,0.14856268505285447,697.0,44.477999999999994,0.06381348637015781,60.0,0.7998053216432225,664.0,737.0,18.58407079646018,61.94690265486725,533.0,1287.0,9.416666666666666,164.0625,,,0.05491498895154051,0.07180943970466842,0.01339127778388253,0.14011570644009144,0.7647321741736194,0.3919260042058185,0.5125010002741671,-2.6337393393598054,74.21242614290037,92.41902413224926,0.8029994564398807,21547.05304582757,1.245330855432364,5.040357990794843,460.36904952335306,0.5221238938053098,0.5315315315315315,0.7457627118644068,0.1724137931034483,50.24952675959388,50.66160642387874,49.75316005481068,45.94594594594595,0.3819725534874933,0.6180274465125066,45.8663353748773,58.34207141760822,0.6066182142253463,0.39338178577465344,71.98120315334305,57.965355292229745,0.5185508669001597,0.4814491330998401,60.35318685920224,58.154018397062316,0.7882576838071896,2.2764938573736737,1.375070673635888,1.1485740782497689,-0.3557886977337663,0.20933952054562277,-0.5994936114817466,0.0029680714896957176,0.36628084284015283,0.7329834935380868,1.2258253127635594,6.099965882899664,0.906858883387133,1.4473415839845898,1.217039642736618,1.3958864228722323,1.4286320219715984,1.8377665945490833,1.8722409600576764,0.9656890566251594,Relax
85.19126522326103,705.625,82.7418785650197,,,,,,,104.62515674264685,105.09932200384304,0.11726041249249913,0.14827302992757746,700.0,40.771499999999996,0.05824499999999999,54.75,0.7908411431922168,664.4,737.0,18.75,59.82142857142857,533.0,1287.0,8.615384615384615,203.125,,,0.06914996827277642,0.060998114260711916,0.018632508255404516,0.14878059078889286,1.1336410823656398,0.46477815356234475,0.4099870415709204,-2.796912329045487,74.31644328702595,90.925730868597,0.8173312722052872,21228.611534628406,1.2234941131052577,5.033891699861724,444.9883857900858,0.5178571428571429,0.5272727272727272,0.7413793103448276,0.17857142857142858,50.25541659327111,50.672699860741446,49.753947760195146,47.27272727272727,0.38231336410839706,0.6176866358916032,45.95111038326001,58.407736100311546,0.5995953187639692,0.40040468123603085,70.40701259756953,57.5355638807357,0.5125756248715623,0.48742437512843767,59.45019751173607,57.97329017503601,0.5576183663484152,2.739643081963825,1.3021630547659269,1.1573242144215241,-0.5872945941245327,-0.05679650195377506,-0.5528677773020637,0.004144271559167183,0.562706093466009,0.7805769942318528,1.2431935174792175,6.00254273020566,0.8910798739247128,1.3279391526620714,1.2369430344031351,1.4777984244267248,1.3874046532594866,1.8815453638698674,1.8743221172310771,1.0332592292408862,Relax
86.22186917083151,696.561403508772,60.43222417193259,,,,,,,68.78187917362295,69.08821245244066,0.08675792811304044,0.09874489000847543,696.0,44.477999999999994,0.0639051724137931,60.75,0.8786067623913892,655.6,732.2,15.789473684210526,57.01754385964912,533.0,975.0,9.5,203.125,,,0.05757987529181401,0.0615641111771996,0.020613356580010234,0.13975734304902385,0.9352831412782394,0.411998926393558,0.440507166450669,-2.7876761889860067,48.852743525177665,70.41974119116811,0.6937364821117046,10807.699367323989,1.441469528827491,4.740703365579007,406.0316446199479,0.5263157894736842,0.5357142857142857,0.75,0.1724137931034483,49.89576094510076,50.18575308209986,49.58518457015298,47.32142857142857,0.34409845173093,0.6559015482690701,28.65699241521542,39.56476381471632,0.5903359440953851,0.40966405590461463,54.10582682816824,45.07215828725499,0.5103323821570341,0.4896676178429659,43.29355443391917,42.40795909016169,0.9672147203975133,2.2346561088600367,1.397806896484482,1.376595535224613,-0.6897713290678809,-0.154436774875637,-0.5094920024498488,0.0008845938399788373,0.28103954510798657,0.8552914052480038,1.7238482636118446,6.112372773047041,1.0538662162680619,1.175895966940972,1.4202500816615675,1.7639995129431432,1.7080715958782622,1.7709367298529246,2.257971052537882,0.8990644755479922,Relax
86.71570692139207,693.4690265486726,67.63835962524469,,,,,,,88.74642849956595,89.13879392119114,0.09753623743207997,0.12797461040365168,696.0,44.477999999999994,0.0639051724137931,62.0,0.7621530327338807,652.0,732.8000000000001,20.353982300884958,59.29203539823009,417.0,975.0,9.416666666666666,320.3125,,,0.05232375367385232,0.0546559170554135,0.013163045500509837,0.12014271622977565,0.9573300841481319,0.4355133237855382,0.4549249323686242,-2.9066977983923175,63.03064564846445,72.01106266899654,0.8752911471142822,14259.38675130607,1.1424769955652656,4.861070958321205,329.08393010214894,0.5486725663716814,0.5585585585585585,0.7741935483870968,0.21428571428571427,48.876825159116436,49.39276611047968,48.380655124731646,47.74774774774775,0.33945317105466016,0.6605468289453397,36.725975784140815,51.23128091453643,0.6279989028511995,0.37200109714880053,57.06616166145832,43.92091005371418,0.5028198179339323,0.4971801820660676,47.98616521492936,47.71629954266464,0.6882808265965198,1.9960348474599412,1.247325500591533,1.0772968588887228,0.1800557171651782,0.41520605910467256,-0.5851832030483739,0.002254519366634304,0.324767595692455,0.8007799272380542,1.580450375560848,6.099965882899664,0.9997603896369835,1.15218879930488,1.3590590959216762,1.6800396328405711,1.608522549750456,1.8545991955832117,2.3409009111863557,1.0864001887033041,Relax
86.96711606506936,691.2434782608696,65.68005803045011,,,,,,,87.9440611680905,88.33233002626129,0.09501725527407147,0.1272258819560264,696.0,42.9954,0.061775,56.5,0.7468390378847023,654.6,727.2,19.130434782608695,60.86956521739131,417.0,975.0,7.666666666666667,320.3125,,,0.05866310332657321,0.03792655429125477,0.0077542423746393965,0.10434389999246738,1.5467554177496146,0.562209226709066,0.36347648778694974,-3.2721037712978203,62.46038955957744,69.11300089953802,0.9037429824580943,13561.705580592794,1.1065092835134342,4.839284421739115,305.8967084272446,0.5478260869565217,0.5575221238938053,0.7777777777777778,0.25925925925925924,50.037078235076,50.51557707086912,49.55881976274339,47.78761061946903,0.34402525139107215,0.6559747486089278,36.635311076871105,50.58809017206161,0.626196442558684,0.37380355744131605,54.69089726920293,42.25532687400529,0.49934158929963335,0.5006584107003664,46.54696693561044,46.60830138765878,0.7125915865544915,2.423983556338377,1.3299350664722338,1.1614770901918026,-0.3021919031208018,0.3050252006223535,-0.5694963362436751,0.002351706100967813,0.41916110681827695,0.8453603562516454,1.5635008172470748,6.0468076906664265,0.9952206961854971,1.1893072765094104,1.3684594843392213,1.7506782397534781,1.560697743554538,1.8284238541436575,2.4617702461412643,1.1309940084168968,Relax
86.87232098040019,692.6929824561404,72.259136323213,,,,,,,103.49041253529558,103.9508478130984,0.10431625287583778,0.14940300415393387,696.5,45.2193,0.06492361809045226,65.75,0.6982205844291992,651.8,731.4,22.807017543859647,63.1578947368421,417.0,975.0,9.5,320.3125,,,0.06816590822960489,0.04710145748823268,0.019076612023138612,0.1343439777409762,1.4472144146841892,0.5073983171842145,0.3506034158006495,-3.055451333890073,73.50434939873267,71.49222637716701,1.0281446406627543,16509.036680960544,0.9726257964593269,4.924691842440279,278.1407344829703,0.543859649122807,0.5575221238938053,0.7619047619047619,0.2692307692307692,50.301395939086305,50.78254512085132,49.8172498574468,47.78761061946903,0.37230429824996286,0.6276957017500372,44.850197085090144,58.23578152648078,0.6332078050413505,0.3667921949586496,56.88947835953286,43.29810254900713,0.4991354926275755,0.5008645073724245,51.224764160468254,51.31340923357333,0.6419985154753494,1.810373893186123,1.199478341808704,1.1187722714132275,0.2605922170905437,0.09672330401365004,-0.544579780286955,0.002782037514889188,0.30572437387117757,0.823145711086593,1.5817863811035902,6.160704132734122,0.974071157989931,1.4429306785939913,1.2950622197248784,1.6210114639868627,1.610419463205656,1.9027460089783865,2.892359355199965,1.1388150023607901,Relax
87.16236076389454,689.8782608695652,66.10148335863614,,,,,,,92.28654841060998,92.6921725114902,0.0958161564263784,0.1337722227894039,690.0,47.4432,0.06875826086956521,64.5,0.716263469563638,653.8,728.6,20.869565217391305,61.73913043478261,417.0,928.0,10.454545454545455,265.625,,,0.05539034341147621,0.052399920213465075,0.02640915793203772,0.134199421556979,1.0570692318963244,0.4127465138734471,0.39046308550008824,-2.948850210300096,65.54326374578801,67.08777997530709,0.9769776816271523,13814.060599117087,1.0235648355185598,4.847291466786431,274.6747699029221,0.5391304347826087,0.5526315789473684,0.746031746031746,0.25925925925925924,49.41572237960341,49.84529055553434,49.00481332071445,50.0,0.38153146101207513,0.6184685389879249,40.485712545958506,51.54605295482127,0.6107623387685613,0.3892376612314386,52.42996230265582,41.855337472744196,0.49881372524916656,0.5011862747508332,46.8401209830413,46.95138363338477,0.7244261189616427,1.8753698149340026,1.2489117539348573,1.0449788067758121,0.2670302315760651,0.5031093210062743,-0.6087427906405873,0.00201967690483332,0.28355539698647675,0.8009483146601535,1.491654876777717,6.157495133737733,1.0084367840012032,1.1490411456008016,1.2950058914546376,1.7519204786992768,1.6349894059389474,1.8326495629774278,2.6059531039237194,0.952416007087913,Relax
87.22778774802701,689.3652173913043,72.17149780451464,,,,,,,103.64429724243004,104.08667551253458,0.10469268826417731,0.15034744229574096,688.0,48.925799999999995,0.07111308139534883,66.0,0.696338339153396,652.4,728.6,22.608695652173914,61.73913043478261,417.0,954.0,10.454545454545455,265.625,,,0.04990524230033969,0.03797955898055483,0.009222698480066585,0.0971074997609611,1.3140026803863283,0.5139174875595187,0.39110840124650464,-3.270707185551808,73.60039408607696,69.20523828030606,1.063509004737025,16001.805257504326,0.9402835289084093,4.9111390906893595,260.29018267661405,0.5478260869565217,0.5614035087719298,0.75,0.2692307692307692,48.3937659033079,48.72536220743016,48.0570553811918,48.24561403508772,0.3471138425156215,0.6528861574843787,43.3690175288296,59.47882050356728,0.6407896789899593,0.3592103210100407,55.39833629629826,41.477576364057,0.48490041697321085,0.5150995830267893,49.74860473326708,51.27435728281611,0.674992311917313,2.396158577493505,1.284339127015834,1.3026672927486802,-0.5164262859893203,-0.3701636314081358,-0.49235102137855236,0.0025341750618777634,0.42779536654928874,0.8118126998394799,1.4781019103730135,6.244451655476866,0.9812187323867355,1.1685491975557738,1.290873227056051,1.873754212312945,1.6298498830431827,1.850773077126696,2.847773352958002,1.0714680079739023,Relax
87.67584837654033,686.5043478260869,73.02479438495993,,,,,,,106.07408036988014,106.54226936874345,0.10637193284529554,0.15451334096539768,685.0,47.4432,0.06926014598540145,67.5,0.6884320291094922,649.6,728.6,23.47826086956522,60.86956521739131,417.0,957.0,9.583333333333334,234.375,,,0.05162067122024516,0.07522095771848471,0.043840836399592686,0.17068246533832254,0.6862538418273816,0.30243687374636846,0.44070700273389884,-2.587325393789085,75.33676115364227,71.2245490270163,1.057735881557722,16857.242175714287,0.9454155970650304,4.933756636013517,269.34719817625654,0.5565217391304348,0.5701754385964912,0.7692307692307693,0.3076923076923077,49.852278028300425,50.42348022201946,49.286206440746845,48.24561403508772,0.36136415905573827,0.638635840944262,45.28767438638723,60.205216896818165,0.6584979202148644,0.34150207978513547,57.79721497021618,41.62232965354613,0.5016004462326541,0.4983995537673457,51.92057159566338,51.75464456153372,0.7048506341250022,3.7098218773387903,1.441848784551265,2.0257272187444553,-1.8972234878254923,-1.8322870973780487,-0.3426128117471693,0.00756023379762084,1.1211686044814133,0.8282738140813644,1.6094379124341005,6.1922777424333875,0.9679838237205625,1.0630388004326738,1.2824739819609956,1.8224795253020978,1.6203555307845983,1.8717412341110427,2.930294800524404,0.8928900066449185,Relax
87.23566551851255,690.8608695652174,74.73883029338357,,,,,,,113.71042785738153,114.19556198859759,0.10818217326510228,0.16459236999331492,688.0,50.4084,0.07326802325581395,72.5,0.657273318741909,651.2,732.4,26.08695652173913,62.60869565217392,417.0,957.0,10.454545454545455,234.375,,,0.043504943315235946,0.05748610381700766,0.02940476868577914,0.13039581581802273,0.7567906054952486,0.3336375714382615,0.4408585003772965,-2.8562120331340894,80.74845626354609,67.19893932234905,1.201632898939087,17046.943398089497,0.8322009166717164,4.938616629105758,223.69207561370368,0.5739130434782609,0.584070796460177,0.7727272727272727,0.3076923076923077,51.54710697932566,52.01050430604764,51.073849334217414,46.017699115044245,0.3894697993998754,0.6105302006001245,50.40056362938109,63.10330061631139,0.7043806322572864,0.29561936774271375,56.398314000778704,36.53666136797831,0.5183019854289205,0.4816980145710795,53.483579892756445,51.560421704010935,0.5708479280294364,4.514715717044507,1.4208496595060716,2.1458314548095214,-2.0682435176968053,-1.6106169611626775,-0.339418062898975,0.017846637977032846,1.8408936737413453,0.8127488768809448,1.7809485531238394,6.227928746521299,1.0092636701328253,1.4849306507820055,1.4245907249077618,1.8160877888097624,1.6228805864461737,1.9190679525092875,2.76295826322752,1.0714680079739023,Relax
87.70991341909024,685.9478260869565,72.62965943361687,,,,,,,111.23785169232103,111.71507384393526,0.10588219201442547,0.16216663638528622,686.0,47.4432,0.06915918367346939,65.0,0.6529221692855709,647.4,727.2,26.08695652173913,64.34782608695652,417.0,957.0,9.583333333333334,234.375,,,0.0362050749064738,0.06283937365543364,0.03882873667711301,0.13787318523902045,0.5761527017280064,0.2625969280662354,0.45577661491241905,-2.767173432935389,78.99448627580252,63.494248871905576,1.2441203365546916,15757.272358823611,0.8037807683212321,4.904451151666416,204.14182456895918,0.591304347826087,0.5982142857142857,0.7761194029850746,0.2962962962962963,48.568975386376636,49.29026201785868,47.84272751112806,47.32142857142857,0.3572882845840837,0.6427117154159163,47.22371910404451,63.33720683698882,0.6928197693340311,0.307180230665969,52.849943300982225,35.19095242943059,0.4889611451855816,0.5110388548144186,50.11584656041806,51.23477775301631,0.5054930528559232,3.430548230122423,1.242702998486109,1.520191394883614,-1.6854893318254103,-1.2237418576804222,-0.4191125214445382,0.0036884536668223967,0.8165506375919476,0.8450820624054471,1.7125100975739143,6.190844724725729,0.995733824851211,1.247415464770576,1.480390787678438,1.7875517196079314,1.6226347561235566,1.9082530259567732,2.3178662351912163,1.1309940084168968,Relax
87.59973428907446,687.008695652174,80.06187252677942,,,,,,,125.65840635516311,126.21264982657611,0.11653691290002827,0.18290657330891016,685.0,51.891,0.07575328467153285,69.0,0.6371390092318309,646.6,728.0,28.695652173913043,65.21739130434783,417.0,1050.0,7.666666666666667,234.375,,,0.03673118611034616,0.06299004935540284,0.04760958017211673,0.14733081563786574,0.5831268031415763,0.24931095338961673,0.42754157765765916,-2.7647785118051416,89.2458205638951,69.63556964771284,1.281612558285812,19524.004196514557,0.7802670109112573,4.997539002294099,217.33735112849428,0.6173913043478261,0.6216216216216216,0.782608695652174,0.375,49.73471450227388,50.09894373998529,49.37819890163704,47.74774774774775,0.41731016230534024,0.5826898376946597,57.652644636896916,68.12530750113274,0.6367657773593003,0.3632342226406996,55.56751684999036,41.96860292275051,0.5003572346989891,0.499642765301011,56.61968015850267,56.57924157061225,0.39002861400386823,3.2229325976498377,1.1225271005363204,1.4060156280432972,-1.446300606231242,-1.2547627315737666,-0.4120401935449421,0.003956682438249692,0.7685077775200102,0.842943949864734,1.6218604324326575,6.180017659527151,0.9822486556851084,1.2990156202224623,1.4560256665908455,1.5649842761566422,1.5421353277459189,1.94351571805383,2.6280239670421373,0.952416007087913,Relax
88.340467017534,680.6637931034483,89.92392378541717,,,,,,,129.03019532011808,129.5446746521828,0.13211210100571694,0.1895652400310764,682.5,51.891,0.07603076923076924,68.5,0.6969215505124207,639.0,726.0,33.62068965517241,67.24137931034483,313.0,1049.0,7.733333333333333,335.9375,,,0.03406519640338024,0.06243508328483518,0.050646955038510855,0.14714723472672628,0.5456098496412883,0.23150415613751926,0.4243034767237466,-2.773627929471253,91.6019179131635,81.9104411301314,1.1183179659310492,23571.85192891251,0.8942000669438014,5.079363814289781,292.97728776783924,0.6206896551724138,0.625,0.8,0.375,47.59967453213996,47.28385047758651,47.78168759178211,47.32142857142857,0.40003374053528373,0.5999662594647164,57.95903725908497,70.98004414387657,0.5300651550427261,0.4699348449572739,59.63536652109603,56.15107680202812,0.4577842935301261,0.5422157064698739,58.80317567999819,63.99652370517452,0.5706380567089308,3.974670018057447,0.5390413919423103,2.355901979102634,-2.2582038482144426,-2.8540616749444023,-0.042890207512551265,0.022181864339220304,1.7671830598181397,0.8237636014867675,1.5600920383309456,6.140013645859084,0.950515739714777,1.4319826937669984,1.522964331063562,1.5563998255069222,1.486408701465091,1.9371458890045805,2.7772284105134197,1.1824105164013055,Relax
88.07612118606328,682.9224137931035,86.33847959323099,,,,,,,128.4118036021137,128.95206448585458,0.1264250196646612,0.18803278528945316,685.0,51.891,0.07575328467153285,67.75,0.6723562567562116,640.0,725.0,33.62068965517241,65.51724137931035,417.0,1049.0,7.733333333333333,234.375,,,0.04202027009634707,0.0801188452417754,0.05562174503183487,0.17776086036995734,0.5244742353630047,0.23638651393166157,0.4507113943701184,-2.5242441811469054,91.18287924595273,79.0301586748237,1.1537732022167948,22638.93686001982,0.8667214649106569,5.061826138190571,273.9885395950594,0.6379310344827587,0.6428571428571428,0.8194444444444444,0.391304347826087,48.42643130879108,48.53079827648962,48.34089368414361,48.214285714285715,0.41767270314923305,0.582327296850767,58.93923424454489,69.59371442680221,0.5663587618449942,0.43364123815500555,59.4755772338649,52.04249891066321,0.48144154876675344,0.5185584512332467,59.208013058346936,61.44797303648705,0.6271439643670831,2.885327840678644,0.5512112333845449,1.8413426608046979,-1.6594386425991274,-2.2025081947957132,-0.05286487405995863,0.00545358990051466,0.7200548859631448,0.8068680558840278,1.482337410139868,6.150747374288713,0.9637080093389774,1.3474307983326563,1.3401976940176845,1.6445998486469182,1.5049548276736342,1.9093321069311089,3.2391270422394394,1.0641694647611748,Relax
88.66193076083839,680.2844827586207,92.11880854394623,,,,,,,141.7663110774973,142.38669696344058,0.1354121854586413,0.20839268669280964,682.0,51.891,0.07608651026392961,58.25,0.6497933665889705,636.0,722.0,37.06896551724138,68.10344827586206,403.0,1049.0,7.733333333333333,250.0,,,0.052761391571907755,0.09743941558701939,0.05303924549421678,0.20324005265314393,0.5414789410840481,0.2596013476829395,0.479430182756903,-2.3285244727086987,100.68259897360282,83.54982390160569,1.205060576694619,26427.11954395109,0.8298338020009889,5.129019939217594,277.32987209913017,0.6551724137931034,0.6607142857142857,0.8513513513513513,0.47619047619047616,50.06138735420503,50.55176691605443,49.62595024927431,46.42857142857143,0.4204329808232313,0.5795670191767687,65.2834239190661,76.64897774578395,0.6173727142064287,0.3826272857935712,65.64766062400929,51.68130927699316,0.500745353295989,0.4992546467040109,65.46579558823673,65.368277926139,0.5841910380659596,4.382217639040565,0.5748016452021725,2.5728075992368717,-2.3879285865891333,-2.9829440698903915,-0.04406510159725005,0.029080016779301176,2.248518625230791,0.784273698934566,1.4399154525589881,6.181004055360496,0.9612634061021667,1.4279335497925234,1.2326231649162707,1.521453801815343,1.47833228645138,1.9434559303033925,3.2681884713374045,1.2415310422213708,Relax
88.7057151730616,679.8879310344828,92.12201469900612,,,,,,,141.96006786968374,142.57579353848038,0.13549588173868296,0.20879921732642692,680.5,49.6671,0.07298618662747978,59.0,0.6489290691490238,636.0,722.0,38.793103448275865,69.82758620689656,403.0,1049.0,7.25,250.0,,,0.05443158960304932,0.10138661099833463,0.05235059429347173,0.20816879489485568,0.5368715757147008,0.26147814147909276,0.4870403897449863,-2.2888142379798344,100.81631044411262,82.68155392388157,1.219332555565251,26187.214315984882,0.8201208074333961,5.1250594124519,271.2354510556065,0.6724137931034483,0.6785714285714286,0.8552631578947368,0.5238095238095238,49.269628727936706,49.78858569948623,48.8227002482677,49.107142857142854,0.4197823051524969,0.5802176948475032,65.32204297360589,76.7968098295756,0.6021180300310918,0.39788196996890834,64.15779746705229,52.15377631048814,0.4931011505262423,0.5068988494737574,64.74253730766549,65.64208399892722,0.44773631605228387,3.0019492305451223,1.1667502589154277,1.663426701515613,-1.411418525333115,-1.840850065714651,-0.3345486867177983,0.006590706939069549,0.82005477398819,0.7890658724545649,1.4479154952260642,6.208979163100464,0.9629107519178481,1.2270073666822794,1.2309503654992233,1.5454192542398701,1.5027500498709057,1.9094477168075348,3.131885132235009,1.1824105164013055,Relax
88.97353333536614,678.6810344827586,102.48576564050512,,,,,,,155.5436468871568,156.2043963045423,0.1510072632552821,0.22918519744065174,678.5,46.701899999999995,0.06883109801031687,59.75,0.6588875064428449,636.0,724.0,39.6551724137931,71.55172413793103,307.0,1049.0,7.733333333333333,343.75,,,0.041774626839013444,0.082839956370241,0.054181942124017106,0.17879652533327156,0.5042811303799811,0.23364339301978462,0.46331972176657077,-2.4908447691299167,110.45318787809275,90.38044304563823,1.2220916843959113,31361.916451633904,0.8182692123417133,5.203372703481171,295.8221357681979,0.6724137931034483,0.6756756756756757,0.8666666666666667,0.4782608695652174,51.3064133016627,51.545779195819094,51.14826930013461,47.74774774774775,0.44077792034618973,0.5592220796538103,73.34047014713983,82.60872686578557,0.62289105475213,0.37710894524786975,71.33136141567832,55.50190414491863,0.5138016445062633,0.48619835549373686,72.34289074545484,70.37280411528909,0.6192879435587185,3.990594571362031,0.5995554474027682,2.4252653663840285,-1.853299321888576,-2.474659596177165,-0.042496766751695676,0.02702141457153197,1.9404610967347473,0.7680580763146594,1.3761075158128977,6.273718602792936,0.9645040824798586,1.250285816387765,1.3417527886789014,1.5797436070131727,1.4432733391889252,1.944897149936813,3.364366167783601,1.3006515680414361,Relax
88.62361530251577,682.8965517241379,111.67035177819969,,,,,,,160.69696028076655,161.3877318757532,0.1635245506750046,0.23531669602818775,680.5,61.527899999999995,0.0904157237325496,78.75,0.6949126578566979,629.0,732.0,43.96551724137931,75.0,307.0,1049.0,8.923076923076923,343.75,,,0.03366910493179449,0.07022280546988234,0.056733511234189384,0.1606254216358662,0.47946111959646404,0.2096125544069948,0.4371836335413685,-2.656082156463996,114.1183596096614,106.95066478850553,1.067018702832095,38343.24648584711,0.9371906952950186,5.290658991357214,400.93267158161586,0.6551724137931034,0.6607142857142857,0.8378378378378378,0.5,49.03149738925384,49.21187375707991,48.855371880726764,48.214285714285715,0.4202843111636716,0.5797156888363285,73.98790797363978,86.89537972495349,0.5765704186705043,0.4234295813294958,81.21002923820899,69.59436650931252,0.49335941313277104,0.5066405868672289,77.68294335047607,78.72160715895089,0.4875181683165451,2.8328331315844957,1.1236035331107246,1.7032774808508087,-1.2046122505004764,-1.803297743984508,-0.29537306970995014,0.007584050462641088,0.8085791845265624,0.681821651738828,1.2562412328716928,6.383674529535727,0.9885474039026863,1.1814402637376855,1.3446891515395336,1.5703929598837638,1.4758349984833843,1.9647948303838658,3.422797009894631,1.1232899905812401,Relax
88.18745937914392,687.104347826087,118.78562246222226,,,,,,,180.3516059101941,181.14719217284826,0.17287857781433819,0.26248066466295006,684.0,56.3388,0.08236666666666667,78.0,0.6586335722531433,635.2,741.2,46.95652173913044,75.65217391304347,307.0,1049.0,8.214285714285714,343.75,,,0.04353439215953856,0.09004131621964764,0.055264249663525784,0.18883995804271198,0.4834935115046558,0.2305359131126894,0.4768128374572188,-2.407486644884661,128.09040797832367,109.63537965728682,1.168330956473413,44118.14121617251,0.8559218554119998,5.351587316436997,375.35727030025583,0.6695652173913044,0.6756756756756757,0.84,0.5,49.7863573935602,50.190005922391755,49.446102043004004,47.74774774774775,0.4504118613479236,0.5495881386520765,85.96528935245509,94.95916681833228,0.5820248859109762,0.4179751140890237,83.64144016946969,70.88036370515069,0.5060620158985308,0.4939379841014692,84.81132438263862,83.78922759462071,0.5704172433137905,2.704937693894106,1.1811333537315953,1.735413476142467,-0.9788275456274516,-1.6038823173906986,-0.295085807831339,0.007880815942615848,0.7770644097280703,0.6385662569513273,1.1803629386868022,6.356232116105329,0.9785357652432846,1.0686770997512713,1.3474633379809713,1.5923525301993238,1.4276114395592674,1.9730773052663677,4.0149904301787664,1.1905200088598913,Relax
88.09194671497173,687.0869565217391,120.63636567433606,,,,,,,180.6117771217805,181.39312020684804,0.17557656207743652,0.2628659668291433,685.0,56.3388,0.08224642335766423,78.5,0.6679318901391186,638.6,742.2,45.21739130434783,74.78260869565217,307.0,1049.0,8.846153846153847,343.75,,,0.054750184063605496,0.09093452795308067,0.040960242727371456,0.18664495474405762,0.6020835572144263,0.2933386768406534,0.48720592569875415,-2.3976155044532965,128.26430535884882,110.81284689138937,1.1574858778293466,44652.502006028844,0.8639414261151223,5.356815908616784,382.94323590089454,0.6347826086956522,0.6396396396396397,0.8169014084507042,0.4090909090909091,48.94696387394312,49.137444465650624,48.79227765769888,47.74774774774775,0.44442675630252104,0.555573243697479,85.51540770967658,95.61255703068976,0.5641764389709084,0.43582356102909164,83.23339034581234,73.15524429400902,0.49560159680164095,0.5043984031983589,84.38211369778129,85.12770063164822,0.5209626674134132,2.692290544475939,1.1448474579346577,1.6162661352466294,-0.8387490081908808,-1.3425458778606445,-0.32490051889858923,0.007144019025690795,0.7442439867179139,0.6406034473831901,1.1107704931479192,6.404143203099476,0.9786314240565465,0.9131342548034496,1.3126010538569246,1.514616250759234,1.4190733336526635,1.9357892782736477,3.870296233999284,1.0714680079739023,Relax
87.85892187815953,689.2608695652174,120.72740694933735,,,,,,,181.01410238751535,181.80491599570385,0.17515488297702386,0.26262059893476647,684.0,62.2692,0.09103684210526315,83.5,0.6669502837457596,628.0,743.0,47.82608695652174,76.52173913043478,307.0,1049.0,9.583333333333334,343.75,,,0.04441491772493064,0.1193192322976009,0.05236614788393988,0.21610029790647145,0.3722360332838286,0.20552918323210034,0.5521474678819853,-2.1259527533354956,128.5554889536128,111.16668976876016,1.156420949665978,44896.77757079132,0.8647370149155816,5.3591852809551845,384.51980587473673,0.6347826086956522,0.6396396396396397,0.8309859154929577,0.4090909090909091,49.248861911987866,49.82023029428292,48.7343662348068,45.04504504504504,0.4379731836707594,0.5620268163292403,85.08135097179546,96.38049136129285,0.5862634677783075,0.4137365322216924,85.11793718814143,71.50503257099726,0.5014147082157872,0.4985852917842128,85.09964604612122,84.85920338426358,0.5846398486354001,4.61815492719254,1.4718544282243795,2.4764856768863934,-2.0552250335158337,-2.111387014192764,-0.2824604707939612,0.0345936323644717,2.4708618628322894,0.6501821506114709,1.1786549963416462,6.38675189875165,0.9695256787276282,1.2193291241953201,1.3294695839024417,1.6108429621046825,1.4873357788405066,1.934199208560094,2.8173651075783392,1.0714680079739023,Relax
89.48162335057317,681.1637931034483,136.86228838510993,,,,,,,200.98401407336723,201.8232674243403,0.2009241973381352,0.29505974349820413,681.5,65.9757,0.09680953778429935,88.25,0.6809610655658898,623.0,742.0,50.0,78.44827586206897,307.0,1147.0,9.666666666666666,343.75,,,0.03514104262463003,0.07679173644947894,0.061325225164491896,0.17325800423860088,0.4576148977663661,0.2028249302481623,0.4432218689517271,-2.566658242931701,142.71060099697704,124.51768673440435,1.1461070691216588,55826.082317656466,0.8725188308683666,5.453807261589358,434.576105807744,0.646551724137931,0.6517857142857143,0.863013698630137,0.43478260869565216,51.55891483331085,51.26501881256623,52.0519885127471,45.535714285714285,0.5054230271134137,0.49457697288658664,101.47767881778542,100.3829509533629,0.5277232372578788,0.4722767627421212,90.4553280071024,85.5715370015917,0.5150597501253951,0.48494024987460466,96.12462135976946,93.27171271859447,0.5454527234320534,2.7261163136078514,1.136461558143124,1.6685531977586596,-1.0573731389126966,-1.5796733660508173,-0.3048169709562597,0.006987914225479061,0.74167390140574,0.6401326692607783,1.1704380232393654,6.379448451986821,0.9783611455527934,1.1576993976376795,1.3036168320373767,1.5423068541722276,1.3815546699492756,1.948794043456999,3.715980529323252,1.1824105164013055,Relax
90.24835851766225,674.5811965811965,134.79411115476864,,,,,,,194.8916807905851,195.723345084572,0.19981895706241204,0.2889076686072835,680.0,68.19959999999999,0.10029352941176468,97.0,0.691636044227088,617.6,740.0000000000001,52.13675213675214,80.34188034188034,307.0,1049.0,10.636363636363637,351.5625,,,0.038467718886497096,0.10211861695625787,0.04036801853778955,0.18095435438054452,0.3766964343335613,0.21258244388858424,0.564333570782739,-2.2816202300196227,138.3973045458156,130.05263883545757,1.0641637554230305,56545.32091254395,0.939704998318117,5.459366783132412,488.8444590325614,0.6581196581196581,0.6637168141592921,0.8666666666666667,0.43478260869565216,49.11144876791966,49.53094603580854,48.75653262752461,44.24778761061947,0.42162541497380496,0.5783745850261948,89.87145409344151,105.25990607105327,0.5712972453128586,0.4287027546871413,98.29925665235139,85.15248093661815,0.49180805108577014,0.5081919489142297,94.17967434450603,95.73555461725825,0.5864875463766184,4.274856283635728,1.4256584902052687,2.3734952629324386,-1.6055924936088797,-1.7987189924132854,-0.2782763419777372,0.03761351201845049,2.325691468838846,0.6352697135992695,1.2567233697114646,6.41720617250089,1.0363668073843946,1.1890198118664466,1.228082591844149,1.456657590836028,1.4568747979212644,1.952834087734996,4.4693946590059515,1.0569791876282162,Relax
90.1955287798804,672.6949152542373,130.50673810908424,,,,,,,189.2669168448776,190.08084083789151,0.19400583407079972,0.28135624716792507,674.0,67.4583,0.10008649851632047,86.0,0.6895380359370836,621.2,731.0,52.54237288135594,79.66101694915254,307.0,1049.0,10.727272727272727,343.75,,,0.0383086800556508,0.09905805818051398,0.03649348765160555,0.17386022588777034,0.38672956808663367,0.22034182838563485,0.5697568703520356,-2.3120491544721413,134.40745153011392,127.62050268499294,1.0531807092303442,53888.19912108483,0.9495046683211581,5.438463780200164,484.7050522915747,0.6440677966101694,0.6517857142857143,0.8493150684931506,0.36,49.911744738628634,50.42340453993928,49.47727667949967,42.857142857142854,0.44138223932696585,0.5586177606730339,89.29580829641638,100.45718765585735,0.5633319029557381,0.43666809704426185,95.78612944604839,84.33273451818785,0.49920045294597026,0.5007995470540296,92.59785087561559,92.74604213398891,0.6128142846815572,2.936386677755694,1.2549973316146448,1.818782916498071,-1.03174575185421,-1.5086678213379423,-0.30800022382803743,0.009569539680281675,0.9105748747639117,0.6526444146698163,1.2631616757162665,6.365528218780028,1.0413977571347908,1.1199365294974155,1.2984717431733008,1.4740400826339486,1.4477648808410875,1.9480991285994393,4.36312892082658,1.0498947024450267,Relax
90.47330490491342,670.6525423728814,135.60919069266177,,,,,,,199.26675416696915,200.1102993081156,0.20220484099389777,0.29712368413892815,674.5,74.13,0.10990363232023721,99.0,0.68054097262523,609.0,742.0,56.779661016949156,81.35593220338984,307.0,1049.0,10.727272727272727,398.4375,,,0.03676950160385302,0.10940008547466532,0.04380402787025808,0.18997361494877643,0.3361012145860529,0.19355057076619492,0.5758698938490139,-2.212743607690491,141.49934962603822,129.37336588863928,1.0937285943989168,57510.77150523686,0.9143036079710182,5.466719303645757,473.1461408293502,0.652542372881356,0.6578947368421053,0.8666666666666667,0.4,49.15634144822863,49.697524385770265,48.71080596041485,43.859649122807014,0.4294562316888973,0.5705437683111027,92.7349067559486,106.88783195803747,0.5679338522261493,0.4320661477738507,97.4975618409768,85.03936286462071,0.49250366176218063,0.5074963382378193,95.14603905567897,96.58338847107791,0.6229734326177699,1.1657004208924837,1.0474956891193477,0.9635858066638971,0.707505650141119,0.1937688617236084,-0.5719823729592611,0.002491875792016358,0.17573788703482596,0.6390183181174542,1.276293465905562,6.412221227291273,1.1060506206847578,0.9135542030173909,1.285512929071586,1.5519425564281057,1.5159383104399673,1.9736447093387934,3.8895402527371545,1.108222185914195,Relax
89.90847342713515,676.8119658119658,146.45782796705134,,,,,,,208.34867989452945,209.19314690888703,0.21639367411500635,0.30783835159382156,682.0,68.19959999999999,0.09999941348973605,96.0,0.7029457927988381,613.0,742.0,56.41025641025641,82.05128205128204,307.0,1285.0,10.636363636363637,398.4375,,,0.024253681480994483,0.09707291866393532,0.035027355085223214,0.156353955230153,0.249850131373512,0.15512035781437744,0.620853617172933,-2.332292844089386,147.92189275702762,134.6798903458427,1.0983220462771461,62587.13650119887,0.910479766284928,5.503455192044299,490.49326034145037,0.6581196581196581,0.6666666666666666,0.881578947368421,0.4166666666666667,51.75438596491229,51.64417565486272,52.237741907724114,44.73684210526316,0.48819810845634093,0.5118018915436591,103.38412963733633,105.85387795570301,0.5964357472143473,0.4035642527856527,104.0122728472891,85.55769959921375,0.5372410587375194,0.46275894126248074,103.6986768568637,96.24230732627457,0.5103956175097963,2.8163065344424876,1.1039905702230193,1.5832315769155931,-1.1174394627446542,-1.3738219419701405,-0.3298335068176647,0.006028200314297671,0.7179929579812705,0.6749415292684455,1.3478952281853542,6.399258604380294,1.1024911309095722,1.2136241326020736,1.331059298927525,1.653535909861985,1.4192705272268318,1.9699349791908816,3.3865051296939472,1.1157002536075613,Relax
90.54411135166694,673.0512820512821,151.7823331545043,,,,,,,226.4751451689795,227.45632379730029,0.22551377168751827,0.33649017721018704,674.0,84.5082,0.12538308605341247,111.0,0.6701942195080842,604.2,744.4000000000001,57.26495726495726,81.19658119658119,307.0,1283.0,13.0,398.4375,,,0.02081324965940822,0.07708281911496445,0.03506177127735708,0.13295784005172975,0.2700115265422051,0.15654022095508197,0.5797538459181792,-2.5628748622209647,160.83590898083412,142.7591154006812,1.1266244437661084,72133.4557529605,0.8876072284187045,5.565106848730127,506.8560910092185,0.6410256410256411,0.6491228070175439,0.8648648648648649,0.4230769230769231,50.25403383395679,50.94920050776821,49.67046212603626,44.73684210526316,0.44283756221894843,0.5571624377810513,107.0305726335278,120.05397336922726,0.5715573190926824,0.42844268090731724,107.9279041175389,93.44373998711917,0.49955984568389683,0.5004401543161033,107.48017483579365,107.57483224369784,0.5422834767500812,2.1857812277747817,1.0991077317266755,1.3083932759910506,-0.16980652289210862,-0.43445735071791636,-0.4042513763019931,0.004974153884134092,0.4856959628639289,0.6356826824971407,1.285198244248522,6.474086702689386,1.1214539295115662,1.1768039473488108,1.2938065657717086,1.604545978538892,1.494796433612329,2.0086473052550997,2.9826667292587388,1.233142385566252,Relax
90.07636261812823,678.8534482758621,168.30046910525672,,,,,,,263.2293759211272,264.38136070865545,0.24791870695023022,0.3877558206261922,678.5,80.8017,0.11908872512896093,109.5,0.6393681119985843,605.0,745.0,56.896551724137936,81.03448275862068,307.0,1407.0,12.88888888888889,398.4375,,,0.025668751426506965,0.07424569476639772,0.03477794398359023,0.13469239017649492,0.34572713619651096,0.19057313774647383,0.5512241238655685,-2.6003754859245425,186.9458529764169,148.9762783219856,1.2548699368926832,87494.91810654894,0.7968953360028739,5.648952938956939,474.87400547942553,0.646551724137931,0.6578947368421053,0.8666666666666667,0.44,50.02030663011473,50.022000600424185,50.25319295811972,45.614035087719294,0.5029520666600069,0.49704793333999314,132.58034637763635,131.7998715490682,0.48393306220422166,0.5160669377957782,103.63579128099374,107.02127951128232,0.4955651810844269,0.5044348189155733,118.99143977625393,120.05157310211077,0.33159739086162665,2.4295066680018484,1.0081036815555025,1.1110515024435892,-0.09237223952831375,-0.1514172331413397,-0.45762603896339327,0.006061349547706721,0.5987486637071884,0.6495783580431249,1.1875597746846058,6.551862245090269,1.0509108716735713,1.0091885890453065,1.3484013187176263,1.4866767502546148,1.4421630539743415,2.00331061284315,3.314112038035753,1.1824105164013055,Relax
87.94448087963451,698.212389380531,251.52632109239698,,,,,,,373.72618175419746,375.4045384476991,0.3602432797211698,0.5352614583161083,674.0,96.369,0.1429807121661721,122.0,0.6730230135651233,601.2,759.6,58.4070796460177,82.30088495575221,307.0,2578.0,18.833333333333332,304.6875,,,0.06703435273756261,0.09168721354362457,0.006682843665575927,0.1654044099467631,0.7311199691510728,0.4052754866640994,0.5543214571675261,-2.3893723473523973,265.451094824574,238.93528635721074,1.1109748537841406,199257.50379968726,0.9001103819711631,6.006384795349561,860.2725274775129,0.6814159292035398,0.6936936936936937,0.8961038961038961,0.4782608695652174,49.7635782747604,50.54876416946592,48.20160652241644,45.04504504504504,0.42422369209945215,0.5757763079005478,172.89542743759543,201.42480098153368,0.603112419759697,0.39688758024030274,185.5578909807707,150.5268752129357,0.5042894061624157,0.4957105938375843,179.33845060953942,177.8064827443324,0.48293919408038394,1.3320054222048412,1.0300266802076363,0.6925255573474586,0.9283970700409714,0.9772881888154248,-0.753378189933731,0.004741043350422721,0.24121814276751824,0.6826074502432613,0.9592567677575985,6.530312701334095,0.9439780838934644,0.9606007991104794,1.2569303968038248,1.2863246961939612,1.085677373316752,1.9878123310106766,2.1497578080782387,1.0260446226642317,Relax
88.40347746628781,694.640350877193,251.48536181447113,,,,,,,371.3113451596218,372.96190742065346,0.3620367885293375,0.5345375411761342,668.0,93.40379999999999,0.1398260479041916,126.0,0.6772897329769467,591.6,753.6,57.01754385964912,82.45614035087719,307.0,2578.0,19.0,304.6875,,,0.07625307507995104,0.10478516082934532,0.008546047944394602,0.18958428385369094,0.7277087182615288,0.4022120058158317,0.5527101651010894,-2.2558431122605684,263.7238938614134,240.2941672627124,1.0975043500456063,199086.85282278026,0.9111581197454437,6.006012691259701,875.7839265155608,0.6666666666666666,0.6785714285714286,0.8947368421052632,0.43478260869565216,49.61589631346295,50.485512115256135,48.01780321134791,42.857142857142854,0.42204026573554865,0.5779597342644515,171.3288009521875,200.49438894891796,0.6044769332044232,0.3955230667955766,186.82418466708472,151.12250277162372,0.5047953330356275,0.4952046669643725,179.24401525885776,177.5331107764963,0.5685314212839186,1.5222123553579823,1.3738040768058775,0.7591469282843566,0.9388476371891512,1.2630725708761947,-0.9037919849737197,0.003628786221884664,0.26218836251214395,0.6772489271618349,0.918211962052049,6.556488479039066,0.9074296316072337,1.0831823550261324,1.255646165110647,1.3234715025557129,1.0941741212565284,1.9683969563338657,2.2453700440906017,1.0788773706575907,Relax
87.83134584399501,701.2232142857143,263.812474683409,,,,,,,392.9108969893466,394.69280832086736,0.37621754287204506,0.5603221470492483,664.5,97.1103,0.14614040632054176,137.25,0.6714307918280057,589.2,760.8000000000001,60.71428571428571,82.14285714285714,307.0,2578.0,18.666666666666668,304.6875,,,0.07369892709363696,0.10301462942041117,0.0087738347723269,0.18548739128637504,0.7154219503413013,0.39732580518021715,0.5553726790052608,-2.272884267630387,279.0899612492475,250.11845989519438,1.1158311200468485,219300.60708062915,0.8961929650770223,6.048009943880091,896.6176167758902,0.6696428571428571,0.6818181818181819,0.9066666666666666,0.375,50.01591469722288,50.37406313706795,48.83659656692122,44.54545454545455,0.4493552370771681,0.5506447629228319,187.08506815690214,207.09994293489402,0.5744156619034071,0.42558433809659285,189.56531734245593,163.16934283497605,0.5050594762441366,0.4949405237558636,188.32927582616932,186.43312581839407,0.6289357273380928,1.7886910570618195,1.093190768980361,1.1482332860974624,0.1947098237494007,0.17428272274313605,-0.4692274879444433,0.0032835566210136723,0.30362756042803357,0.6658614076046523,1.0050862306572859,6.575212064914748,0.9722995949858694,1.162621658911572,1.2614430873102076,1.3351734804300635,1.148881275244449,1.985565903134225,2.2369373357885625,1.0940391839021149,Relax
87.9271353489714,701.8495575221239,265.6550939671501,,,,,,,394.0109112883623,395.7726708579933,0.37850717596096234,0.5613894132517739,661.0,103.782,0.1570075642965204,142.0,0.6742328355793344,583.2,776.0,61.06194690265486,82.30088495575221,307.0,2578.0,18.833333333333332,304.6875,,,0.05985987726821396,0.09203453496632931,0.011294140559999125,0.16318855279454236,0.6504066901637913,0.36681419280418975,0.5639766600675883,-2.3855913923017713,279.8535393719986,251.68348291277837,1.1119265202992388,221276.5501538472,0.8993400029085399,6.0519055018447645,905.3960970192381,0.672566371681416,0.6846846846846847,0.9078947368421053,0.375,50.57907580276563,51.13231602986734,49.20375062926615,43.24324324324324,0.45220356470880185,0.5477964352911979,188.19486259275598,207.13351441230557,0.5812139819608384,0.41878601803916166,191.87692149735526,162.87363988013706,0.5098892482822169,0.49011075171778307,190.0448095971165,186.3224561889916,0.5934465222969924,2.088739210406713,1.103484824737447,1.212811445353112,-0.14048283457226418,-0.09653565643109041,-0.4476590375328007,0.0033790842201090678,0.38089008455575346,0.6594254070335062,0.9517974203310647,6.583410046466837,1.0227445102868267,0.9381000297167978,1.2243150414480546,1.2669329100432254,1.1832869973088194,1.9878182788555026,2.1070144740392354,1.1467557547423766,Relax
87.95786634084556,698.3716814159292,262.44231320868624,,,,,,,387.6081070396453,389.32016355726074,0.37579174555960193,0.5550169306031719,661.0,90.4386,0.13682087745839636,126.0,0.6770815894772891,590.4,752.0,58.4070796460177,80.53097345132744,317.0,2578.0,14.125,328.125,,,0.0191876141476299,0.04905585465534359,0.01451605846583872,0.08275952726881222,0.39113810741731353,0.23184779784092263,0.592751750454116,-3.0147957391285076,275.29092770399484,248.33054545371786,1.108566516459014,214769.15798876723,0.902065852750273,6.0389420244334175,896.0420209945938,0.6902654867256637,0.7,0.922077922077922,0.391304347826087,48.89842632331906,48.811247583476245,48.12384384922924,45.45454545454545,0.44429060993760866,0.5557093900623912,183.50966540566003,205.23396887937918,0.5712144558192478,0.4287855441807521,187.6850745880895,162.61110842191664,0.5012298779764315,0.4987701220235686,185.60911146874503,185.15311847790508,0.4406446976373734,1.4006798033078474,1.2896253797515884,0.8497560032337413,0.7990314503759337,0.3774022699907363,-0.8140399222427931,0.004554040866858766,0.27637406623386357,0.6953574040454722,1.0041520876654895,6.56571093142259,0.9576230931266553,0.9767352445703271,1.1260092509771509,1.173330472064151,1.0937412866834306,2.0139910026208345,2.286560104502351,1.0260446226642317,Relax
91.24825313076515,673.0173913043478,196.62637035619306,,,,,,,296.7561909077977,298.063565225213,0.2921564478075662,0.44093391157792594,657.0,84.5082,0.12862739726027397,112.0,0.6625855715248918,579.6,742.6,56.52173913043478,79.13043478260869,317.0,1407.0,14.375,328.125,,,0.040475557990959886,0.11580168517973151,0.05230311193628688,0.20858035510697825,0.34952477529268483,0.19405258932558858,0.5551897978135969,-2.1558761614471296,210.7627681953869,179.06891676764172,1.1769924786492725,118567.0387061305,0.8496231013707151,5.780934083158575,608.5643536928727,0.6608695652173913,0.6725663716814159,0.881578947368421,0.391304347826087,50.337109572077246,49.89986737191081,50.97543931525059,46.017699115044245,0.5418848462192122,0.45811515378078776,155.149898970133,142.6544497567399,0.4218613841860627,0.5781386158139372,116.30679629314808,136.15581547756506,0.49156766281028064,0.5084323371897194,137.11083475498629,139.44299574334843,0.38701676628227266,2.8810626778029182,1.0650999559231513,1.459391846584886,-0.6316650113723625,-0.8066529749187411,-0.36314359152976866,0.010318370354861507,0.8826528386705791,0.6992488414935139,1.1569378556209629,6.51505526833568,1.0862255590868788,1.0790810429322095,1.3454066329384262,1.4061545615782507,1.4325907073106139,1.9857060349442763,2.721439233398563,1.0714680079739023,Relax
89.6542841329292,688.104347826087,214.35743939279516,,,,,,,319.88889244356693,321.239794408424,0.3115187980863803,0.4648842772962922,657.0,93.40379999999999,0.14216712328767123,128.0,0.6700996641532683,577.8,752.0,59.130434782608695,79.13043478260869,323.0,1415.0,14.375,320.3125,,,0.036907812428513403,0.1220123971075261,0.052469295435452735,0.21138950497149223,0.3024923147439484,0.1745962385099996,0.5771923120023417,-2.1036326237759395,227.15083701316897,190.77561122405916,1.190670209654778,136140.41426983077,0.8398631223753713,5.840957177773104,640.9016020628331,0.6695652173913044,0.6814159292035399,0.8961038961038961,0.375,51.48239012017134,50.493444717366465,52.764525433630325,46.017699115044245,0.5548658672435247,0.44513413275647545,169.23546198394814,151.58031838056675,0.4978439373910773,0.5021560626089225,134.60756405391749,135.18926561448532,0.5312859148351267,0.46871408516487356,152.90493434394108,143.61881920162455,0.3461942138999341,3.0049062032846057,1.0331226228573667,1.5237358924801578,-0.761946939500298,-1.042797892788116,-0.33672925661156705,0.01310220362401044,1.0182951868509078,0.6886957032641803,1.2194769908619014,6.56722918137916,1.1607598362593885,0.9231748806233222,1.3254384336880314,1.4204367104847777,1.4801357813505236,1.998441649987567,3.889043529847118,1.0714680079739023,Relax
88.64032972938053,694.6052631578947,257.3752681292832,,,,,,,347.83127076264145,349.3312289534445,0.3705345780986082,0.5007610641780783,656.5,105.26459999999999,0.16034211728865191,140.5,0.7399428681756304,530.0,756.8000000000001,74.56140350877193,86.8421052631579,307.0,1798.0,19.0,343.75,,,0.04974691759636177,0.07489894308996106,0.030572405422011752,0.15521826610833458,0.6641871773358775,0.32049654234406216,0.48253949079475833,-2.591615499506974,247.01448087321103,262.0583169312114,0.942593556143653,203362.20119124578,1.0609026483176998,6.015240343998031,1112.073449784005,0.6140350877192983,0.6283185840707964,0.9154929577464789,0.20689655172413793,51.26565312296558,51.52515763053566,50.821777405418835,39.823008849557525,0.45832204767806856,0.5416779523219313,167.2511878027435,181.8253430002068,0.6748153410756244,0.32518465892437537,215.27342526075864,149.43866249843035,0.5729455455516217,0.4270544544483783,192.76359542834848,166.4217071274998,0.5634611787072756,1.7884425245542304,0.9808518769772803,1.1457133673261302,0.07213834368195116,-0.22524937903822217,-0.4078184017180303,0.0031469822708296747,0.30965983252515933,0.8492433541843774,1.3594671188867467,6.508157119351988,1.1756490491274851,1.1208530582262977,1.2541889633913426,1.307527311041596,1.4373701524602753,1.9827837540002609,3.029862654907033,1.0788773706575907,Stress
87.84020811818647,699.4642857142857,282.17201094021317,,,,,,,380.0483729287178,381.76744940052896,0.40341160614378196,0.5433420700538217,656.5,103.0407,0.15695460776846915,131.75,0.7424634100279061,533.2,749.8,76.78571428571429,87.5,307.0,2443.0,18.666666666666668,320.3125,,,0.04063393534122773,0.0711806360417963,0.03285122297598972,0.14466579435901375,0.5708565924778761,0.2808814310339833,0.4920350132329759,-2.6425344632586945,269.95035230740615,295.9905355471643,0.912023594971979,251021.89036151816,1.0964628607341282,6.106681705740356,1298.170517425082,0.625,0.6396396396396397,0.9295774647887324,0.1724137931034483,50.37585713761871,51.09442467806014,49.07360297104875,39.63963963963964,0.42683774270495,0.5731622572950498,176.36826142014226,204.3750229357785,0.6389681396151166,0.36103186038488344,236.60146336684434,177.84865663300616,0.5426416641245065,0.4573583358754934,208.66961458690602,191.57152015130654,0.5130053997406169,2.332257063662637,1.0005309967061435,1.4461709645959133,-0.9708306564830576,-1.5064945518039854,-0.30892330659729017,0.00409142414603462,0.4918139115950248,0.8030188578753892,1.2112854511722226,6.476823225551769,1.0720635098206226,0.967909705454544,1.2171648012032223,1.2412566083786825,1.346711601152605,2.0308903973466794,2.3524206378697983,1.0332592292408862,Stress
90.91634623587501,674.3362068965517,216.30610130153485,,,,,,,315.0104346097816,316.3885015379284,0.32076892667090295,0.4671415109972088,652.5,114.16019999999999,0.17495816091954022,158.5,0.6866632896446224,521.0,749.0,76.72413793103449,87.93103448275862,307.0,1589.0,19.333333333333332,343.75,,,0.04306783170112798,0.08171500504482812,0.039620221044306396,0.1644030577902625,0.5270492448418911,0.2619649067359309,0.49704066422582105,-2.5045176337002504,223.72045492691956,210.35708117824473,1.0635270924744933,147847.0633209392,0.9402675372127233,5.876782812539331,791.1677386189003,0.6206896551724138,0.6347826086956522,0.9178082191780822,0.16129032258064516,49.865488857659095,50.39460769871196,49.28934305200443,40.0,0.4556976123746028,0.5443023876253971,151.02359813281652,165.05419099469202,0.5746724022915359,0.4253275977084642,159.46570850552342,137.18888224875255,0.5115256538065076,0.48847434619349245,155.302027324422,151.76243833303147,0.5344303923087905,2.381058487399742,1.0585684183728927,1.1630565724097932,-0.32571131279492427,0.043604967209664336,-0.4561169309406558,0.0033142865957457523,0.4469766184821929,0.726944697253701,1.2965655911537612,6.556088322639175,1.217513760398759,1.2311428742474086,1.3375265087270463,1.5707060269116473,1.526210244297072,1.9852386977082221,3.216014959483743,1.2415310422213708,Stress
92.44837589233028,665.6050420168067,212.60679145072672,,,,,,,311.5736711315205,312.8863321940142,0.3194188415498186,0.4681059358977229,650.0,128.9862,0.1984403076923077,193.0,0.6823644330363904,495.8,757.2,76.47058823529412,88.23529411764706,307.0,1589.0,19.833333333333332,343.75,,,0.03570477956393705,0.07037150329086778,0.05103875027591365,0.15711503313071848,0.5073755411527568,0.2272524713420068,0.44789796296780354,-2.6539668805649863,221.24404723497415,203.97032723840454,1.0846874162062785,141771.3450722371,0.92192458865018,5.858558569760985,752.1810401444349,0.6218487394957983,0.6355932203389831,0.92,0.1935483870967742,50.72289156626506,51.29260285233915,50.02175406279997,38.983050847457626,0.4568263277656252,0.5431736722343748,149.54413635428412,163.06591137632492,0.5915118694908701,0.40848813050912997,156.87318875748963,130.3637106053632,0.5187032827661191,0.4812967172338809,153.25248133210061,147.62314943089098,0.49868154371402285,2.621821765547277,0.9673263701903596,1.457873509536816,-1.1683444290838132,-1.3518478074471398,-0.31289836487261746,0.004889077607657786,0.583881989579302,0.698342228891518,1.3368460857059095,6.566922385083961,1.2932486882056002,1.1210062799260674,1.2117933120095614,1.5056879211100986,1.5645517955240555,2.000703727380865,2.9991372805338954,1.158792901396293,Stress
92.87637328254542,660.075,196.69629204059999,,,,,,,290.3504981306316,291.5781187200725,0.2979908223165549,0.4398750113708769,649.0,142.3296,0.2193060092449923,194.5,0.6774443071632147,496.4,798.0,78.33333333333333,89.16666666666667,307.0,1585.0,20.0,320.3125,,,0.023530143634173082,0.049683574834204165,0.040741105049228975,0.11395482351760622,0.4736000521841272,0.20648659624783355,0.4359936095774653,-3.002080886735481,206.17686499257948,187.82012940910232,1.097735720027608,121655.55373831569,0.9109660747623753,5.79210204980363,684.3910641966853,0.6416666666666667,0.6554621848739496,0.9358974358974359,0.21875,50.051558657888464,50.52866690781352,49.561093139208,40.33613445378151,0.4595515637494261,0.5404484362505738,139.76781594087157,151.5713738010321,0.5911816721763319,0.40881832782366806,144.4117783914968,120.0901297903253,0.519247097650442,0.4807529023495582,142.10876839779476,136.73975396531432,0.6109561395252175,1.8597512391454485,0.9258800276011561,1.330710443149012,-0.4503363428111493,-0.9083421540119141,-0.28232012592508093,0.0038620523135689273,0.3367805392710586,0.6853094605549002,1.5322482737429703,6.581727678869738,1.3900232293078785,1.1600306853161646,1.1194573445716116,1.537328046571684,1.6210795263583186,1.9801565962847094,2.971898716127911,1.2087058542314906,Stress
93.6153114810191,654.4297520661157,198.10678208339564,,,,,,,290.36794187145847,291.57647316935976,0.302716649812983,0.44369612010262516,648.0,143.8122,0.22193240740740738,193.0,0.6822612055813466,492.0,795.0,77.68595041322314,89.25619834710744,307.0,1585.0,15.125,312.5,,,0.03859851792080079,0.08070115785625466,0.041118303605558904,0.16041797938261435,0.4782895183431281,0.24061216871918778,0.50306803618174,-2.5170023561480126,206.1757014125117,190.33582210154248,1.0832206945391436,123284.33180694254,0.9231729093076921,5.797877995623487,702.8514985398092,0.6446280991735537,0.6583333333333333,0.9367088607594937,0.21875,49.463295718161426,49.866284215557805,49.08151901502018,41.66666666666667,0.454651956363277,0.5453480436367228,139.02418023162602,152.26065388894492,0.5996573089673735,0.4003426910326264,147.3913843767405,120.43049857315198,0.5213689636441324,0.4786310363558677,143.26887812356125,137.27128561586912,0.559492762487468,2.0136710848399018,0.8848104874178493,1.2815729135063876,-0.6310947343543329,-0.8764467660030719,-0.30296562379248576,0.0033488696312964188,0.34856382060749014,0.6916722417049304,1.4683593141741944,6.629445468608034,1.3943429058366323,1.1802993230965368,1.216006240514953,1.6163776337971056,1.5962267739591984,1.9774469915745922,3.387382071678785,1.1436137582272057,Stress
93.65684629743451,655.4462809917355,204.42679824382222,,,,,,,295.80913046535034,297.0210075425114,0.31188947770747943,0.451309495597062,643.0,155.673,0.24210419906687403,199.0,0.6910767017983165,490.0,810.0,78.51239669421489,90.9090909090909,307.0,1585.0,15.125,312.5,,,0.04305227051116477,0.09270368115016793,0.051558135182373316,0.187314086843706,0.4644073458250884,0.22984000422289316,0.49491035464684213,-2.3783470968409643,210.02556858817047,197.62439537075946,1.0627512266091714,130395.49761477305,0.940953983361293,5.822232705998665,743.8218481339328,0.6611570247933884,0.675,0.9382716049382716,0.25,50.93841978517639,51.30755823577326,50.54335452636486,40.833333333333336,0.4749311095376207,0.5250688904623791,144.75348503083242,152.20252706081288,0.5826721869279107,0.4173278130720893,150.8525647386335,127.66716632491942,0.5255219382974157,0.4744780617025843,147.83448129038612,140.47155335001483,0.5465240524983898,2.140830662857807,0.8505356607606228,1.40038154469197,-1.186098541325272,-1.5912065853894035,-0.24316236521138246,0.003594536727250141,0.3888507118292925,0.7112768442034043,1.4350845252893225,6.652213133915169,1.40477172691701,1.021551608593989,1.2813087019052063,1.6206400887378023,1.626648804965202,1.982444410236739,2.9579218938324914,1.200794446138566,Stress
93.81373070703135,654.5454545454545,206.1916584151745,,,,,,,299.3331059761572,300.5881712068321,0.31501503368984995,0.4573144674635735,648.0,146.7774,0.22650833333333334,201.0,0.6888367985317277,490.0,810.0,76.85950413223141,90.08264462809917,307.0,1585.0,20.166666666666668,320.3125,,,0.06279106503164739,0.116431710334959,0.05798220049175227,0.23720497585835865,0.5392952216454229,0.26471225911020346,0.4908485157768505,-2.150450355227837,212.54793420481388,201.1518399371083,1.0566541885536254,134316.934207452,0.9463834155324032,5.835100880405799,761.4670612812314,0.6528925619834711,0.6666666666666666,0.9375,0.21212121212121213,50.013234015200226,50.48724600663416,49.54629929248032,42.5,0.4623617831672267,0.5376382168327731,144.52662515312278,155.84826169152132,0.5661275600502397,0.4338724399497604,151.34955842902104,132.49669382073037,0.5113884255898209,0.4886115744101791,147.97742093780883,144.6444858017292,0.5796657923054012,2.1995112813053836,0.9617797456404191,1.2353985802771477,-0.46479746285403856,-0.2710683361447308,-0.3756001676543624,0.003941582457733497,0.39666516434124244,0.7330400836857507,1.3217558399823197,6.668742059535003,1.4166556829709671,1.152015343291417,1.2918014497730415,1.6702255893442355,1.5544240718740767,1.991888706862145,3.531392406090357,1.1436137582272057,Stress
93.5360411466425,656.4462809917355,207.2683425905181,,,,,,,297.410826971716,298.65652071727277,0.3157430373089852,0.4530619421324139,645.0,167.53379999999999,0.2597423255813953,206.0,0.696909203679493,490.0,811.0,77.68595041322314,91.73553719008265,307.0,1585.0,20.166666666666668,320.3125,,,0.0652525024481651,0.10802808680824245,0.03912823354765849,0.21240882280406603,0.604032750889988,0.30720241083562,0.50858568576453,-2.225364022629166,211.18205104476417,204.3003607313457,1.0336841809225576,135542.66166750254,0.9674134696610189,5.83904611964236,790.5716833124357,0.6446280991735537,0.6583333333333333,0.9240506329113924,0.21212121212121213,50.20281647022807,50.81382806534561,49.59674492298745,41.66666666666667,0.4531894644098047,0.5468105355901953,142.16700736525786,156.16271679772692,0.5785539433833938,0.4214460566166063,155.3964390077923,132.62949950390168,0.5137955687140502,0.4862044312859498,148.92869307070382,144.87473598992773,0.7431955396914577,1.0045376929832766,0.9457909400102504,1.01622998785542,0.5005272163377761,0.14530290332062767,-0.4298791390933479,0.001000143943124926,0.08785934902690297,0.7012093967016626,1.2580400255962119,6.658451873602471,1.3802242231650332,1.281314551776058,1.3767356947836809,1.8744733515525063,1.5637857021894221,1.979648603576096,2.9476426105219855,1.3151558219612864,Stress
93.08069191216204,657.8833333333333,200.8974061234113,,,,,,,284.85163468288647,286.05038609829194,0.305369350376325,0.4329819897391429,650.0,162.3447,0.24976107692307692,209.0,0.7052703290506374,501.8,798.0,75.0,90.0,307.0,1585.0,20.0,312.5,,,0.05426885092265074,0.09549891571933039,0.020141492466220698,0.16990925910820182,0.5682666710284536,0.31939902043885193,0.5620583376125173,-2.3486403852841957,202.26816777113237,200.7234329237909,1.0076958371269384,127548.53923319474,0.9923629364701155,5.812645599120099,796.7619812584617,0.625,0.6386554621848739,0.9078947368421053,0.1875,50.44080085688392,51.04528493282855,49.78851406227889,40.33613445378151,0.447659489500207,0.5523405104997933,135.33498927488745,150.32791840123195,0.5850229016426282,0.4149770983573718,153.52691025278926,129.3034583951395,0.5158132975128807,0.48418670248711904,144.71708864851087,140.2103195271144,0.628011705036438,2.0608208052120642,1.0329143078238248,1.174704501654799,-0.11303919861856482,0.11945430247275679,-0.4311972232266048,0.0032985207090155903,0.3470846536318937,0.6792697233494511,1.2896675254308192,6.598394345536405,1.335596127025821,1.2423322635475966,1.378623070157746,1.6924303262715903,1.5391068016734983,1.9756598580987914,2.9765509540808304,1.2087058542314906,Stress
91.64710701676339,665.4406779661017,197.02928509706675,,,,,,,260.0722943540859,261.0848439798223,0.29608842924854023,0.39082716606533374,655.5,134.9166,0.2058224256292906,178.75,0.7575942896432224,519.8000000000001,795.0,68.64406779661016,86.4406779661017,307.0,1585.0,16.857142857142858,421.875,,,0.062671808354535,0.09657014344454116,0.020089746416043157,0.17933169821511932,0.6489770659865127,0.34947423672616057,0.5385001335831849,-2.337485659609973,184.6148636431641,191.9683953028897,0.9616940504809498,111338.73203729835,1.039831742226016,5.753616381070126,798.4593237605452,0.6101694915254238,0.6239316239316239,0.8904109589041096,0.1875,47.98475198735531,49.80157606599759,45.464847826516745,41.02564102564102,0.3611011879676997,0.6388988120323004,110.98326217389096,147.6247134950065,0.55871777294576,0.44128222705424,143.49143468254016,127.52283312376973,0.4637267988662473,0.5362732011337529,128.27134580648226,137.94043823766035,0.8448845850288835,0.7155071869655809,0.9028294262387822,1.202638178511674,0.5324450177615594,-0.46268210588941505,-0.08098428955778753,0.0016022117151004885,0.08095145651108189,0.6973157258056704,1.2729656758128873,6.592264553544125,1.2030183512832193,1.3160999099674486,1.379496285649427,1.7005067690616544,1.5801866733050138,1.9491441176718793,2.4561140572139495,1.224877152852531,Stress
90.98316951499095,669.6068376068376,182.26472587330682,,,,,,,233.875998680114,234.8894696841809,0.27219663186940796,0.34927361183464384,665.0,120.0906,0.18058736842105264,160.0,0.7793220634093412,528.8,795.0,66.66666666666666,86.32478632478633,307.0,1363.0,16.714285714285715,421.875,,,0.06428464747292595,0.09474585671839444,0.018776256000110972,0.17780676019143138,0.6784956060294445,0.36154220122854397,0.5328585741981272,-2.356557164541481,166.0919368429963,198.457805967982,0.8369130961257959,103553.93534903102,1.1948671906667003,5.722136717951211,948.5228843313593,0.5982905982905983,0.6120689655172413,0.8732394366197183,0.1935483870967742,50.213951636978805,50.62963483572116,49.90096171847273,41.37931034482759,0.45801191054451673,0.5419880894554834,112.4059026765131,122.27723311855904,0.5429024275783554,0.45709757242164467,146.22750756393492,134.175321058921,0.5079348645230447,0.49206513547695535,130.41773446292183,128.36420552551823,0.713828533001114,2.9492894015490734,1.2543864313657123,2.098219573526601,-1.3678659441894894,-2.1873586236913902,-0.21388594767347102,0.015157610438715358,1.0760035319204095,0.6081809004509284,1.3156767939059373,6.577504356280065,1.2630544318621997,1.1624643668008166,1.4383693914426268,1.8147364971697248,1.5916242948283552,1.948896008552072,3.376947975538854,1.0569791876282162,Stress
91.25994628706552,668.0,181.64118852155028,,,,,,,232.13102327309025,233.12818915532029,0.2719179468885483,0.3475015318459435,665.0,118.60799999999999,0.17835789473684208,165.25,0.7824942395048108,529.6,795.0,64.40677966101694,84.7457627118644,307.0,1363.0,16.857142857142858,367.1875,,,0.0676896998024203,0.09349831392677872,0.01965173813979081,0.18083975186898985,0.7239670637850228,0.3743076348139341,0.5170230160153836,-2.3698118757187667,164.8465234374671,198.15522674022003,0.8319060069688681,102620.7530677434,1.202058876391095,5.718205307300894,952.7769968254863,0.6101694915254238,0.6239316239316239,0.8767123287671232,0.1875,49.775897668328554,50.18351793987791,49.49901237167063,42.73504273504273,0.456727654098494,0.5432723459015057,111.40656360283761,121.50409741920299,0.540743741449202,0.4592562585507979,145.71400095027929,134.28672239476998,0.5063803500787678,0.49361964992123214,129.6996385629719,128.0550067377008,0.851328341985611,1.696062470578874,1.18527239284901,1.5852907285805524,-0.24852915123555164,-0.9364966208205354,-0.26414881959211434,0.004569345207918995,0.3362159081224265,0.6185003390322077,1.3285355269676984,6.605059256970625,1.2229981460291255,1.3622016172423983,1.2653783784981574,1.6462086026928664,1.5868882760118488,1.9277935575004563,3.2985361714838546,1.0498947024450267,Stress
91.34498810232738,667.1864406779661,185.21661834729971,,,,,,,232.53168151024693,233.53130984740588,0.27760848700565705,0.34852579029327735,671.0,120.83189999999999,0.180077347242921,165.25,0.7965220788167646,525.6,795.0,62.71186440677966,81.35593220338984,302.0,1363.0,14.75,375.0,,,0.0604131659815475,0.09992765116635216,0.015272154321194097,0.17561297146909377,0.6045690584778795,0.3440131185991557,0.5690220393767352,-2.3033088431745123,165.13157281247746,204.7302085587097,0.8065813734816927,106209.1465233537,1.2398005122327531,5.733132028906615,1015.2984697624266,0.6016949152542372,0.6120689655172413,0.8591549295774648,0.18181818181818182,50.144501343608994,50.542326766125626,49.84852104827816,43.103448275862064,0.4635543180418902,0.5364456819581098,112.42978651830538,120.9466789040982,0.5525152180409492,0.44748478195905056,152.17876351434512,136.95284674565107,0.5174511880913865,0.48254881190861365,133.7887008706391,129.19787414982653,0.7624404982284428,2.3629663527440754,1.2674073913264352,1.751430683845668,-0.5190382799471234,-1.0822047088270161,-0.2951628503058691,0.008781012484478816,0.6513964784288744,0.6381401217944394,1.148622709242771,6.581712752715002,1.2009279098224623,1.224166134886505,1.2596996797518563,1.7859553020831116,1.494598172577103,1.9294842871287214,3.2163076992875697,1.108222185914195,Stress
91.74888423431227,665.5042016806723,189.3785946215684,,,,,,,241.00553830052417,242.02008580382977,0.2845640856110441,0.3621397696541748,671.0,143.8122,0.2143251862891207,178.0,0.7857852394471572,521.2,795.0,63.86554621848739,81.5126050420168,302.0,1363.0,14.875,375.0,,,0.0630105606178093,0.11025162787890092,0.014874294467578162,0.18813648296428837,0.5715159207174642,0.33491941395422925,0.5860193947594344,-2.204989999422683,171.1340438552381,205.57325862157415,0.8324723021016422,110523.06127901904,1.2012411673943035,5.750423015505696,987.7722446865231,0.6218487394957983,0.6324786324786325,0.8783783783783784,0.18181818181818182,50.72357842420699,51.14828899859118,50.43940378741893,45.2991452991453,0.48997814812150736,0.5100218518784927,119.79769271353759,122.22343627990654,0.5442275922669759,0.4557724077330241,151.6550576386935,138.78439448618553,0.522019906720402,0.47798009327959784,136.6578641843978,130.76634989355162,0.8811100637465508,2.2108970046657435,1.4431242076474966,1.9205892561474207,-0.40128233887657494,-1.2693437190125718,-0.2840401215016751,0.01203989259919048,0.7072994988139382,0.60014759985618,1.0628942060660307,6.613223015372422,1.1674104849449953,1.2342600230145564,1.2192060382050154,1.5550068356869935,1.4426304723221612,1.9457196065931188,2.7258906740391753,1.0429136112566637,Stress
90.18898085485714,676.008547008547,180.73902388224053,,,,,,,229.1885423205848,230.15693280486022,0.26736203955118837,0.3390320186553604,675.0,111.195,0.16473333333333331,143.0,0.7886040988446362,558.4,787.6000000000001,58.97435897435898,78.63247863247864,302.0,1363.0,14.625,375.0,,,0.05705999944611957,0.08073671895044973,0.027858974128784842,0.16565569252535417,0.7067416187811497,0.34444937313208446,0.4873766649346668,-2.5165618016081033,162.7455279234132,195.7270116283379,0.8314924269750126,100071.33682908516,1.2026567742030094,5.707279811421601,941.569665717327,0.6068376068376068,0.6173913043478261,0.8591549295774648,0.15151515151515152,51.08583247156153,51.508736862306705,50.80708995422214,44.34782608695652,0.5001925924685922,0.4998074075314077,115.11359229228657,115.06926080673628,0.5437065636396141,0.45629343636038594,144.32217100640395,132.21260922074646,0.5259171328674435,0.4740828671325563,130.53740493520715,123.93770374580632,0.7820287889240087,2.808878048178757,1.401268323960022,1.9725265857725112,-0.8823155915316736,-1.4080282990437163,-0.2966240427622388,0.011516651009563979,0.9132194745708611,0.5531154317309106,1.007957920399979,6.601050403307103,1.0803192053115218,1.175070715319751,1.1474494707926015,1.499982861026538,1.399035490460299,1.9395769575157629,2.5272059159448923,1.233142385566252,Stress
91.54214653723012,663.436974789916,162.05803724233596,,,,,,,205.73260990825207,206.6075389264461,0.24427043321432795,0.31010121190999246,672.0,106.74719999999999,0.15885,153.5,0.7877119592980758,542.2,753.4000000000001,57.98319327731093,78.15126050420169,302.0,1197.0,14.875,375.0,,,0.049068906672110356,0.07658540100069768,0.02828250575077713,0.15393681342358514,0.6407083599609715,0.3187600521331329,0.49751192906636965,-2.569348807857944,146.0935918191536,177.16091158016926,0.824637842039117,81310.933232398,1.2126535419806317,5.6171190555959125,859.339227712839,0.6134453781512605,0.6239316239316239,0.863013698630137,0.1875,49.643401402011584,49.685134585727305,49.697147904273045,46.15384615384615,0.4849728408914123,0.5150271591085875,101.74074644496908,104.84585755361937,0.542411790536781,0.45758820946321915,130.4765506514808,119.84097096572656,0.5191618093437774,0.48083819065622235,116.99425147648905,112.59332166732172,0.8360869642217433,2.7365466753372356,0.806865393855873,2.074873660674336,-1.256707737194752,-1.9977344547627018,-0.03663926939517617,0.00984580962438166,0.8286328316529933,0.6046997350273058,1.1608892181896242,6.579609569994271,1.1406494338011577,1.5780678366303837,1.3028790891043347,1.5004531378751607,1.4798086009571718,1.9059212097168383,3.3439870666202416,1.2167325464661076,Stress
92.60570943270599,657.2916666666666,167.22401800841754,,,,,,,210.98848986886193,211.85724024341263,0.254413719949415,0.32099675162299124,671.5,121.5732,0.18104720774385705,176.75,0.7925741262585185,522.6,760.0,59.166666666666664,78.33333333333333,302.0,1197.0,15.0,375.0,,,0.05095614477574848,0.08501051869862174,0.02303586797619723,0.15900253145056745,0.5994098795749923,0.3204737956740665,0.534648838122749,-2.4649802807525956,149.8056912195846,182.65976962638985,0.8201351152801484,85964.88590081637,1.2193112834321354,5.64129120104669,890.8764725382862,0.625,0.6355932203389831,0.88,0.21875,51.1004897621998,50.91936896889907,51.25958232390787,47.45762711864407,0.52277325136137,0.4772267486386301,108.32605364502615,103.49959059937044,0.4971671819086525,0.5028328180913476,128.79355535795008,129.5253316468422,0.5074656668815373,0.4925343331184626,119.00065924196898,117.23689008256264,0.7810646860877877,2.470543391367441,1.3573388366696062,1.8143311608752621,-0.5321019057179495,-1.1348506898080568,-0.31502355886463024,0.008710154904776174,0.7032896510957667,0.5815387004389252,1.09861228866811,6.610975803905796,1.1072453078333406,1.3870527497092928,1.207874729977416,1.5948965719132733,1.4616463151216605,1.8931423977964164,2.951645440110904,1.0360335893412778,Stress
91.0898678649294,666.8135593220339,167.45020686874454,,,,,,,204.6436761496289,205.52079190030963,0.25111997878236814,0.3068978926548753,676.0,100.07549999999999,0.14804068047337277,144.25,0.8182525354280203,549.0,755.0000000000001,55.932203389830505,77.11864406779661,302.0,1197.0,14.75,375.0,,,0.06278255254884946,0.08425439566864282,0.008162244571009185,0.15519919278850147,0.7451546242852634,0.4045288601108043,0.5428790843226933,-2.4739145370021673,145.3251456275382,188.00099488828812,0.7730020030686099,85832.3072770896,1.2936577085573766,5.640620897008913,972.8357450147594,0.6016949152542372,0.6120689655172413,0.8450704225352113,0.1935483870967742,50.41648121065685,50.1824989207327,50.66559697884513,49.137931034482754,0.5325568328970272,0.4674431671029728,106.05478008703966,99.36002110055858,0.4536081651346549,0.5463918348653449,126.61949563081416,138.96718103633094,0.4831382428414755,0.5168617571585243,116.79065256498936,120.79795362150766,0.9411724675954727,2.332488636729137,1.4277959726585947,1.9650019473006857,-0.7788991065314139,-1.5007882642148336,-0.26968549120332774,0.006832445658505798,0.6012866884776886,0.6071058260640032,1.0630673512486983,6.605059256970625,1.0805307841200775,1.3198622621234104,1.2276959383984671,1.5401948718187808,1.441152574319693,1.8557094960986205,3.073341659813039,1.166549669383363,Stress
91.77830538908542,661.8319327731092,177.98573163759986,,,,,,,213.0509010557758,213.94877358805297,0.26892889693585903,0.3219108817597872,677.0,93.40379999999999,0.1379672082717873,148.5,0.835414122895467,535.0,742.4000000000001,52.94117647058824,75.63025210084034,302.0,1197.0,13.222222222222221,375.0,,,0.07697123207687352,0.07740038245201143,0.012106423971292142,0.1664780385001771,0.9944554489068063,0.4623506666123511,0.4649284863596534,-2.5587635571582057,151.28462863065758,200.89745811939804,0.7530440158219702,95481.47470005882,1.3279436247939238,5.686889227975102,1067.1219949878357,0.5966386554621849,0.6068376068376068,0.8169014084507042,0.1935483870967742,49.203124007873505,49.46852724445443,48.95286325991343,49.572649572649574,0.4886097181513194,0.5113902818486806,105.75416986788012,108.19138629473267,0.4761755333111776,0.5238244666888223,138.63024164471048,145.4009792964424,0.4806753601982132,0.5193246398017868,123.29292020005704,128.1538545045379,0.9076089810072407,2.3865300152910764,1.5178338622094218,1.8852134813145773,-0.636049513791022,-1.2103130320398443,-0.34606117804877157,0.006777252768054389,0.6102522631317948,0.6169926426322578,1.0368476944132639,6.545996124616121,1.040362444189217,1.4360426302299585,1.4487489773279139,1.5509983955854612,1.3972834619920724,1.8355744019132887,3.061661051330924,1.1008532563264786,Stress
91.61353225927871,664.0084033613446,179.45909763897524,,,,,,,212.83599558568366,213.72226148853292,0.2702663049601738,0.32053208138370676,678.0,91.9212,0.13557699115044247,135.5,0.8431802014745596,529.0,747.2,52.10084033613446,75.63025210084034,302.0,1197.0,11.9,429.6875,,,0.04737876888084165,0.09208061281405058,0.026147757916585242,0.1656071396114775,0.5145357685283793,0.2860913423901565,0.5560183759593713,-2.385090859355528,151.12446038906614,203.70130327186763,0.7418924570520278,96711.572193318,1.347904255521864,5.692448553424396,1098.2794141420006,0.6134453781512605,0.6239316239316239,0.8356164383561644,0.26666666666666666,51.128058468382584,51.32931153313843,50.85438084630537,48.717948717948715,0.5066350800450714,0.4933649199549286,107.57857394783393,106.16033672712749,0.4824477004994611,0.5175522995005389,141.48777856617514,146.54497422657104,0.4910354962216359,0.5089645037783642,125.6820214991798,127.95594274023279,0.9059757489005715,2.7835254667078724,1.6141169777304925,1.9510287580467742,-0.873640457970275,-1.1545596756084207,-0.3789622066167932,0.007445810210542113,0.7582411669807866,0.6008866058614455,0.9963334395476913,6.539652532160964,1.0284894735454044,1.5291548327952864,1.4187664350265237,1.5226070709226758,1.401191076927523,1.8142946609082562,2.698935753305005,1.0429136112566637,Stress
