PPG_Rate_Mean,HRV_MeanNN,HRV_SDNN,HRV_SDANN1,HRV_SDNNI1,HRV_SDANN2,HRV_SDNNI2,HRV_SDANN5,HRV_SDNNI5,HRV_RMSSD,HRV_SDSD,HRV_CVNN,HRV_CVSD,HRV_MedianNN,HRV_MadNN,HRV_MCVNN,HRV_IQRNN,HRV_SDRMSSD,HRV_Prc20NN,HRV_Prc80NN,HRV_pNN50,HRV_pNN20,HRV_MinNN,HRV_MaxNN,HRV_HTI,HRV_TINN,HRV_ULF,HRV_VLF,HRV_LF,HRV_HF,HRV_VHF,HRV_TP,HRV_LFHF,HRV_LFn,HRV_HFn,HRV_LnHF,HRV_SD1,HRV_SD2,HRV_SD1SD2,HRV_S,HRV_CSI,HRV_CVI,HRV_CSI_Modified,HRV_PIP,HRV_IALS,HRV_PSS,HRV_PAS,HRV_GI,HRV_SI,HRV_AI,HRV_PI,HRV_C1d,HRV_C1a,HRV_SD1d,HRV_SD1a,HRV_C2d,HRV_C2a,HRV_SD2d,HRV_SD2a,HRV_Cd,HRV_Ca,HRV_SDNNd,HRV_SDNNa,HRV_DFA_alpha1,HRV_MFDFA_alpha1_Width,HRV_MFDFA_alpha1_Peak,HRV_MFDFA_alpha1_Mean,HRV_MFDFA_alpha1_Max,HRV_MFDFA_alpha1_Delta,HRV_MFDFA_alpha1_Asymmetry,HRV_MFDFA_alpha1_Fluctuation,HRV_MFDFA_alpha1_Increment,HRV_ApEn,HRV_SampEn,HRV_ShanEn,HRV_FuzzyEn,HRV_MSEn,HRV_CMSEn,HRV_RCMSEn,HRV_CD,HRV_HFD,HRV_KFD,HRV_LZC,Labels
84.82877922536815,708.6355140186915,159.9993155954327,,,,,,,145.2434520980498,145.53704616327047,0.2257850650019954,0.20496214093811102,677.0,65.2344,0.09635805022156572,91.0,1.1015940015486663,628.2,747.4000000000001,47.66355140186916,71.02803738317756,576.0,1896.0,13.375,70.3125,,,0.052809373456669084,0.08499683706937823,0.0189152001427419,0.1567214106687892,0.6213098660784719,0.3369633621297283,0.5423434915922768,-2.4651412341326564,102.91023225590816,165.87832657497356,0.6203958912582523,53628.799654043534,1.6118739889973415,5.43636818644268,1069.4998397784254,0.5887850467289719,0.6,0.8412698412698413,0.2692307692307692,43.122270742358076,46.16378431647168,38.4831957619416,53.333333333333336,0.2916396111155833,0.708360388884417,55.72667139496046,86.84943183189978,0.1394434238090531,0.8605565761909469,61.94249069324558,153.87900140704951,0.1819083783137051,0.8180916216862948,58.91661080732971,124.9431288297891,0.5552634651852323,2.2226771847460762,1.077695378186278,1.0222063626403037,-0.5143155433986522,-0.18755506818755097,-0.5249649458440423,0.0015390927951205336,0.3233964803367104,0.9023088577130403,1.0268064758045434,6.2717037854059114,0.7250319198599223,0.7753428479674628,1.1019457353666788,1.1176763942177865,1.2147646574866866,1.9157261300379278,1.6469358390973083,0.8820611010244491,Relax
86.20683526661011,696.7699115044247,109.54508276516938,,,,,,,135.39307853168017,135.90275760193214,0.15721844608451313,0.19431533465523415,677.0,65.2344,0.09635805022156572,91.0,0.8090892381883266,628.0,746.8000000000001,49.557522123893804,72.56637168141593,558.0,1420.0,12.555555555555555,85.9375,,,0.059862637598573035,0.08383251118528307,0.03077303976960741,0.1744681885534635,0.714074250576452,0.3431149145004673,0.48050313286535723,-2.4789343850935346,96.09776148227783,100.17801401322792,0.9592699798339852,30243.744584335484,1.0424593920608918,5.1876056716465735,417.72604634438824,0.5929203539823009,0.6036036036036037,0.8507462686567164,0.25,46.51555341210512,48.09727261090489,44.2780412168362,52.25225225225225,0.32908610572089875,0.6709138942791013,55.16755803422387,78.7702783844056,0.39492508525787196,0.6050749147421278,62.954934732915035,77.92503246331628,0.3633497983798692,0.636650201620131,59.189455423601636,78.3487952720578,0.7156411845629039,2.7186821065794105,1.0545291573778668,1.37434825401311,-1.2295369874905333,-0.5645615760724012,-0.3823624520640874,0.0032533405127537027,0.4636079253937754,0.9936996630618697,1.5479357126763067,6.382039360606985,0.9706254060023877,0.9927976856836132,1.2946682111390508,1.4778840915978337,1.563497163911396,1.9477304080719877,1.922413228732023,1.0260446226642317,Relax
86.48596543101273,695.3893805309734,83.28934437381515,,,,,,,111.17172205967796,111.6676987841043,0.11977367889946566,0.15986974373234084,681.0,65.2344,0.09579207048458149,87.0,0.7491954143617988,637.4,744.6,49.557522123893804,71.68141592920354,558.0,1265.0,14.125,101.5625,,,0.04329426875301995,0.04487894946541098,0.016385597575976834,0.10455881579440778,0.9646898884384009,0.4140661734171582,0.42922205195643853,-3.1037864256751044,78.96098704973694,87.81917128530702,0.8991315437629034,21784.709641641264,1.1121843148945234,5.045121885761067,390.684419402216,0.5929203539823009,0.6036036036036037,0.8507462686567164,0.2413793103448276,50.672168241714374,50.81007814750242,50.50285720145504,53.153153153153156,0.487037150752226,0.512962849247774,55.107143795494395,56.55484462405011,0.461480643099929,0.5385193569000711,59.65764137694475,64.44511362840433,0.47290574978996397,0.527094250210036,57.4274824102426,60.628471533712585,0.6577685107137944,3.029146869900558,1.0911121498067147,1.4607400848641328,-2.04373926968138,-1.4650804788033436,-0.3779762253424337,0.0018511938185244202,0.512549718102673,0.7808058496208496,1.6231367567922625,6.382039360606985,1.1807298612111712,1.2483981637213626,1.208103685780348,1.7291201459420285,1.6380001167063494,1.9444558416856839,2.0948323421779342,0.9656890566251594,Relax
86.24812960574809,696.9298245614035,82.95096315573753,,,,,,,112.30907102112597,112.80698178332968,0.1190234084298814,0.16114832091137019,689.0,63.01049999999999,0.0914521044992743,85.5,0.7385953992989042,643.8,746.2,53.50877192982456,71.9298245614035,558.0,1265.0,14.25,85.9375,,,0.05766194546940817,0.04931952539852877,0.018825067583825923,0.12580653845176287,1.1691504531616652,0.4583382245392364,0.3920267261581083,-3.0094352236331705,79.76658178417975,86.16684828128925,0.9257224022373893,21592.904426932855,1.0802374422214351,5.041281172479132,372.3226231666494,0.5964912280701754,0.6071428571428572,0.8676470588235294,0.2,49.47530074225749,49.47470048316803,49.45941749364876,52.67857142857143,0.4787575439940616,0.5212424560059385,55.193490817046786,57.59037928086848,0.4634543975338229,0.5365456024661771,58.660223285895626,63.11659010735283,0.47051674429120105,0.5294832557087992,56.95324057734801,60.41670188157359,0.813786302979893,3.2706481215554684,1.1552486546825262,1.851400890940187,-2.3487989076338245,-1.879040355383716,-0.2871515949179572,0.006673770633427137,0.7543505659949141,0.7935553183726523,1.7186372043990923,6.3459621632495935,1.246503089800115,1.0313191685885421,1.3419707145453055,1.7643665448449224,1.6389100531192502,1.9745174781059667,2.208603052218739,1.0788773706575907,Relax
86.06375028011448,698.0973451327434,64.29868425139178,,,,,,,75.45984031257952,75.79268307424739,0.09210561349315169,0.10809357869457419,695.0,63.751799999999996,0.09172920863309351,84.0,0.8520914434094407,646.4,752.4000000000001,51.32743362831859,70.79646017699115,558.0,952.0,14.125,117.1875,,,0.05710127234464343,0.04321993045031956,0.022957897345957747,0.12327910014092075,1.3211791816805487,0.46318696583095414,0.35058603121627846,-3.1414535371059977,53.59352016612319,73.4055107427246,0.7301021357096814,12359.213116061608,1.3696713803308762,4.798960931019523,402.1657088915223,0.6017699115044248,0.6160714285714285,0.8840579710144928,0.2,50.84719415513758,50.90912642435674,50.79244460587072,52.67857142857143,0.5231415494183448,0.4768584505816551,38.76662677292611,37.01205063073231,0.4335481041742563,0.5664518958257435,48.333395988174686,55.247188522589596,0.4647035898588614,0.5352964101411387,43.811919149365345,47.022035959443784,0.7583388419779236,2.532141242945459,1.046306891158102,1.6043598280532023,-1.800441730066817,-1.638119587523347,-0.27961223985832745,0.0029460418704093713,0.42413464530543415,0.6407031627433657,1.8245492920510458,6.382039360606985,1.386545533639018,1.0784784773495455,1.3221592071852835,1.9660879665424231,1.8669994462928106,1.9129144181988569,2.6191982051970513,0.9656890566251594,Relax
85.88499423749077,699.5486725663717,62.54227015593455,,,,,,,75.27176951363828,75.60904149456701,0.0894037435972701,0.10760047508559406,695.0,60.7866,0.08746273381294964,82.0,0.8308861417772662,647.4,752.4000000000001,50.442477876106196,69.02654867256636,558.0,952.0,11.3,101.5625,,,0.045057542819529534,0.0356172840664843,0.022229268859961286,0.10290409574597512,1.2650471253064595,0.4378595671328453,0.34612115104152597,-3.3349242514592636,53.46366595982338,70.48585297600837,0.7585020781123423,11838.87859589337,1.3183879502198137,4.78028067698716,371.71079689813934,0.6106194690265486,0.625,0.8857142857142857,0.2,50.345585925227766,50.380281173108244,50.31923573318862,50.89285714285714,0.5198243230891905,0.4801756769108094,38.54720985217202,37.047996626728064,0.45903210196459127,0.5409678980354089,47.75551016771709,51.84271133319069,0.4812344443002488,0.5187655556997514,43.39629096343556,45.056746289710006,0.8624935136222855,2.470626164537021,1.132814639664408,1.7175436843950014,-1.8179183362905285,-1.7594335699494117,-0.2633275915540352,0.0029278579975747527,0.41141048101637484,0.6990377105836179,1.9459101490553132,6.344298984443353,1.3749132017019858,1.3843587517702438,1.0352078129682916,1.6297904607924936,1.789180245096303,1.86997093574367,2.6780883939698654,0.9656890566251594,Relax
85.41013922602016,703.4910714285714,61.00243615512184,,,,,,,75.86426950407805,76.20488783788694,0.0867138740385786,0.10783970484518209,699.5,60.0453,0.08584031451036454,85.25,0.8040996974450888,652.4,753.4000000000001,51.78571428571429,69.64285714285714,558.0,952.0,10.181818181818182,101.5625,,,0.047183559247476865,0.03722323647835544,0.016438680097331078,0.10084547582316339,1.2675834696672106,0.4678797820361832,0.36911161531557335,-3.290822076192293,53.88499294973012,67.61893032220887,0.7968921231519696,11446.850197975606,1.2548749961847687,4.765656109316509,339.4132197204,0.6071428571428571,0.6216216216216216,0.8840579710144928,0.16129032258064516,50.6244146113019,50.64449160990235,50.60861248541184,51.35135135135135,0.5219754933880986,0.47802450661190143,38.932517374181046,37.25739706908732,0.45475335571176145,0.5452466442882385,45.599098063515704,49.930371455794464,0.4808634091492129,0.5191365908507872,42.397043843274204,44.05198991008948,0.8419454827875735,2.226076713907724,1.135715364766885,1.6224631500646236,-0.9217196837620527,-0.9898682917133548,-0.28134276224322635,0.004455146419429268,0.4175495342309977,0.7137538038509921,1.8262456452992244,6.280394654123197,1.4050446416810676,1.3501391995356404,1.0454342092592608,1.5374555853162104,1.7143579987196256,1.8809908364428531,2.828798714693477,1.0940391839021149,Relax
85.32266732475165,704.0803571428571,61.3096024977316,,,,,,,75.51475006564928,75.85640125786098,0.08707756419526408,0.10725302772553762,701.0,62.2692,0.08882910128388016,88.25,0.8118891004000102,653.2,754.0,50.0,70.53571428571429,558.0,952.0,9.333333333333334,101.5625,,,0.056027803906495706,0.04069431611471469,0.014018864132300662,0.11074098415351105,1.3767967926664963,0.5059355787269237,0.3674729498367427,-3.2016668494871174,53.63857572584125,68.49775787383726,0.7830705323907912,11542.595226353533,1.2770241742425192,4.769273576127077,349.8931707452042,0.5803571428571429,0.5945945945945946,0.8484848484848485,0.16129032258064516,49.69382948657561,49.702106663020935,49.69493546332258,52.25225225225225,0.516710770567558,0.483289229432442,38.557218402124015,37.28940868396816,0.4545127177134631,0.5454872822865371,46.179515899591905,50.59046496151396,0.4781553763785769,0.521844623621423,42.53943335089075,44.440382227328854,0.9041514668637867,1.1916106769644208,1.200232345736695,1.4434055551037066,0.43125306395921115,-0.422307422958605,-0.2959289774186269,0.004648229331825245,0.22446764045473994,0.6749290324749118,1.7211419020141017,6.262537511266053,1.4027391566086351,1.4179504985244746,1.022257955461758,1.5228689523103967,1.6595617765445978,1.885652838210045,3.6985575050842816,0.9724792745796577,Relax
85.05809465082972,706.1428571428571,59.29827749847136,,,,,,,69.35637177870758,69.67087714412042,0.08397490238504947,0.098218612674682,703.0,65.2344,0.09279431009957324,89.25,0.854979520665698,656.6,757.0,48.214285714285715,68.75,558.0,952.0,9.333333333333334,101.5625,,,0.062144154680380585,0.042007070322086254,0.019131901167590157,0.123283126170057,1.4793736912356577,0.5040767265640134,0.3407365762622016,-3.1699173338644715,49.2647496798224,68.3117102881326,0.7211757614035449,10572.588077274666,1.386624528331083,4.731151421781679,378.89077223108575,0.5714285714285714,0.5855855855855856,0.8615384615384616,0.12121212121212122,49.93243243243242,49.90106310018833,49.96998364186486,53.153153153153156,0.5493160331420524,0.45068396685794754,36.51301137950689,33.07292218444239,0.4471326494398273,0.5528673505601729,45.678659471200305,50.79320654776468,0.4820943259575801,0.51790567404242,41.35057394454083,42.858884803632414,0.896319780589768,2.219148520277469,1.2264700904275196,1.3812296093673422,-0.4824632124743111,0.21267645061211793,-0.43026175691905816,0.002204098756485478,0.31620911746041935,0.6480342889133639,1.6828653809889176,6.262537511266054,1.4159088456119988,1.171128460560228,1.0555245255822179,1.5617568958617905,1.6508254830461762,1.8724428613453699,3.0174349405577017,0.9724792745796577,Relax
85.5010708645468,702.4107142857143,57.23266149522964,,,,,,,67.80091418236161,68.10320250653557,0.08148033669080615,0.09652602502128511,696.0,54.856199999999994,0.07881637931034483,75.25,0.8441281682617593,656.6,753.2,43.75,66.96428571428571,558.0,952.0,9.333333333333334,101.5625,,,0.05232221794975904,0.03763698600193298,0.022211336704911266,0.11217054065660328,1.3901808701438487,0.4664524004563485,0.33553360607536087,-3.2797680418086728,48.15623631289197,65.14492128985013,0.7392170465388976,9855.597832130803,1.3527826565717325,4.7006530833079205,352.50767873855955,0.5714285714285714,0.5818181818181818,0.828125,0.125,49.17859035506093,49.165486219089416,49.20205476836752,53.63636363636364,0.5476156413457375,0.4523843586542627,35.63884499709934,32.39212867349104,0.4308817243878953,0.5691182756121048,42.76215671104241,49.14528180080993,0.47213422691661483,0.5278657730833851,39.36196971257296,41.62035994126565,0.9465165304544506,1.4510187911929613,1.3097843014149833,1.58063279125735,0.3144091610714632,-0.45383588047650836,-0.3133390887242147,0.006258249368680243,0.3132960457729892,0.6397672096737796,1.7376922479577792,6.168874788090399,1.3640230993966622,1.2323114097421313,1.1182427031935174,1.6151317315824416,1.6947053933551162,1.8609729002514994,3.305488699403065,1.0940391839021149,Relax
85.60006147493219,701.5535714285714,56.50940116089021,,,,,,,66.83999989217224,67.14271841044742,0.08054894659836209,0.0952742635976696,698.5,54.1149,0.07747301360057265,72.5,0.8454428673257393,656.6,750.0,41.07142857142857,63.39285714285714,558.0,952.0,9.333333333333334,101.5625,,,0.04788630554747081,0.03401225461719504,0.019910995273946647,0.10180955543861249,1.4079132973225976,0.470351779272276,0.3340772334253361,-3.3810343893877337,47.47707149532622,64.71069429216438,0.733681998233097,9651.834243210935,1.3629883279244526,4.6915799648606855,352.79968404843015,0.5714285714285714,0.5818181818181818,0.84375,0.09090909090909091,50.23748629886738,50.208494461041376,50.27153662144451,51.81818181818182,0.5503224427407029,0.4496775572592972,35.2204744173303,31.83737083708675,0.43886929638209965,0.5611307036179004,42.869030180176495,48.473912645721846,0.47787009633127014,0.5221299036687297,39.2315916499108,41.008160096517706,0.8954832895152864,1.4952916987529914,1.1497581843063869,1.088641892628904,0.15550416152598068,0.6797750139831531,-0.5408724877750951,0.0005418509405737694,0.12308679661063829,0.6443669355038399,1.6007042324653455,6.237048645442184,1.2968041208322925,1.3591785476331242,1.0061985591206997,1.5129517337536826,1.6883061345916992,1.8777496519685162,2.8198925350181665,0.9724792745796577,Relax
86.25177974908824,696.1061946902655,48.221653929658586,,,,,,,58.98834630670706,59.24911959226207,0.06927341589183092,0.08474044155425753,691.0,45.9606,0.06651316931982634,64.0,0.8174776366662735,659.0,734.0,35.39823008849557,58.4070796460177,558.0,798.0,8.692307692307692,101.5625,,,0.058366010012194186,0.03232209050189616,0.012197528244204791,0.10288562875829514,1.8057622234790218,0.5672902106601397,0.31415554234332455,-3.4320043660504425,41.895454243021234,53.88549039069863,0.777490451311787,7092.324791077244,1.2861894294814729,4.557758725743291,277.2277925717682,0.5663716814159292,0.5765765765765766,0.84375,0.08823529411764706,49.166319299708206,49.168505843259055,49.167697071228226,51.35135135135135,0.5174536459696499,0.48254635403035023,30.1393908844038,29.10504429825874,0.5014267657156231,0.498573234284377,38.15712069840498,38.048393062696206,0.5074654373647599,0.4925345626352401,34.382762708045504,33.873173886255714,0.8523539274603613,2.2883847533404937,1.3373457623402485,1.779311046383485,-0.6161469056740572,-1.1497188072296423,-0.30686583259302314,0.005961135808051954,0.5475369430327032,0.6324445484088952,1.6094379124341003,6.219521413911406,1.3173510594668785,1.5440331760737798,1.3161443686654837,1.5366212149463294,1.7248549718789505,1.845993997371925,3.1240007876283236,1.0260446226642317,Relax
86.20077835161514,696.637168141593,48.10258048225514,,,,,,,57.78346278502675,58.039572884300426,0.06904968997071685,0.08294628169090476,691.0,47.4432,0.0686587554269175,65.0,0.8324627525562524,659.0,734.6,33.6283185840708,58.4070796460177,558.0,798.0,8.692307692307692,101.5625,,,0.057003859351416546,0.030139308664480165,0.009954001921076436,0.09709716993697315,1.8913459491058877,0.5870805440407623,0.3104035749347167,-3.5019250235226296,41.040175563659695,54.420073516528824,0.7541367166877255,7016.462473352304,1.3260195106162453,4.553088316745876,288.6483170083506,0.5575221238938053,0.5675675675675675,0.8412698412698413,0.05555555555555555,50.76693651469961,50.74944245722379,50.78359446727093,49.549549549549546,0.5346855278639427,0.46531447213605737,30.011334195269963,27.99686275860787,0.5078885033623377,0.4921114966376622,38.783171011941455,38.17604023209983,0.5176042229755129,0.48239577702448677,34.67574464897384,33.475620771893304,0.9083175981312933,0.8175943981866002,1.1813095773722768,1.1824524497140152,0.7798010414835881,0.044225055018776604,-0.4986021524312382,0.0012486580137133453,0.08673346528412323,0.6193649411263551,1.7047480922384248,6.184123183822911,1.2937317185825525,1.4555365736489325,1.4797396330325938,1.7149038010857767,1.7807459679981523,1.8414553504354707,3.959428249807307,1.0864001887033041,Relax
86.13471837023675,696.8938053097345,45.58554807640294,,,,,,,50.478248498027064,50.69551966678825,0.06541247422359055,0.07243320017113943,691.0,45.9606,0.06651316931982634,63.0,0.903073094506927,659.0,733.2,27.43362831858407,53.98230088495575,558.0,798.0,9.416666666666666,101.5625,,,0.045868806620901564,0.028547541081411196,0.006229988163601956,0.08064633586591471,1.6067515759096027,0.5687649181875364,0.3539843537203636,-3.5561844733349064,35.84714573216195,53.40094451562514,0.671282990540983,6013.8610937814765,1.4896846994351904,4.486123502648654,318.2022799212573,0.5486725663716814,0.5585585585585585,0.8387096774193549,0.05555555555555555,48.654598825831705,48.669710065957794,48.642998057677595,49.549549549549546,0.4983390683364752,0.5016609316635247,25.31041519053208,25.394633042975585,0.5126409297881616,0.4873590702118385,38.23451428334082,37.27979067374013,0.5081970399187097,0.4918029600812905,32.42294865986212,31.89569077528553,1.0947820050617354,1.7550451979575739,1.4700345761240228,1.6942202923777967,-0.23934778794791178,-0.5651953375668004,-0.37226214087553466,0.0023702023686203596,0.2674042579706128,0.6901750885079352,1.7047480922384253,6.166424068778664,1.2775351280488187,1.5299522788849567,1.4412291559366415,1.6933477427486083,1.8153193655379491,1.8002083255737014,2.742025608153032,1.0864001887033041,Relax
86.0407420251316,697.8849557522124,44.3359238840222,,,,,,,48.399933589092576,48.61744924053883,0.06352898643048539,0.06935230970400402,695.0,45.9606,0.06613035971223022,62.0,0.9160327421195834,659.4,733.2,23.893805309734514,53.09734513274337,558.0,798.0,9.416666666666666,101.5625,,,0.04794481212894917,0.02756787338634415,0.008460764930626917,0.08397345044592024,1.7391552644281516,0.5709520315569993,0.32829273109478985,-3.591104191983367,34.377728041977775,52.54955221103637,0.6541964031190701,5675.39461716761,1.528592935137233,4.460966173906262,321.30749701766143,0.5398230088495575,0.5495495495495495,0.819672131147541,0.05555555555555555,50.0517063081696,50.047679238119095,50.05688141059538,48.64864864864865,0.5229793494583903,0.47702065054160997,24.861055329009506,23.743562427671982,0.5146001784203028,0.4853998215796973,37.69675663606364,36.61160986219848,0.51711147236349,0.4828885276365099,31.930530319356425,30.85584817711697,1.0489935336566671,0.6094007279111238,1.267200255593813,1.2718471963198048,0.8531385891368428,0.009021640944888443,-0.49237457306308074,0.0008943855480870714,0.05370195334234627,0.6827313877963972,1.8941744746561247,6.110984577570784,1.26469256002023,1.4714359210255967,1.4431946078054854,1.6583991962003375,1.752452507809628,1.7955025995604057,3.4062196941893697,1.0260446226642317,Relax
86.48321099603844,694.1842105263158,46.18097639011834,,,,,,,41.01747954614696,41.16445272491295,0.0665255355708896,0.05908731273943608,688.0,44.477999999999994,0.06464825581395348,60.0,1.1258852786934934,658.0,731.4,18.421052631578945,48.24561403508772,558.0,798.0,9.5,101.5625,,,0.05822282959618336,0.02616743328659268,0.0071159478111665645,0.0915062106939426,2.2250111028663557,0.6362718896853797,0.28596346726796407,-3.6432396457142593,29.107663665618993,57.343115140200574,0.5076052041200143,5243.708038889115,1.9700349639511727,4.426608612844587,451.8717670722919,0.49122807017543857,0.5,0.7857142857142857,0.027777777777777776,47.104710471047106,47.08253550888908,47.12071011853412,50.89285714285714,0.4831496725666044,0.5168503274333954,20.25,20.944335238231567,0.42859591032619204,0.5714040896738081,37.540953016899245,43.34639201323755,0.43978801322862443,0.5602119867713756,30.16111448054462,34.040967077454575,1.1542484026817283,1.982889444150063,1.5254655027336652,1.694842865451858,-0.5044204830683743,-0.4049455579357253,-0.4145805313463687,0.0013863973539704692,0.26407094625246724,0.74898604909938,1.791759469228055,6.237501391525029,1.1877901393562764,1.5314905006836166,1.5003462713331377,1.6997078207612017,1.781106833181486,1.736986522611069,2.2732290045612653,1.0189397389543913,Relax
86.9272419765817,690.8771929824561,49.939457213121464,,,,,,,43.09559244859705,43.23183943092801,0.07228413055225809,0.06237807947105211,685.0,46.701899999999995,0.06817795620437955,62.75,1.1588066058654962,653.0,728.6,14.912280701754385,46.49122807017544,598.0,866.0,10.363636363636363,62.5,,,0.05769346083952168,0.02411790277065664,0.0047748053565252165,0.08658616896670354,2.3921425253324755,0.6663126631888233,0.27854220897486653,-3.724800860710445,30.56952682477717,61.4423049909775,0.4975322268470585,5900.734699497604,2.009920053495148,4.477876198904409,493.9764837373228,0.49122807017543857,0.5,0.7678571428571429,0.02702702702702703,53.90205371248026,53.66281951788186,54.17775675067422,47.32142857142857,0.6582645199102287,0.3417354800897711,24.834092350177464,17.893409600823908,0.5061695168408258,0.4938304831591743,43.71349122432747,43.17739602598729,0.5364107840244396,0.46358921597556035,35.54997509054329,33.04891552477782,1.1209172150416362,1.6650703667503435,1.505651967586167,1.4511018466282775,0.30236442122487084,0.5752772545308118,-0.5327614508354701,0.0014349911843357687,0.20924379626015316,0.7326957187745395,1.6168180197317228,6.286708764107807,1.0786382917014463,1.1766691956074156,1.3639132929304385,1.61655711488635,1.7508638853920282,1.723382602692268,2.171646699732764,0.9590021072511917,Relax
86.65442972683391,692.7368421052631,50.547804873704166,,,,,,,43.649853774248484,43.8442284876974,0.07296826413921738,0.06301072950241006,687.5,45.9606,0.06685178181818181,62.75,1.1580291914637564,653.6,728.6,15.789473684210526,48.24561403508772,598.0,865.0,10.363636363636363,62.5,,,0.04728816865390881,0.025166380559597887,0.0030469384569022694,0.07550148767040896,1.8790214406049808,0.6263210184723592,0.3333229759585421,-3.6822462799526887,31.002551279543237,64.5597839832554,0.48021460678344646,6287.95428735582,2.082402296544369,4.505479485737849,537.7577697245576,0.4824561403508772,0.4910714285714286,0.7636363636363637,0.02631578947368421,49.87767584097859,49.82542175638425,49.93552372218288,48.214285714285715,0.588309335810497,0.411690664189503,23.779399097297883,19.89223197273606,0.4555518130071216,0.5444481869928783,43.574354095210474,47.6365550092554,0.48042960016615055,0.5195703998338496,35.10116918453969,36.503029093535226,1.2065987836713172,1.3629953152772227,1.3793271055227105,1.501832924222561,-0.3207899476767917,-0.350517573951624,-0.41012014690972454,0.0002853296983353839,0.0925527141288045,0.8244063477457488,1.6035381903069121,6.269164904458685,1.0752608574038283,1.4429412830171215,1.105930415648057,1.421140297707753,1.6934298138339046,1.6932907657457406,3.0404659291217886,0.8990644755479922,Relax
86.71751197804647,692.2894736842105,49.46809531999182,,,,,,,40.87126346213377,41.04912685336333,0.0714557958778914,0.05903782307222728,688.0,43.7367,0.06357078488372093,58.5,1.2103392733582314,656.8,723.6,14.035087719298245,50.0,598.0,865.0,9.5,62.5,,,0.05484841263804252,0.029121779660212985,0.0031619402760137954,0.0871321325742693,1.8834155493930202,0.6294854839148012,0.33422548949310166,-3.5362689428159633,29.026115959800013,63.83846270455143,0.4546806851244957,5821.316589858521,2.199345678662798,4.471991328811997,561.6113883269255,0.49122807017543857,0.5,0.7857142857142857,0.02564102564102564,51.04761904761905,51.00328186853375,51.09333025028226,48.214285714285715,0.6283891885019232,0.37161081149807695,23.01164301578039,17.696095210929606,0.4546702677933206,0.5453297322066796,43.045791511995134,47.14243474393587,0.48443636518913696,0.5155636348108633,34.51431500971638,35.60590498288548,1.1874072377416733,2.296188645774495,1.6134634116117943,1.4687044679413703,-0.27889057745683843,0.8541043655486811,-0.5630431406133869,0.0008148197903264902,0.29487225657297894,0.7452938731715526,1.6247053845648887,6.241801610785318,1.0572348577327468,1.365038200061487,1.41670460532984,1.6051154212944927,1.7531122826492007,1.6733783288700095,2.392965870406073,0.8990644755479922,Relax
86.41499365894285,694.0796460176991,49.41047849988769,,,,,,,41.47137567045492,41.65745200553327,0.07118848504401715,0.0597501683105074,691.0,42.9954,0.06222199710564399,59.0,1.191435724064701,658.0,727.2,13.274336283185843,49.557522123893804,598.0,865.0,11.3,62.5,,,0.06254395028618104,0.03156413030952057,0.003382222780409939,0.09749030337611155,1.9814881535739997,0.641540216003743,0.3237668692828672,-3.455733919909599,29.456266800065713,62.45538948462074,0.4716369082498339,5779.596222464706,2.120275115259392,4.468867608506741,529.6904325522979,0.504424778761062,0.5135135135135135,0.7894736842105263,0.05555555555555555,49.71644612476372,49.6879990418455,49.74745552120293,48.64864864864865,0.5909794108791129,0.40902058912088707,22.64472971319781,18.838813680826636,0.45552326924187303,0.544476730758127,42.152681243736275,46.08499907388129,0.48017182989223267,0.5198281701077674,33.83513203624171,35.20460225979368,1.1814463898368455,1.388598084386584,1.350766299631131,1.4661385056155942,-0.34651743123692746,-0.3051471968720465,-0.41691461533635255,0.0002691099255133207,0.09342607205270959,0.7369789294340165,1.6247053845648889,6.227085599506745,1.072759284535364,1.219225322627305,1.3445209662501347,1.8159370132197847,1.7505580801960483,1.6838723610542055,2.4271888784479745,0.8449779245470145,Relax
86.47123970390179,694.2300884955753,49.074653198970665,,,,,,,41.402855319065,41.58828277093518,0.07068932046047936,0.05963852043461075,691.0,42.9954,0.06222199710564399,58.0,1.1852963478191079,658.4,727.2,13.274336283185843,47.78761061946903,598.0,865.0,11.3,62.5,,,0.06212707761201828,0.03620372363631201,0.0041586736299708505,0.10248947487830115,1.7160410966596094,0.6061800754252054,0.3532433323451146,-3.318593302558888,29.407356765231924,63.091993008024254,0.46610283434051286,5828.812826583732,2.1454493007211513,4.472550219546635,541.4426891206776,0.48672566371681414,0.49549549549549554,0.7636363636363637,0.05714285714285714,50.415335463258785,50.38775829997113,50.446638864319304,48.64864864864865,0.594947653523621,0.405052346476379,22.683088910519274,18.716230851784697,0.5129057746502504,0.48709422534974967,45.18487038862576,44.033249592639336,0.5275487677588208,0.47245123224117924,35.75048974880926,33.83211763239902,1.1254392441199348,1.7855001021833492,1.4554175512523768,1.3748372175868926,0.0665562179051058,0.5310242394317597,-0.5451303999181791,0.0007142449099296705,0.19311823748866963,0.7561880088511002,1.6789639750827106,6.262483829595242,1.0569115773302493,1.1346677713141649,1.4464791113817739,1.9385078091229715,1.7856941716893633,1.686191357212943,2.345126101632182,0.8449779245470145,Relax
85.62163738973032,701.0176991150443,51.777681054417116,,,,,,,44.534597305273316,44.72445939684199,0.07386073293125209,0.06352849202166111,699.0,42.9954,0.06150987124463519,58.0,1.1626394800315427,662.4,738.6,15.929203539823009,53.09734513274337,598.0,865.0,11.3,156.25,,,0.04694956892857344,0.031745457206345196,0.0039742734619243195,0.08266929959684295,1.4789381870735598,0.5679202455752557,0.3840053969388839,-3.4500056439954845,31.624968524409383,66.0142039310963,0.4790630900801076,6558.693939777402,2.0874077354462495,4.523787475066127,551.1942397403866,0.48672566371681414,0.49549549549549554,0.7636363636363637,0.05714285714285714,51.54223119054483,51.53496114522412,51.550266965988335,48.64864864864865,0.6165585482571251,0.38344145174287475,24.838033898195885,19.587525907351626,0.49365290989413485,0.5063470901058652,46.3818685939589,46.97443332696094,0.5166033368210409,0.48339666317895913,37.20353250831968,35.98797408552105,1.120240429266146,2.0008680112998247,1.4035406859522161,1.7894422650172275,-0.8943864626041229,-1.080503834338029,-0.3071329158716882,0.0018926776574651263,0.28364620267746016,0.7667824886400827,1.6582280766035327,6.28452121893748,1.1205308887221406,1.4728847835175605,1.2134814449631843,1.672528004690071,1.8575629594999432,1.748574639420892,2.4067775513058334,0.9656890566251594,Relax
85.51146187908982,702.0973451327434,52.437371590472765,,,,,,,45.32649414446888,45.520837401229095,0.07468675384402514,0.06455870323209831,699.0,42.9954,0.06150987124463519,59.0,1.1568812585270642,664.4,737.2,15.929203539823009,51.32743362831859,598.0,865.0,11.3,156.25,,,0.02860304411319818,0.020450880927481967,0.0024886966831248335,0.051542621723804985,1.3986216151090738,0.5549396432814331,0.3967761096257298,-3.8897293202826373,32.188092811699306,65.84154000051669,0.4888721134324427,6658.020037675366,2.0455247344317793,4.530315207817397,538.7219944965451,0.4690265486725664,0.47747747747747743,0.7547169811320755,0.058823529411764705,51.488009245882694,51.302138065973764,51.68294384892119,50.45045045045045,0.6339595746252764,0.3660404253747236,25.633944275103257,19.478216060535445,0.49234741867692583,0.5076525813230742,46.199344425259554,46.91192774035062,0.519672753845358,0.48032724615464206,37.35959397813941,35.91747391741782,1.0781180210300538,1.5192796158102944,1.3638450511516957,1.3260303231397979,0.2684631944758893,0.4728666069897516,-0.5248899067810698,0.0007829495820457097,0.14988731978514505,0.7676328775812826,1.6696567724271554,6.280182944639489,1.0861006349483895,1.2572333238702051,1.1151190768878938,1.748605192264963,1.8387448297591624,1.7326675975968604,3.1685492753136844,1.0260446226642317,Relax
84.99153615573593,706.1081081081081,54.45921766061636,,,,,,,45.5800993257524,45.788701346247116,0.07712589196366858,0.06455116263694552,701.0,44.477999999999994,0.0634493580599144,60.0,1.1948025227283199,667.0,748.0,16.216216216216218,50.45045045045045,598.0,865.0,11.1,156.25,,,0.03974214626452226,0.027068879391007227,0.002976288753115755,0.06978731440864525,1.4681858709572335,0.5694752205509573,0.38787678850203666,-3.6093705729247554,32.377501223656935,70.23123964817056,0.46101281119135606,7143.705383798979,2.1691371166362714,4.560893645311938,609.3647546728947,0.4774774774774775,0.4862385321100917,0.7735849056603774,0.05714285714285714,50.0293427230047,49.96415670654473,50.09724156401224,52.293577981651374,0.6194504003850698,0.38054959961493007,25.482769857945733,19.97326194342202,0.446004532711243,0.5539954672887571,46.9029296452875,52.27372392711251,0.4764061370810251,0.523593862918975,37.74424703808394,39.569390985132216,1.023777521843547,2.007286755270008,1.4188474090163201,1.4657102861485227,-0.09314025343923493,0.22063720583089896,-0.4766536211086099,0.0016189103534573427,0.28366495218911614,0.7182814724103825,1.6863989535702286,6.316762262668544,1.0791181090258608,1.35597012525947,1.1761972721445064,1.824618878056487,1.842888769257955,1.7402777691613158,3.0733260149154162,0.9793752600144298,Relax
85.1957152559749,705.1875,55.43416373509218,,,,,,,47.276358299408535,47.46312849727214,0.07860911280346317,0.06704083424537238,699.5,42.9954,0.06146590421729806,59.75,1.1725557071045742,665.4,741.6,17.857142857142858,50.89285714285714,598.0,865.0,9.333333333333334,156.25,,,0.0475350217065743,0.03865108164180778,0.0040844108965897175,0.0902705142449718,1.2298497140933056,0.5265841465971495,0.428169507674658,-3.2531805187825253,33.5615000167496,69.81633562942645,0.4807112793041515,7361.194392949115,2.0802507514438595,4.5739183966066745,580.9419386246842,0.4642857142857143,0.47747747747747743,0.7735849056603774,0.05714285714285714,52.52183713722176,52.346515638304524,52.7042445105511,52.25225225225225,0.657194335949309,0.3428056640506911,27.22331888122921,19.661568419820245,0.44636653205174476,0.5536334679482555,46.64476000813026,51.94792666223217,0.48597788808468273,0.5140221119153173,38.18928336015982,39.275719963050484,1.113491414838132,1.5309116741934936,1.33552787183008,1.5954928437477207,-0.44337163075037367,-0.7882378115073383,-0.3301894379017039,0.0008791097719515902,0.15621457562657245,0.8235821442026023,1.7801986468269793,6.318471997931148,1.0730526004983711,1.1545700456389203,1.1185937942826218,1.52624079358765,1.8483002693477855,1.7236108748286425,2.6046721875453924,1.0332592292408862,Relax
84.5025833030815,710.3423423423424,59.003003851960486,,,,,,,48.755605738305526,48.97846882737245,0.08306277175790906,0.06863677248569289,704.0,48.925799999999995,0.069496875,66.5,1.210178869864885,665.0,761.0,18.91891891891892,53.153153153153156,598.0,865.0,11.1,156.25,,,0.035240862553163416,0.03129728936932554,0.002547289252750059,0.06908544117523903,1.1260036655986883,0.5101054861005089,0.4530229356129932,-3.4642237868051584,34.633007439968985,76.3236065104301,0.45376534238114347,8304.222227627426,2.203782234122329,4.626269072689311,672.8024322873167,0.4594594594594595,0.4727272727272727,0.7692307692307693,0.05714285714285714,50.24523160762943,50.180639017001916,50.31190045564272,55.45454545454545,0.638766721992336,0.3612332780076641,27.679853900022763,20.81548470897867,0.3960165195405289,0.603983480459471,48.030326084911,59.31593956885521,0.4374655075661259,0.5625344924338742,39.19876615245362,44.45033796612692,1.0687212439146916,2.1826348704275933,1.4673849449603078,1.4455111660587958,-0.40653665816714835,0.3537277801424179,-0.5100217307062572,0.0007744428568893059,0.26994998586958263,0.7445748399876622,1.7227665977411033,6.269508996922266,1.092261163970986,1.1655887727239496,1.1096445641987391,1.4999397717353145,1.877114529002114,1.7187894256551648,2.907818072416029,0.9793752600144298,Relax
84.3256837792798,712.0,59.82717533939664,,,,,,,49.36340197500021,49.569374978708545,0.08402693165645596,0.06933062075140478,704.0,50.4084,0.07160284090909091,73.5,1.2119743159050453,667.0,765.0,20.72072072072072,55.85585585585585,598.0,865.0,10.090909090909092,148.4375,,,0.025665777654682573,0.016619457387667378,0.0019513155486046243,0.04423655059095457,1.5443210362408162,0.5801939190966368,0.37569514724020325,-4.097181138242588,35.05084118662358,76.61818292652514,0.4574741901701902,8436.846853743942,2.185915668002994,4.633150275795608,669.9235460520431,0.46846846846846846,0.4818181818181818,0.7735849056603774,0.05555555555555555,52.053333333333306,51.96009821060653,52.145860022991386,53.63636363636364,0.6538079853157343,0.3461920146842659,28.352952372846126,20.631542609769042,0.40989756627483054,0.5901024337251696,49.053445547998066,58.856651576793396,0.4521376427693966,0.5478623572306034,40.06326514643616,44.100827573248395,1.108550452738998,1.936558769710361,1.5188066048351359,1.7606459868877433,-0.004673644825855305,-0.2998924249105519,-0.3751190070576697,0.004673297543499396,0.3789229658144169,0.7217379303573361,1.658228076603532,6.287527014940286,1.0933846300693888,1.4134232943335874,1.3530741146413652,1.8848732973487292,1.828200701499363,1.7065998288169137,2.6492412983898115,1.0405862137653317,Relax
83.68529373019426,717.0818181818182,60.23503382099308,,,,,,,50.35743797725444,50.57873862151629,0.08400022465179881,0.07022551220854711,712.0,55.5975,0.07808637640449438,74.5,1.1961496899067854,672.8,767.0,22.727272727272727,57.27272727272727,598.0,865.0,13.75,226.5625,,,0.04530602250572054,0.029322005665784474,0.002095918651889592,0.0767239468233946,1.5451201743197138,0.5905069327312795,0.38217540780688347,-3.5294169982396837,35.76456906313609,77.25409344577439,0.46294723642365554,8680.09282896117,2.160073376234334,4.645494479710866,667.4980418293464,0.4727272727272727,0.4862385321100917,0.7735849056603774,0.05555555555555555,51.50963040083292,51.42141725201611,51.595211520640625,55.04587155963303,0.6484461488368727,0.3515538511631272,28.806265393589744,21.210256952710402,0.40523595240765226,0.5947640475923478,49.17852342629639,59.57908851046361,0.4481768709837093,0.5518231290162907,40.30091867635717,44.71880358270812,1.0955355333640466,1.922121733829551,1.4475119537924943,1.4965315503406946,-0.24609448691504454,0.1167302467073239,-0.4744971425662329,0.0008551666056334362,0.22539041004771307,0.7033472921376407,1.5599578551707305,6.299363804355076,1.1175154478331997,1.1329685417527333,1.2061721911462169,1.6384274316307934,1.8352809576247469,1.71725508820696,2.8870093489832263,1.109677044031308,Relax
83.30809711982981,720.5818181818182,62.16940186919912,,,,,,,50.51405472510242,50.743948920257935,0.0862766729613936,0.0701017614523777,713.5,59.303999999999995,0.08311702873160476,84.25,1.230734737243429,672.8,775.0,23.636363636363637,56.36363636363636,598.0,865.0,12.222222222222221,132.8125,,,0.062341058309256146,0.042858849655219786,0.0030057886123185545,0.10820569657679448,1.454566765341627,0.5761347163918693,0.3960868143832197,-3.1498431288857933,35.88139038569817,80.5904107517192,0.44523151142932627,9084.530877110588,2.246022517116322,4.665272615327078,724.0315088480587,0.4636363636363636,0.4770642201834862,0.75,0.05555555555555555,50.8342022940563,50.77870746715875,50.887432307780415,55.04587155963303,0.6384810090173012,0.3615189909826989,28.672964424504293,21.57566358792376,0.43546374731653187,0.5645362526834679,53.181351763915174,60.552110860758056,0.46905398981888574,0.5309460101811144,42.72233060312939,45.453643357561525,1.0895138163689377,2.5207243784626967,1.5740209138654881,1.833376093813117,-0.3729116156262524,-0.16292077836789742,-0.3971108534659388,0.006199279995686459,0.5603106926602655,0.6693556649117869,1.5353299402803784,6.285638577043013,1.1216030462700142,0.9876092296281591,1.1924155452829293,1.581508209041597,1.843012676620287,1.7231379949550785,2.9459863595796127,0.986379594694496,Relax
82.93427925155277,723.9357798165138,61.59985498259712,,,,,,,50.80390769455669,51.038803880553786,0.08509022029303484,0.07017736809117692,721.0,60.7866,0.08430873786407767,78.0,1.2125023010621119,678.8,775.0,23.853211009174313,59.63302752293578,598.0,865.0,10.9,132.8125,,,0.059367581248352834,0.048177599246027665,0.002602237944395411,0.11014741843877592,1.2322652472818643,0.53898295656699,0.43739199637081455,-3.032861111886481,36.08988432758986,79.66412162412449,0.453025572765003,9032.29544310682,2.2073809076529285,4.662768244725969,703.3962443921328,0.44036697247706424,0.4537037037037038,0.7346938775510204,0.02702702702702703,50.622083981337475,50.56764161882968,50.67491739155088,56.481481481481474,0.638040265181954,0.3619597348180461,28.82877262113532,21.71362034325955,0.42955336382438375,0.5704466361756162,52.21212080006001,60.1686522676322,0.46505767359616573,0.5349423264038343,42.17347323425699,45.23133882671646,1.0890588776248507,2.2312330334022814,1.4961566507939041,1.791038535446058,-0.33900227567603913,-0.39282834740859096,-0.3678390467343946,0.005049442717294601,0.44859848442295785,0.7204764262481951,1.6685268288041069,6.348235356787776,1.145616016134388,0.9594770808714952,1.213619989843037,1.527119080203569,1.8342622904589825,1.7116917134812781,3.0127106711907916,0.9314015125839806,Relax
82.52672195804222,727.5092592592592,61.81710971609546,,,,,,,51.20428209313062,51.44335180291759,0.08497089065098204,0.07038299711163289,725.5,58.5627,0.08072046864231565,76.25,1.2072644550247218,680.0,777.8000000000001,25.0,58.333333333333336,598.0,865.0,12.0,132.8125,,,0.0584136132186338,0.054762157257835245,0.0022056880238445794,0.11538145850031362,1.0666784535825808,0.5062651658062983,0.47461834829975214,-2.9047558845636416,36.37594290680823,79.62895736917342,0.45681802335001265,9099.869443945727,2.189055485741645,4.666005271493798,697.2488238115066,0.4444444444444444,0.45794392523364486,0.7346938775510204,0.027777777777777776,50.61054819433619,50.593646648722924,50.62974360097312,57.009345794392516,0.6350444320081557,0.3649555679918443,28.988937382491926,21.976080478728395,0.42661610627434915,0.573383893725651,52.01033523763177,60.296731919489616,0.46260407501023076,0.5373959249897692,42.103642728966335,45.379753158089926,1.062273842518613,2.026339917306867,1.375380231830021,1.4973528114652486,-0.5337249231477603,-0.08397866269808052,-0.4398064566593858,0.0008885799502412443,0.23397772656136454,0.6972568942372184,1.6094379124341003,6.2940130807670105,1.16421805392434,1.3184672427848578,1.2436894532950158,1.4621442185078497,1.8504816912108415,1.7384286790538932,2.670219987041733,0.8756335650952644,Relax
81.58676331538165,735.9065420560747,54.041656314135125,,,,,,,52.22718875531229,52.45946366426651,0.07343548837485026,0.07096986610472703,732.0,51.891,0.07088934426229508,69.0,1.0347418193869047,695.4,778.6,26.168224299065418,60.747663551401864,600.0,865.0,11.88888888888889,132.8125,,,0.05357409150110227,0.05277956203800441,0.00198696458671847,0.10834061812582514,1.0150537335365866,0.49449682333252093,0.48716319835564376,-2.9416312458192873,37.094442494412135,66.35224416310786,0.5590533215911454,7732.40044471146,1.7887381424617201,4.595284447096007,474.74715988993614,0.45794392523364486,0.4716981132075471,0.74,0.027777777777777776,51.709401709401725,51.766003694203945,51.65994501297961,54.71698113207547,0.6307283128238119,0.3692716871761882,29.468708181811465,22.54825513257754,0.42503277392303085,0.5749672260769692,43.25803880168767,50.312646367611855,0.47403528281371377,0.5259647171862862,37.011232638707654,38.98580635331386,1.0158641696925423,2.281834657859771,1.271263754045274,1.7441322310599507,-1.4648286346675317,-1.395821531143726,-0.2927682992341785,0.002157376981246806,0.3335638512666772,0.5908686308063702,1.7160476474923587,6.227265584451113,1.337246946424771,1.0324702851437133,1.3663608597870531,1.609482818369876,1.954689719544891,1.808069998172571,2.5362194349140506,1.0080698297422277,Relax
81.22972975454326,739.0093457943925,45.14786927986052,,,,,,,45.96953462030638,46.185583099635856,0.06109241992241541,0.062204266944542876,732.0,48.925799999999995,0.06683852459016393,62.5,0.9821258721187293,700.4,775.8,24.299065420560748,58.87850467289719,650.0,861.0,10.7,78.125,,,0.049523597654680826,0.039666709300096165,0.0013027571346753224,0.09049306408945232,1.2484927166509565,0.5472640157893957,0.43833977442608923,-3.2272429997469545,32.65813900280732,55.11212657806693,0.5925762809487438,5654.42535293293,1.6875464512331657,4.459358585053279,372.01709450691953,0.4766355140186916,0.48571428571428577,0.7647058823529411,0.05714285714285714,50.66269948606978,50.64981952001849,50.674782364032765,54.285714285714285,0.5655337747043513,0.4344662252956486,24.5608088900454,21.527391189565247,0.4140911618867098,0.5859088381132902,35.46460685758843,42.18540217176511,0.4534522084727482,0.5465477915272515,30.50386592627762,33.489078278015775,1.0226428062952064,2.8306084483462146,1.3764178053011593,2.0029123535298936,-1.6131456573844076,-1.5020557321894032,-0.2786714200634975,0.006245528216416174,0.6411347906864668,0.5875577315265557,1.8658674413817766,6.171190818095975,1.462742788826206,1.3736166262386351,1.356441999250315,1.7432315474053852,1.9630234863490685,1.8264966347972869,3.226457494521135,1.0710741941011168,Relax
81.07709672781777,740.4485981308411,44.82318168025058,,,,,,,44.80650222355494,45.015524925038136,0.060535169886742214,0.06051264373605769,738.0,48.925799999999995,0.0662951219512195,64.0,1.000372255272514,702.0,776.8,22.429906542056074,58.87850467289719,650.0,861.0,10.7,78.125,,,0.05657360870978587,0.05050837585801109,0.0012583864212965302,0.10834037098909349,1.1200837039152742,0.5221840039248258,0.46620087596982396,-2.9856160978793587,31.830782933166514,54.620010550718916,0.5827677917346641,5461.965760759753,1.7159493269581774,4.444319083326891,374.9006813718187,0.4766355140186916,0.48571428571428577,0.7254901960784313,0.058823529411764705,50.86254869226489,50.90534264298822,50.82347916369916,54.285714285714285,0.576951994285929,0.42304800571407086,24.179881444429512,20.70518683578494,0.42339038963068004,0.57660961036932,35.54039723893936,41.47560387334991,0.4623260819546164,0.5376739180453834,30.395612368961046,32.77903658257668,1.0653889739364752,1.3580986193519984,1.2815872826965538,1.5987314397393004,-0.702199290572409,-1.4102259968512567,-0.2664792876425511,0.00047937756250894834,0.12031905130617698,0.5110732372458902,1.9459101490553135,6.18647560336139,1.4385532042593403,1.356873776513296,0.7667859726064519,1.245889872761123,2.036225966256861,1.8232077111630802,2.6426466719314794,1.0710741941011168,Relax
80.59858259890136,744.377358490566,44.44846193282812,,,,,,,44.50746325858491,44.7202374065661,0.059712270162219666,0.05979153281722094,747.5,51.149699999999996,0.0684276923076923,66.25,0.9986743498407447,705.0,782.0,22.641509433962266,58.490566037735846,650.0,861.0,9.636363636363637,109.375,,,0.060978982396288225,0.06454116140884046,0.001967473329537977,0.12748761713466666,0.9448076400424937,0.4783129826003055,0.5062543552027087,-2.7404520973414215,31.621983126455188,54.05213193790755,0.5850274909189701,5369.722017061504,1.709321383221128,4.436921913430226,369.56985972062023,0.4528301886792453,0.46153846153846156,0.6875,0.02857142857142857,50.369738339021616,50.32395482642345,50.417011615536325,53.84615384615385,0.566054154887594,0.43394584511240597,23.791663860074376,20.83116655398828,0.42962428352093596,0.5703757164790643,35.42886492921674,40.82191196967974,0.46441283152445867,0.5355871684755413,30.17654502592579,32.40652709609811,0.9910201569799719,2.952362199795962,1.3584423239895216,1.8486593607841302,-1.4863276312400586,-0.8479430885120296,-0.3339576909538784,0.0055083010008435,0.6215838167493585,0.550059247511824,2.0476928433652555,6.207925968914485,1.42668081452456,1.1889374460814353,0.9864823090455244,1.2072372701896985,1.9633789126767818,1.8310840780537223,3.2697115407643866,1.0790061106374942,Relax
80.77488140479092,743.0849056603773,43.078691655538,,,,,,,41.975389615027204,42.17566829745554,0.05797277178878246,0.05648801273620785,744.0,45.9606,0.061775,58.0,1.0262844979076935,705.0,776.0,20.754716981132077,55.660377358490564,650.0,861.0,8.833333333333334,109.375,,,0.058657953408732734,0.05415786527761733,0.0016204080698995003,0.11443622675624958,1.083092051506233,0.5125820299342342,0.47325804784680797,-2.9158520662653764,29.822701054205304,53.37098630798553,0.5587811490330868,5000.3692587547075,1.789609405632951,4.405972186521442,382.0528763387134,0.4528301886792453,0.46153846153846156,0.6875,0.02857142857142857,50.470695414515646,50.459105716227306,50.4821618330797,52.88461538461539,0.5842175532288666,0.41578244677113346,22.79528460010973,19.230509613632186,0.4122421995134126,0.5877578004865873,34.26742351129661,40.9170608106767,0.4531639314447722,0.5468360685552278,29.102244879927767,31.96887834585861,1.0860956790993688,1.310717337057707,1.2992592056109666,1.5877414391372875,-0.60932368820432,-1.2967950868582179,-0.2799050753582732,0.0004305594384882029,0.11060914394993435,0.5662814152729618,1.9021075263969205,6.181936464177095,1.429463850717069,1.3053771555538092,1.045543976442903,1.7022268456440575,1.9982391161125888,1.8247829898421202,2.986462130530927,0.9520642152683771,Relax
80.72791855207974,743.4905660377359,41.51264759266434,,,,,,,40.28824713415635,40.48125555466445,0.0558348007210052,0.05418797355945404,743.5,40.771499999999996,0.05483725622057834,51.75,1.0303910084355579,707.0,772.0,20.754716981132077,55.660377358490564,650.0,861.0,8.833333333333334,117.1875,,,0.058184086519764124,0.04862631241743918,0.0012765630847500558,0.10808696202195336,1.1965556018370247,0.5383080940691667,0.44988138724412263,-3.023590486817757,28.624570313648825,51.569174531931,0.5550713303724659,4637.447740324871,1.8015702582386601,4.373249138522055,371.6219643145818,0.4716981132075472,0.4807692307692307,0.74,0.02631578947368421,50.21712158808934,50.2019397929739,50.23259617551121,50.96153846153846,0.5552954292084726,0.4447045707915275,21.33061631335795,19.088735099327764,0.44894997567487893,0.5510500243251212,34.55327016965844,38.28121317940895,0.47399825069078644,0.5260017493092135,28.713443469262792,30.247570895690625,1.004005530423817,2.713355230014491,1.3086094655958695,1.8777250197421314,-1.57151851148949,-1.3139887278882814,-0.290253945428582,0.005135786836402784,0.5454624083985012,0.5827311385881089,1.9459101490553132,6.170190119857881,1.4336462237332983,1.4295087374943762,0.9955815024941922,1.7053476017788787,2.015708474952395,1.8298842525273853,3.2963230482749606,1.0155351629529357,Relax
80.7750961594915,743.1869158878504,41.00831274246021,,,,,,,39.70183684738785,39.88795741136707,0.055179002570934006,0.05342106541253883,742.0,40.0302,0.05394905660377359,51.5,1.0329071901658957,707.2,774.4000000000001,19.626168224299064,55.140186915887845,650.0,861.0,8.23076923076923,109.375,,,0.06508582858549167,0.06406275476499253,0.0018722860298596654,0.13102086938034385,1.0159698692985055,0.4967592483038129,0.4889507684384471,-2.7478921328379218,28.20504517325786,50.851202432773796,0.5546583723471522,4505.86212990799,1.802911575585332,4.360748009037083,366.72088599392356,0.48598130841121495,0.49523809523809526,0.7692307692307693,0.02564102564102564,50.73368716827973,50.708595926687,50.758152776370544,50.476190476190474,0.5605365062454737,0.43946349375452626,21.1181483676053,18.6988667851188,0.44667184615721733,0.5533281538427829,33.98564499484513,37.82619096794306,0.4734629968048619,0.5265370031951381,28.293110965320093,29.836792238701836,0.9804129657901471,2.8102644156207566,1.2857331796869214,1.713620383632851,-1.44320004840554,-0.6663330946052461,-0.3477413009368323,0.004475317153925611,0.5168216489918999,0.5970010416050808,1.9459101490553135,6.237968827700894,1.4434646151785673,1.366411733129333,1.0454845442515843,1.6312916213626858,2.0365041308300587,1.8349159704675038,3.230364665662231,0.9450654653833384,Relax
80.53060131245581,745.1981132075472,39.37110853001602,,,,,,,38.03995393317525,38.22124957944101,0.052833075972980446,0.05104676630143404,747.5,40.771499999999996,0.054543812709030096,51.0,1.0349935911904418,710.0,776.0,17.92452830188679,55.660377358490564,650.0,861.0,8.153846153846153,109.375,,,0.061733378207489864,0.0925624675534791,0.0034912526248688756,0.15778709838583785,0.6669374730294721,0.3912447775453277,0.586628872071248,-2.379871537490531,27.026504763046212,48.863571567923955,0.5531012960335366,4148.823542846015,1.8079870851348832,4.324895073834402,353.37882531348237,0.49056603773584906,0.5,0.7884615384615384,0.02631578947368421,50.50439310120402,50.48206108136575,50.5263900805852,50.96153846153846,0.5416910733912952,0.4583089266087048,19.892016179671373,18.29709413666973,0.4379455505634232,0.5620544494365765,32.336667920940755,36.63316167278531,0.4622497784434726,0.5377502215565275,26.84541301527606,28.954897582193073,1.077988185009148,0.888291538810746,1.1970307299994607,1.381184863541062,-0.1078437825027514,-0.7352561750127524,-0.2926872817136717,0.00016297936621984294,0.04508733545145713,0.582705503593794,2.367123614131617,6.137079034911403,1.4588472033245068,1.2996509635498974,1.1613603032723674,1.9354388200295307,1.9682418401248662,1.8424285376559557,3.4678004035321837,0.9520642152683771,Relax
80.59602271449704,744.7169811320755,38.744278770759266,,,,,,,37.977687685070585,38.15751285848945,0.052025507343558174,0.050996134971085405,746.5,37.8063,0.05064474212993972,49.0,1.0201853017499545,711.0,772.0,16.9811320754717,57.54716981132076,650.0,861.0,8.153846153846153,109.375,,,0.05749085758002048,0.12447708031996706,0.005385029684631885,0.18735296758461945,0.4618589818482312,0.3068585372369631,0.6643987652010156,-2.083633673840247,26.98143609545077,47.48569767326245,0.5682013199238112,4025.11003531712,1.7599395934773396,4.311747867231602,334.2878378362775,0.49056603773584906,0.5,0.7884615384615384,0.02564102564102564,50.708306503541536,50.7448819034846,50.67430821671587,50.96153846153846,0.5485466383169795,0.45145336168302047,19.984729747407723,18.130005940004967,0.4733105953940878,0.5266894046059121,32.66900718742834,34.46197111170861,0.491674240602224,0.508325759397776,27.08000603479593,27.53474685092323,0.9487325734108575,2.3320592597635565,1.1372956676837307,1.8081266632214672,-1.4678549726614687,-1.5788197998912494,-0.21234393262984624,0.006082925934661525,0.4726389827400679,0.5912222306319168,2.03688192726104,6.094718421744674,1.4534132498850818,1.36539511679612,1.0807747021531195,1.941559090342643,1.9680728590835703,1.8955033605458391,2.5538158454648046,0.8885932675838187,Relax
80.67940631357226,743.8584905660377,33.34878842069801,,,,,,,33.87849437257183,34.037344821399365,0.04483216746685422,0.0455442732754076,745.5,35.5824,0.04772957746478873,48.75,0.9843645368047207,713.0,769.0,14.150943396226415,56.60377358490566,665.0,826.0,8.153846153846153,93.75,,,0.0516610407363926,0.11255534621041455,0.0043364816006895845,0.16855286854749674,0.45898344659538254,0.3064975469215166,0.6677747295573164,-2.184310211998618,24.06803733679631,40.6601917171598,0.5919312310236572,3074.3971671833415,1.6893854346401835,4.194730081249852,274.76294262658877,0.5094339622641509,0.5192307692307693,0.7962962962962963,0.02631578947368421,49.10714285714287,49.107618089804284,49.10753008694485,49.03846153846153,0.471546874222082,0.5284531257779179,16.5291118473298,17.498076817401742,0.581375696239698,0.41862430376030196,31.002581536417328,26.307624912826803,0.5528739981000577,0.44712600189994234,24.843224432264655,22.34137216982965,0.9542606770769412,0.8479822288067296,1.0647714491493345,1.1703428802024682,0.0037350942617475624,-0.4470484038894118,-0.3755027788710943,5.357462354183068e-05,0.03330709299309096,0.5037231949592389,2.341805806147327,6.1324542708012775,1.5351885223910484,1.3802005372094477,1.1571019428686706,1.762293362777945,2.0870931479983312,1.9144141592614472,3.4710220351631125,0.9520642152683771,Relax
81.14111863136199,739.7196261682243,34.96704496838696,,,,,,,33.3172288140694,33.47550095846939,0.04727067355170442,0.04504034722811656,739.0,35.5824,0.04814939106901218,50.0,1.0495184087345482,707.0,765.0,13.084112149532709,56.074766355140184,659.0,826.0,8.916666666666666,101.5625,,,0.06104345997811245,0.1292740327928852,0.004452940809645893,0.19477043358064355,0.4722020243300716,0.3134123534865869,0.6637251374159931,-2.045820842507881,23.670753731350477,43.58077256825539,0.5431467212812207,3240.834732633886,1.8411231455859938,4.21762699457771,320.9502763117366,0.5046728971962616,0.5142857142857143,0.7777777777777778,0.05405405405405406,50.03448275862068,50.037474302650864,50.031235719659215,48.57142857142857,0.4812262034267065,0.5187737965732934,16.42051562324805,17.049088790062317,0.5647731206619695,0.43522687933803034,32.751555742176,28.7509884023687,0.5457407761954334,0.4542592238045665,25.906541035674707,23.63568025977429,0.8899447215311249,1.7951971186280398,1.0695086706950208,1.517612325496175,-1.5226790873368223,-1.8314182216448218,-0.25038749218603207,0.0007346213081326308,0.1801121922514438,0.5361439425934806,2.268683541318364,6.140862663910585,1.4705219013049224,1.510426022978257,1.122490574127882,1.6648564507152475,1.9600493962143373,1.9129491636859084,3.373629734208141,0.8820611010244491,Relax
80.87202416452756,742.1495327102804,33.493396628352116,,,,,,,32.47873034045977,32.63257843324913,0.04513025361080061,0.043763054356242226,742.0,34.099799999999995,0.045956603773584896,48.0,1.0312409468367778,710.2,767.8,11.214953271028037,56.074766355140184,659.0,826.0,8.916666666666666,125.0,,,0.04570053960686345,0.08774007492093923,0.0036707422044421397,0.1371113567322448,0.5208627830332179,0.3333096593603755,0.6399183627967499,-2.433376529347246,23.074717497752342,41.56690879243788,0.5551222876104331,3013.241873004649,1.8014048837861967,4.186004103863883,299.515330010372,0.514018691588785,0.5238095238095238,0.7818181818181819,0.05405405405405406,50.31556802244038,50.31493657894711,50.31566345315478,46.666666666666664,0.46684732059812534,0.5331526794018745,15.766299200389115,16.848767087859944,0.5785625666110861,0.4214374333889141,31.617162697332844,26.98449424260596,0.5522454845852355,0.4477545154147647,24.982205342061036,22.49493145033106,0.8787936637734357,1.1429347989611975,1.0144259333188455,1.216920357161291,-0.5082451474288732,-0.8884015762627144,-0.32282941771788665,0.00012335298877064232,0.06229296891813289,0.5539093850274992,2.0476928433652555,6.152499229310927,1.5064196121502793,1.3304311731641405,1.1575266899332415,1.601528884197318,1.9527459467117725,1.8881379851137803,3.9737155915721334,0.9450654653833384,Relax
80.99674210434883,740.7735849056604,31.795262605754854,,,,,,,31.258522647355523,31.404034294392336,0.04292170138572648,0.042197134568906614,740.0,34.099799999999995,0.04608081081081081,46.75,1.0171709957138597,710.0,767.0,8.49056603773585,55.660377358490564,659.0,823.0,9.636363636363637,125.0,,,0.037979831043050076,0.05127765328331651,0.002225456345498579,0.09148294067186516,0.7406702259404496,0.415157522966798,0.56051601431617,-2.970500230222712,22.206005606179716,38.89392567242928,0.5709376264356075,2713.326758031064,1.7515048119057253,4.140472207691175,272.49159187665407,0.5094339622641509,0.5192307692307693,0.7777777777777778,0.05555555555555555,51.0054844606947,50.96868133343413,51.0429201775896,46.15384615384615,0.4780837272771578,0.5219162727228424,15.356187677936214,16.044709168685245,0.5415865731276905,0.4584134268723097,28.623037816919947,26.333612747658165,0.5259720445234835,0.47402795547651666,22.968356426492836,21.804722569334803,0.9232157795322117,1.470606423660906,1.062300463242083,1.5564704345727705,-1.232906822324587,-2.006054017130828,-0.16396857556183655,0.0008761404552599248,0.14934694494407183,0.5785500453737842,1.791759469228055,6.076792624292881,1.5074410669885778,1.3563967532128367,1.223232166366971,1.7592207911311817,1.9183414748024061,1.8802319992528689,3.8590636507484213,1.0155351629529357,Relax
80.96747856885102,741.2710280373832,32.130209758447705,,,,,,,32.43353144916771,32.58759844368781,0.04334475319171295,0.04375394453907087,739.0,35.5824,0.04814939106901218,45.5,0.9906478981113915,710.4,767.8,9.345794392523365,55.140186915887845,659.0,823.0,9.727272727272727,46.875,,,0.03879219285669003,0.038794250404338614,0.002101711460146644,0.0796881547211753,0.9999469625620513,0.4867999891881283,0.4868258091817746,-3.249483228788649,23.042911842115828,39.38920966806686,0.5850056915662589,2851.441709189682,1.7093850784983995,4.162034607876245,269.32530904175354,0.5327102803738317,0.5428571428571428,0.8070175438596491,0.05555555555555555,49.946751863684774,49.953159219720284,49.94033338518169,45.714285714285715,0.4374602035783149,0.5625397964216851,15.240766134973411,17.282801801074907,0.5584338694870185,0.4415661305129814,29.43493914610745,26.174304111855268,0.5275889392520415,0.4724110607479586,23.438180335896398,22.178699621879566,0.9157278598244083,1.5428639762884164,1.0494870239581089,1.5389267142670968,-1.4091677574199615,-2.0384395172451586,-0.18277197612299806,0.0007672009377575894,0.14843952804743632,0.5985291700592934,1.765783982824794,6.096424462955785,1.5217937826636225,1.3140825740431636,1.0876670150200396,1.471972870860416,1.913628828836729,1.8919073963693545,3.823051994711177,1.0710741941011168,Relax
81.16271689760765,739.7289719626168,33.94045009581861,,,,,,,37.24206892901101,37.41864490495228,0.04588227767498315,0.05034555944213185,739.0,38.547599999999996,0.05216184032476319,50.0,0.9113470618540076,707.2,767.8,13.084112149532709,55.140186915887845,644.0,823.0,10.7,62.5,,,0.05920732911439627,0.09599124110658552,0.0025937875316402095,0.15779235775262201,0.616799287433469,0.375223046018605,0.6083389745470132,-2.343498330149851,26.45897755510321,40.22824201385894,0.6577214471859817,3343.905416470084,1.520400473906446,4.231224094731743,244.65215288917733,0.5514018691588785,0.5619047619047619,0.8305084745762712,0.08823529411764706,50.27588445309965,50.278858797752235,50.272549916043644,44.761904761904766,0.44943170610601346,0.5505682938939865,17.738175135646202,19.632819946396367,0.5649526400605049,0.4350473599394952,30.236886897287384,26.533792158043614,0.5300686518461297,0.4699313481538702,24.788224889876712,23.339770193104684,0.8848146355815275,1.2816139092474383,1.0307436210731435,1.3259766485966722,-0.817325745897671,-1.2958953136125233,-0.26963965091726494,0.00024224325223964763,0.08612685110737858,0.5985103599871882,1.91959284073794,6.133807640525879,1.5222002663348124,1.4394122061394106,1.2431278055436317,1.6963311345141197,1.864771970966961,1.8986003862811471,3.630859233851119,1.0710741941011168,Relax
80.9924446837028,740.7169811320755,33.18655916022146,,,,,,,34.76602063044015,34.928202129930824,0.04480329195302199,0.04693563333367283,738.5,35.5824,0.04818199052132702,45.0,0.9545688162873676,711.0,768.0,12.264150943396226,55.660377358490564,659.0,823.0,9.636363636363637,148.4375,,,0.030857724100070358,0.038532078438136004,0.002720577988928845,0.07211038052713521,0.8008320690412024,0.42792346780722595,0.5343485661351675,-3.256264178426629,24.6979685807285,39.66739810634763,0.6226263823635132,3077.8313669596373,1.6060996262380698,4.195214931303529,254.8391730897666,0.5566037735849056,0.5673076923076923,0.847457627118644,0.08823529411764706,51.00169779286927,50.968971443164904,51.035148174392376,45.19230769230769,0.4494330672676127,0.5505669327323871,16.55962420606681,18.328335565876806,0.587209262012175,0.41279073798782484,30.396960796553163,25.485824429676242,0.5487122709294681,0.45128772907053244,24.476482381189335,22.19746755235456,0.949543892313458,1.4444730702805284,1.1034823454701055,1.587124398361035,-1.1558573199621573,-1.9800696126002655,-0.16517752193400026,0.000830383968329249,0.14758913133958151,0.6076896581403948,1.9740810260220094,6.152264322406088,1.5210772866224893,1.3190997365482202,1.2525870661255842,1.7600284049876291,1.897675188667176,1.8708407428735943,4.111256513036705,1.1424770583220525,Relax
80.88023659354214,742.122641509434,33.27739196230855,,,,,,,34.32769255558078,34.487394841164836,0.04484082562772143,0.04625609115733252,740.5,34.099799999999995,0.046049696151249146,46.75,0.9694036937795435,713.0,770.0,11.320754716981133,57.54716981132076,659.0,823.0,9.636363636363637,156.25,,,0.01686063655646411,0.032309960252695065,0.0009461286808862927,0.05011672549004546,0.5218402135006562,0.33642733821093496,0.6446941602182827,-3.432379729332341,24.386270757645608,40.27638829652496,0.6054731267885222,3085.6437477157524,1.6516009641981635,4.196315893214404,266.082086979841,0.5471698113207547,0.5619047619047619,0.847457627118644,0.05555555555555555,51.03989089669281,51.06096753723486,51.01794576814991,45.714285714285715,0.46257607228584585,0.537423927714154,16.588196684111544,17.879941490181327,0.5696592118795734,0.4303407881204266,30.398914893258905,26.421457710066946,0.5409275212247554,0.4590724787752446,24.487367109576798,22.558653940529826,0.9344089379552124,1.0162421953454797,1.035792235884442,1.37757285919824,-0.8231246781064279,-1.6931532169580188,-0.16368192062955356,0.0001682183201913331,0.058703154533985696,0.6075713484261231,1.8870696490323797,6.182878591253603,1.505377384074312,1.333423985293714,0.8886287865315583,1.5417911962003321,1.9693823569660582,1.8658470768150404,3.211171904664512,1.0790061106374942,Relax
80.61042062603438,744.1037735849056,35.174647050798505,,,,,,,36.766055773537325,36.925422315618995,0.047271158001707024,0.04940984991435761,742.5,34.8411,0.0469240404040404,45.0,0.9567152720286017,717.0,773.0,13.20754716981132,58.490566037735846,659.0,845.0,8.833333333333334,148.4375,,,0.03267460514253538,0.030752429833975574,0.005680872700509182,0.06910790767702013,1.0625048270636543,0.4728055911523479,0.4449914759060405,-3.4817862688603705,26.110216517551258,41.762495662448664,0.6252072847511512,3425.6799785044122,1.5994695269714045,4.241716899396527,267.1913567294484,0.5283018867924528,0.5428571428571428,0.8421052631578947,0.05555555555555555,48.11836603409457,48.07279378477832,48.16274703677972,47.61904761904761,0.4342471447795791,0.5657528552204208,17.213869631558957,19.648228536318094,0.5229110166102826,0.47708898338971745,30.19954079983987,28.84603576637266,0.49797708881504416,0.5020229111849559,24.57976375205324,24.679411095589735,0.784307129253432,1.685356215131022,0.9610480597996436,1.5089440399490752,-1.4817065523925645,-2.21550056805147,-0.1749079065716458,0.001123606785999979,0.19732180869347854,0.6435779097251078,2.054123733695546,6.1900001714626915,1.5064791346823199,1.6838661675779238,1.2821018408645675,1.794045166124829,2.0338098264576363,1.8882997053406336,3.2136485518326197,1.205948006006611,Relax
80.64428470685284,744.1792452830189,34.03493923821206,,,,,,,35.691402192631635,35.86257346906626,0.04573486757920564,0.04796076001697391,742.5,30.3933,0.04093373737373737,43.75,0.9535893001491114,718.0,772.0,13.20754716981132,56.60377358490566,659.0,850.0,7.571428571428571,70.3125,,,0.03209066882176792,0.03381283052369543,0.005453317361313799,0.07135681670677715,0.9490678042845112,0.449721138116859,0.47385564665308333,-3.3869149472307427,25.358668890777526,41.180339115533386,0.6157955333887024,3280.6979291801945,1.623915643715428,4.222936354450379,267.493587612884,0.5471698113207547,0.5619047619047619,0.864406779661017,0.05555555555555555,50.05015045135406,50.056176903302685,50.044566311829286,47.61904761904761,0.4673774082851738,0.5326225917148262,17.336461132981686,18.50701530189607,0.5340228174812104,0.4659771825187895,30.093300756023165,28.110737793196837,0.5156990421695727,0.48430095783042704,24.55768347185712,23.798352828110605,0.8229822395958906,1.5497605512304766,0.8303313719577692,1.5469893360869968,-1.266013690930908,-2.164267332682644,-0.03756858531454004,0.0011755118919541568,0.18452912096418608,0.6147960430468031,1.9924301646902063,6.114528473349485,1.500355859309115,1.4125438581256566,1.0781923478848239,1.6281581592662555,1.9553404760972255,1.8692325277005084,3.567462411355007,1.205948006006611,Relax
80.6928238498662,744.1320754716982,35.63921742278491,,,,,,,41.87941874340801,42.079544855405636,0.047893671832642815,0.056279550531215916,743.0,33.3585,0.044897039030955585,45.5,0.8509959902056823,718.0,773.0,16.037735849056602,58.490566037735846,643.0,850.0,7.571428571428571,93.75,,,0.02458333729551161,0.026489246830100482,0.00357677102006187,0.05464935514567396,0.9280496894904866,0.4498376463909222,0.4847128892827817,-3.6310164083371497,29.754731516500826,40.80501185729508,0.7291930613955037,3814.340129041445,1.3713789295885999,4.288389526930726,223.8365339308298,0.5849056603773585,0.6,0.9047619047619048,0.08823529411764706,50.392275196137604,50.394740452060496,50.38993014752037,48.57142857142857,0.46695772108732725,0.5330422789126729,20.33304434431038,21.724233189972615,0.5241921819800843,0.4758078180199156,29.543284593516706,28.146817370716548,0.5043233441090149,0.49567665589098503,25.359794526782093,25.141456161017988,0.8671063703643905,1.3593611987084846,1.0147723779684659,1.339612404959264,-0.8659066419048393,-1.3207270693839077,-0.26103479538813873,0.00038357377751308853,0.10272652852067722,0.5881811356060402,1.91959284073794,6.109903709239361,1.47523104435243,1.5273033927235484,1.432578952252737,1.9223805021544569,1.9709668270513394,1.8920426407637365,3.6745234005586482,1.0790061106374942,Relax
81.0493448890244,740.8490566037735,40.96846463244165,,,,,,,48.32045805522405,48.54181385473448,0.05529934102940043,0.065223081037231,742.5,36.323699999999995,0.04892080808080807,48.75,0.8478492605682666,713.0,773.0,19.81132075471698,62.264150943396224,612.0,850.0,7.571428571428571,117.1875,,,0.031205397855129807,0.0332376970009408,0.005557098762085056,0.07000019361815567,0.9388555968317098,0.44579016488657525,0.47482292952287025,-3.404070595362018,34.32424574777786,45.21367868164168,0.7591562276863504,4875.517492829799,1.3172519219761385,4.394990828940486,238.23122057201627,0.5754716981132075,0.5904761904761905,0.8870967741935484,0.08823529411764706,48.58604901696741,48.43367709401373,48.7226127529579,50.476190476190474,0.453277642039313,0.5467223579606871,23.11405666222646,25.38501602247945,0.46289486257470663,0.5371051374252934,30.761748984624678,33.13595538585967,0.45937775198294917,0.5406222480170507,27.207947515180862,29.51601749724394,0.8153052108997262,2.0163086629885467,1.0475177195276322,1.47975759267101,-1.5032984543017474,-1.571704116479168,-0.2856281227782271,0.0010404400973171195,0.23334561601501524,0.6475140012286968,1.8352445811677938,6.11702528944845,1.4264404091892993,1.3623718668472622,1.3834215671208216,1.7122781043853372,1.916268564729161,1.8971564596554764,3.513181158446896,1.0790061106374942,Relax
81.37121509451127,736.6296296296297,53.522567970011806,,,,,,,65.64952256554584,65.9149888270638,0.0726587226703363,0.08912147967568694,740.0,40.0302,0.05409486486486487,54.25,0.8152773375704868,703.4,772.6,22.22222222222222,63.888888888888886,458.0,907.0,8.307692307692308,273.4375,,,0.03456744112437522,0.02056922396976673,0.006932198829467913,0.062068863923609864,1.6805418218588848,0.5569207963419224,0.3313935952667336,-3.8839593023407044,46.60893558145232,53.539010772372485,0.8705602682801853,7839.518697020176,1.148685549336551,4.60125951019155,245.99795199999286,0.5833333333333334,0.5981308411214953,0.90625,0.11764705882352941,47.10029565612918,46.70180462120338,47.375406751066116,47.66355140186916,0.2872504906159534,0.7127495093840465,24.996886598587462,39.375310720546985,0.5620561870216754,0.4379438129783248,40.13841408154579,35.430684293456494,0.4434899396748015,0.5565100603251988,33.43603314243688,37.45496284768019,0.7312818055276157,2.3802735822448486,1.033680086764649,1.3434825176367395,-1.524498555632114,-0.990993739495972,-0.3698458726832929,0.0009359872840785779,0.2920126314756223,0.6911370541938635,1.5793604571968223,6.155305210476769,1.230750261935133,1.4179994206590245,1.5696809396813465,1.8856770314625058,1.7464595431678263,1.9056713461750892,2.5598725942797103,1.1258145836939113,Relax
81.74314819143316,734.1666666666666,44.99210730368348,,,,,,,46.35297326861699,46.566982565756746,0.06128323355779816,0.06313685348733303,734.5,43.7367,0.059546221919673244,59.0,0.970641236818893,696.0,769.2,22.22222222222222,64.81481481481481,610.0,850.0,8.307692307692308,140.625,,,0.032525835765264965,0.024416708473274765,0.006927943119934944,0.06387048735847467,1.3321138596902207,0.5092467133171056,0.3822846745514152,-3.7124876075385047,32.92782915164232,54.294854535767286,0.6064631618075481,5616.576083768706,1.6489047694496817,4.4564417563005305,358.1081784024134,0.5740740740740741,0.588785046728972,0.8888888888888888,0.11764705882352941,49.14596273291925,49.109394040230335,49.18310147244476,47.66355140186916,0.44741626794258377,0.5525837320574163,22.02710594305151,24.47939063861141,0.5503288703727108,0.4496711296272892,40.278178499345,36.40878418507039,0.5226523292051767,0.47734767079482315,32.46170866922684,31.022895834147782,0.8479964276532369,1.4827809909637657,1.006452504441286,1.4056962844547105,-1.0256718283177033,-1.5523254281527414,-0.2307466291741929,0.0006743590624750767,0.1363635916179746,0.5534156085833124,1.987874348154345,6.141325812288555,1.385549986222998,1.4582411861597333,1.5181445052551386,1.956410395497084,1.9932931896797508,1.8720646177811138,3.7632984059041745,1.188359838343573,Relax
82.3308263611268,729.1018518518518,45.002998823196776,,,,,,,45.543960482687474,45.75820815022567,0.061723884953649874,0.0624658411811875,731.0,47.4432,0.0649017783857729,60.0,0.9881222086582406,690.4,766.6,21.296296296296298,60.18518518518518,610.0,850.0,9.818181818181818,117.1875,,,0.016749483416967147,0.020414717980262932,0.004958587579061529,0.042122788976291604,0.8204611708650908,0.39763472039789266,0.48464782310006005,-3.8914991686453293,32.355939277970116,54.90476598124678,0.5893102119590415,5581.024502439236,1.6968991538017033,4.453684039170943,372.67140373303283,0.5740740740740741,0.588785046728972,0.873015873015873,0.11764705882352941,49.87971130713713,49.88994931248749,49.87035280637609,45.794392523364486,0.44446146567843386,0.5555385343215661,21.571076022181114,24.116364912726244,0.5819829769830948,0.4180170230169054,41.88564288783558,35.49825696183101,0.5465343267594749,0.4534656732405252,33.31454938072859,30.345718840818034,0.8522597528578119,2.0438440736587764,1.1477756157209151,1.4833072758353503,-1.2178944500106752,-1.2177889046528012,-0.3358330439984177,0.0009432016317093856,0.2428386244158821,0.6787863054497909,1.9042374526547452,6.196881367844111,1.3574520806834622,1.6746200262884317,1.4327270909385832,1.8709215221960127,2.0241894915981566,1.8540279567574314,3.1516242598143176,1.000724074394588,Relax
82.19435161681537,730.2385321100918,47.18735295931347,,,,,,,47.20993304144561,47.428972601369516,0.06461909483598634,0.06465001635154494,731.0,51.891,0.07098632010943912,68.0,0.9995217090837152,687.0,768.8,22.93577981651376,61.46788990825688,610.0,850.0,9.083333333333334,117.1875,,,0.01598781709372395,0.01952897111840143,0.005853553629152582,0.04137034184127796,0.8186717567859588,0.38645600645658273,0.47205244745925856,-3.9358562175908025,33.537348151139355,57.99865570588561,0.5782435427677687,6110.7781854543055,1.729375126635206,4.493066629554376,401.20573022415056,0.5688073394495413,0.5833333333333334,0.8571428571428571,0.11764705882352941,49.56432598667351,49.577115375535506,49.554272515262035,48.148148148148145,0.47047044551905215,0.5295295544809479,23.004063029992125,24.405262187280563,0.5718765573732757,0.4281234426267242,43.86004517420709,37.94918314017275,0.5464653469747046,0.4535346530252952,35.02064018954634,31.904210720814568,0.8092510864137913,1.978109335242312,1.1170985057332812,1.457110768920785,-1.0422222616856907,-1.1987006834865461,-0.32811250261560826,0.001153371288797691,0.24885369387668346,0.6111073832081151,1.8417698898027164,6.263417810936065,1.3475692274665456,1.6253035282318287,1.4217299760955775,1.843764830020989,2.0136153022863432,1.8602821064584516,3.3862234819135533,0.9314015125839806,Relax
82.21420900869549,730.1018518518518,47.76166292264881,,,,,,,47.352426933036895,47.575217709976364,0.06541780821607933,0.06485728917538122,732.0,53.373599999999996,0.07291475409836065,71.25,1.008642344566428,685.4,769.2,24.074074074074073,60.18518518518518,610.0,850.0,9.818181818181818,164.0625,,,0.023170601844727863,0.028044080167103975,0.010700561102152485,0.061915243113984324,0.8262207819498121,0.3742309757561865,0.4529430679206987,-3.5739777150227607,33.64075905915061,58.56882201616432,0.5743799841128127,6189.878842425955,1.741007743409792,4.4986522584034265,407.8750906101279,0.5555555555555556,0.5700934579439253,0.8688524590163934,0.08571428571428572,49.90911451571019,49.912728970410456,49.90647950737757,46.728971962616825,0.46923779077279604,0.5307622092272039,23.04425602724151,24.508469849005724,0.5772002742550159,0.42279972574498415,44.49689978631909,38.08323544248061,0.5504179009138452,0.44958209908615465,35.43311887516241,32.02341265470495,0.9247951887678864,1.1470824044180334,1.1579474006593151,1.3795588736930822,-0.0465049128293753,-0.8047578121168568,-0.30680422593858847,0.0007972942979594037,0.11068500195860626,0.6310782009998483,1.7805861686299296,6.231467826117348,1.3367858801647203,1.5041123271338375,1.3930168681375932,1.8312382679973416,2.007567887296149,1.8354274847653296,3.0811069964917785,1.000724074394588,Relax
82.77510450976486,725.3888888888889,52.05906662095935,,,,,,,49.7913403122818,50.02157883851172,0.07176711336273786,0.0686408919063393,731.0,54.856199999999994,0.07504268125854992,70.75,1.0455445925828628,676.4,768.0,27.77777777777778,62.03703703703704,599.0,850.0,9.818181818181818,179.6875,,,0.03078640814964225,0.030852740642378113,0.008660388998632087,0.07029953779065246,0.9978500291593302,0.4379318714914202,0.4388754408920242,-3.47852969489819,35.37059760236914,64.69974872789153,0.5466883302920953,7189.43669851113,1.82919580424499,4.563664974153868,473.3940356350573,0.5648148148148148,0.5794392523364486,0.8709677419354839,0.08571428571428572,49.169921875,49.140990686477004,49.200408116071785,50.467289719626166,0.4922645435628336,0.5077354564371662,24.81858706999541,25.205569914544306,0.4886711748080969,0.5113288251919033,45.22837194980827,46.26501762911257,0.489498108729149,0.5105018912708511,36.47991154992804,37.25434612860007,0.9139481307213653,1.7332912200621342,1.1528584698542947,1.5163126533296691,-0.8953823327504722,-1.1974714194731293,-0.2903097994909676,0.001151634151147846,0.1992832142455304,0.6194891746239719,1.7346010553881064,6.238457525211454,1.315899808400824,1.4721757317944422,1.5043486883037958,1.8423965846821098,1.9814057392493036,1.8455806948108182,3.707601363921437,0.8756335650952644,Relax
83.19446966488962,720.9,53.65399683291814,,,,,,,51.143170152142595,51.3432761727857,0.07442640703692349,0.07094350139012706,729.0,55.5975,0.07626543209876542,69.25,1.0490940759696015,675.6,763.6,29.09090909090909,61.81818181818181,566.0,850.0,10.0,195.3125,,,0.040160278917796235,0.033234899324583976,0.009957991766733284,0.08335317000911349,1.2083767284978513,0.48180865722809674,0.398723879619098,-3.4041547706917967,36.30517875011046,65.12444437522508,0.5574739116533918,7427.839023130449,1.7938059146734526,4.577832593058113,467.282454040404,0.5636363636363636,0.5779816513761468,0.8571428571428571,0.1111111111111111,47.54406580493538,47.35755674703904,47.711695877118196,50.45871559633027,0.45957075162309763,0.5404292483769024,24.629194510219413,26.70812749097312,0.5009045935060737,0.4990954064939265,46.0915738879411,46.00826090730069,0.4910940748314342,0.5089059251685656,36.952878140205506,37.6170449782298,0.9334282306439492,1.6691712543062223,1.1752274154982683,1.4718376242363373,-0.6373090441037164,-0.8609101523846419,-0.3223009125199962,0.0010847786131636717,0.18495681648312418,0.6320370019109793,1.8101086078962514,6.281181986173259,1.3153794828210277,1.4569412422243297,1.4176615984010514,1.902191239483407,2.0139195889864436,1.8286424559866545,2.7960770933398345,0.9247308700260899,Relax
83.55615112991612,718.1181818181818,54.04071380873374,,,,,,,54.46798571537145,54.71314314330494,0.07525323153900614,0.07584821982569163,723.0,56.3388,0.07792365145228215,73.5,0.9921555405248422,670.8,761.4,31.818181818181817,63.63636363636363,597.0,850.0,11.0,164.0625,,,0.034340061067155106,0.026107964146545783,0.006874412619394502,0.0673224378330954,1.315309798741947,0.5100834457642545,0.3878047941649438,-3.6455148714847456,38.68803453666118,65.90167744999934,0.5870569010328214,8009.824651620617,1.7034123919515796,4.610593118721793,449.03093607489944,0.5363636363636364,0.5504587155963303,0.8333333333333334,0.08333333333333333,48.99447513812153,48.94987326673476,49.04043792902707,52.293577981651374,0.4993830730076659,0.500616926992334,27.34290144185981,27.376659428817856,0.4656866849206362,0.5343133150793634,44.97212193288637,48.17197670406885,0.47432471996787345,0.5256752800321265,37.21643461164475,39.17920890637554,0.829133974600314,1.5378658890977364,1.1403761898062665,1.3826032961704093,-0.28639554770626674,-0.792961511427936,-0.34249139792920624,0.001352407592063212,0.1904796771998933,0.5915448932610441,1.8827312474337814,6.342590054374743,1.3519425493796997,1.3131691166569546,1.5706646620680587,1.9870905951740976,2.0467601945974163,1.8551973257636927,3.9292470335042524,0.986379594694496,Relax
83.68138791661634,716.9549549549549,52.968152933864175,,,,,,,54.68247184676939,54.920873402372244,0.07387933170388937,0.07627044275076528,726.0,51.891,0.07147520661157025,67.0,0.9686495716998847,671.0,753.0,30.630630630630627,59.45945945945946,597.0,850.0,8.538461538461538,164.0625,,,0.029073967676478237,0.024624567709186994,0.006072265355317822,0.05977080074098305,1.1806894650837363,0.4864242626172998,0.41198323268074716,-3.704010647034948,38.834922011505306,63.720265760251905,0.6094595110074095,7774.095806509033,1.6407980873857304,4.5976199984543396,418.20836074852707,0.5315315315315315,0.5412844036697247,0.8135593220338984,0.05405405405405406,48.58501245189041,48.485630524008016,48.68355578022447,53.21100917431193,0.534636187024769,0.4653638129752309,28.401770199385737,26.49796599429591,0.4497410956307566,0.5502589043692433,42.73255548899529,47.26733512624832,0.4727413150696994,0.5272586849303006,36.28175746211019,38.3167272334938,0.8298924757459609,1.072531495429161,1.1504815258837764,1.1831522721884775,0.6142626501724049,-0.01798918185093079,-0.4695386602221613,0.0014985062865312214,0.1303688666248272,0.5706254029953257,1.5602476682433286,6.2919434563427465,1.2853191640799568,1.3250488429571274,1.3599681711678804,1.8734894530743809,1.9227700028826769,1.820886875967927,3.603345790214137,0.9181643062635279,Relax
83.7118597350423,716.7636363636364,53.924671767083176,,,,,,,54.74050543957205,54.99229242012116,0.07523354845491285,0.07637176701274574,722.5,54.1149,0.07489951557093426,67.75,0.9850963438145549,671.8,753.2,29.09090909090909,59.09090909090909,597.0,850.0,8.461538461538462,156.25,,,0.04047985041805776,0.037472237260707024,0.012416811242919407,0.09036889892168419,1.080262439000526,0.44794006456954344,0.41465855740016644,-3.2841549599070334,38.88542288326125,64.65160427584165,0.6014610668801541,7897.979552214689,1.6626180064939398,4.604486114979963,429.96368567093964,0.5272727272727272,0.5370370370370371,0.8275862068965517,0.05714285714285714,50.42518961158354,50.33755752961741,50.516846029916195,53.70370370370371,0.5788360209539497,0.42116397904605035,29.585093844329407,25.23601556271278,0.45287592323745285,0.5471240767625473,43.50798019890081,47.82139264442308,0.48633863883818257,0.5136613611618174,37.20364309288623,38.23442216075433,0.9078649391822606,3.414429374853676,1.408350786025545,2.188448496561392,-1.749920751282513,-1.6826481765541206,-0.2715291122197314,0.013536009045662857,1.117919359118,0.560758662662526,1.600305428870828,6.324408236192925,1.260190309659162,1.1657715063679213,1.498982924300614,1.6981213769137828,1.9261592854698248,1.815303379022459,2.938721763471096,0.801433420689278,Relax
83.95168930027256,714.9545454545455,53.084386060022155,,,,,,,56.90834414237971,57.16878783403146,0.07424861677922864,0.0795971499225859,718.5,50.4084,0.07015782881002088,65.75,0.9328049666532144,671.8,752.2,30.909090909090907,57.27272727272727,597.0,850.0,9.166666666666666,140.625,,,0.05211758196542609,0.0430361571969932,0.014859841871005567,0.11001358103342486,1.2110184867776108,0.47373771016136157,0.39118949490352234,-3.14571465157118,40.42443754965864,63.365299218815686,0.63795859954931,8047.210257263093,1.5674998357361378,4.612615458669908,397.30038446745925,0.5272727272727272,0.5370370370370371,0.8103448275862069,0.05714285714285714,49.36112979152657,49.343687560648284,49.3802836538861,54.629629629629626,0.5724767211610099,0.42752327883898994,30.58730673552893,26.432741341276255,0.43913568528385616,0.560864314716144,41.99048155206402,47.454826984362874,0.47770869333549676,0.5222913066645032,36.7340705225242,38.40996237260998,0.9096777413500745,1.4575798989266207,1.2717805139596763,1.4436840470865013,0.08906315247150864,-0.5226592781420387,-0.38206236018113526,0.0017850608651868002,0.20358736718544962,0.559839569909875,1.5533484457830569,6.301769827141352,1.26764411754893,1.8136185756636602,1.4814081492452158,1.6211014791675455,2.0419910546823776,1.8397817699384182,3.1438581231140246,0.863082145357684,Relax
84.14250087380424,713.5675675675676,51.708909311754994,,,,,,,56.707302720356765,56.9668274775831,0.07246533007101487,0.07947012350023484,713.0,45.9606,0.06446086956521739,62.5,0.9118562659689429,672.0,750.0,28.82882882882883,56.75675675675676,597.0,849.0,10.090909090909092,171.875,,,0.04882696555131411,0.036420094250797355,0.014027765736937502,0.09927482553904898,1.34066005472364,0.49183632694583185,0.3668613271596412,-3.3126346168003193,40.28163001208316,61.33172527687335,0.6567829264583293,7761.436175373018,1.522573075083502,4.596912200463429,373.52813421994244,0.5315315315315315,0.5412844036697247,0.8135593220338984,0.08823529411764706,50.033564555829045,49.990087225344936,50.07645510239356,55.04587155963303,0.575638412456994,0.42436158754300607,30.562013959287867,26.240682050880704,0.42429725081070463,0.5757027491892953,39.95032259752569,46.5354945153857,0.4699062779873779,0.5300937220126224,35.56729518036252,37.77648504219857,0.835956232606327,0.9961121224331766,1.4457510814190568,1.124854601227703,0.8154959310590191,0.22876662328647712,-0.8221489558901347,0.0019941853389093037,0.12776618989201283,0.6033322973332713,1.5347143662381642,6.316762262668544,1.2695244795684668,1.4883837149867016,1.3576264557998379,1.4291217890126686,2.066153097128603,1.8331003766657925,3.7775485447386776,0.9793752600144298,Relax
84.38421150772385,711.5225225225225,49.63610248541549,,,,,,,56.24734337160855,56.504743060415755,0.06976040942378504,0.07905209124259042,712.0,45.9606,0.06455140449438203,62.0,0.8824612774595475,672.0,746.0,28.82882882882883,59.45945945945946,597.0,837.0,11.1,140.625,,,0.0466011790595133,0.04425885472609065,0.011574256238054045,0.10243429002365799,1.052923292930168,0.45493729735179883,0.4320706934745067,-3.117699820742586,39.95488698722349,58.079501752079516,0.6879343965066457,7290.254024465658,1.4536269811162723,4.569712771270388,337.70372318645036,0.5405405405405406,0.5504587155963303,0.8333333333333334,0.08571428571428572,49.93303571428574,49.89061558699295,49.97519419770789,54.12844036697248,0.5708132431453907,0.42918675685460933,30.186803727225826,26.17539638948738,0.44296995082728613,0.557030049172714,38.6553860840053,43.347314224370315,0.4840371157499172,0.515962884250083,34.68055645869574,35.80601225082937,0.8842217408716568,3.122818643160562,1.3394272802633687,1.993504280356691,-1.362294080247553,-1.2363817425699026,-0.2905491561202735,0.01173640667602151,0.9175962960105447,0.5355701333176017,1.5735059032080372,6.276309785230047,1.290376077906959,1.2749345237025282,1.454330496926247,1.5139274851651312,2.128253365364587,1.82835288515357,3.922372572605082,0.9793752600144298,Relax
84.38989171232492,711.4774774774775,49.52260215788468,,,,,,,55.23371829203278,55.4859162829163,0.06960529844664319,0.07763241991561323,712.0,44.477999999999994,0.0624691011235955,62.0,0.8966009113499804,672.0,746.0,26.126126126126124,55.85585585585585,597.0,837.0,9.25,140.625,,,0.04971212211899749,0.04809575925098121,0.010840279089108442,0.10864816045908714,1.033607180616102,0.4575514385972253,0.4426744000796248,-3.0345612710174725,39.23446766399918,58.082050616662386,0.6755007312490398,7159.1189456881175,1.4803832975146338,4.561829688055957,343.93479047322614,0.5225225225225225,0.5277777777777778,0.8070175438596491,0.08333333333333333,49.674721189591075,49.64919918504037,49.7006469066232,54.629629629629626,0.5742526461333078,0.4257473538666921,29.731983211485797,25.600494547975384,0.43784082570778565,0.5621591742922143,38.43262673939054,43.54833872545787,0.4805832121637662,0.519416787836234,34.358824367092296,35.72004428082453,0.8697693394780402,0.9658146155441728,1.1550149094165567,1.1678448935313794,0.6265906244617083,-0.002076519259979648,-0.48671589360076734,0.0009773987748854537,0.09741971334382493,0.5467981218926341,1.6218604324326578,6.258291767212029,1.2736072148961959,1.628031653604527,1.3349687040318752,1.891377788015641,2.104264628883643,1.8415301055368232,3.1871038143870756,1.1017971675162335,Relax
84.52248924837718,710.3571428571429,47.63976254713047,,,,,,,51.98726455273133,52.222903150165955,0.06706452243939935,0.07318468614763586,711.5,43.7367,0.06147111735769501,59.25,0.916373711080891,672.4,743.6,23.214285714285715,55.35714285714286,597.0,837.0,9.333333333333334,140.625,,,0.05499350035424979,0.06230579460554636,0.01585747257699537,0.13315676753679154,0.8826386165590184,0.41299816277873336,0.4679130903979861,-2.775700846189033,36.92716895073066,56.28483706010779,0.6560766785430211,6529.610853125891,1.524212081765724,4.5218574092497175,343.1601146689259,0.5,0.5090909090909091,0.7857142857142857,0.05405405405405406,49.83986203498397,49.79909192051453,49.88143065474866,54.54545454545454,0.5938492718260517,0.40615072817394837,28.456745485672876,23.533728213701362,0.4328633205524633,0.5671366794475367,37.03111651217189,42.38725389483061,0.48130621713559,0.51869378286441,33.02340044403675,34.28203360640378,0.8268915228229328,0.8330344377374763,1.2834379949624948,1.0331224248623267,0.9048422722328118,0.3206024633898519,-0.8004864610159763,0.001434764687080101,0.090962414176473,0.5548792774975273,1.4939250253122562,6.292983132107279,1.2279428055307393,1.7059182495388414,1.3659316291435406,1.7754267451595012,2.142878903831229,1.8386617074019322,3.05317638929503,1.1548191385633435,Relax
84.11434190136934,713.9636363636364,47.73165189012563,,,,,,,52.41349360543147,52.64397277486661,0.06685445792902388,0.0734119931827119,713.5,40.771499999999996,0.05714295725297827,54.0,0.9106748779131054,680.2,745.2,21.818181818181817,51.81818181818182,587.0,837.0,8.461538461538462,148.4375,,,0.05307354349953265,0.047455003997120444,0.010450540440208713,0.11097908793686181,1.1183971979594216,0.47823012863222697,0.427603117662298,-3.0479733011699843,37.22491013770817,55.33569057160449,0.6727106818977721,6471.2602352119375,1.4865231471855298,4.517958974850301,329.0311396007446,0.4909090909090909,0.5,0.7407407407407407,0.02702702702702703,51.548786783686104,51.63280277160411,51.47548567940996,55.55555555555556,0.6548880918508425,0.3451119081491574,30.130964139901,21.87305546912812,0.42702100999193726,0.5729789900080627,36.16012772930835,41.88655886601886,0.49803471460614346,0.5019652853938568,33.282351459894585,33.41342820777313,0.9065049211605382,0.9792354754103015,1.6152100636472833,1.2219344803220655,0.6701370113692859,0.005626239808790512,-0.901614926338769,0.0013534465725818766,0.1098969212138061,0.5425958825320083,1.3388921222253065,6.255229686425318,1.180292357164548,1.421024549970768,1.3537184580436519,1.7783582819134005,2.0370755488355785,1.849933605716217,2.4048747967436133,1.048028319362902,Relax
83.76739639222534,716.5636363636364,45.87228526531991,,,,,,,47.85768274963945,48.07872762759868,0.06401704320094884,0.06678776359976071,719.0,38.547599999999996,0.05361279554937413,54.0,0.958514550428489,682.8,746.2,19.090909090909093,50.90909090909091,597.0,837.0,7.333333333333333,140.625,,,0.04502713984487934,0.05100574208881837,0.012267634396782441,0.10830051633048016,0.8827857021758796,0.4157610819460782,0.47096490226485915,-2.975817062618756,33.996794336296034,55.53601593181978,0.6121576019791026,5931.473051393659,1.6335662528195432,4.4801326715633865,362.8870457690772,0.509090909090909,0.5185185185185185,0.75,0.058823529411764705,50.04193458205199,49.97606010883609,50.10698718140439,56.481481481481474,0.6363173896150196,0.3636826103849805,27.119078974855405,20.502145325866827,0.41590697761135453,0.5840930223886456,35.81564891309032,42.44394372008323,0.47598824781565485,0.5240117521843453,31.766374923102198,33.33036394548187,0.9334605919822055,2.923166630470342,1.4293922750421966,1.8733123765880668,-0.9393999446438013,-0.7046616973305824,-0.3481372574116848,0.008083325722478503,0.7449428074525408,0.6495669196716571,1.474847758461336,6.147046645244501,1.214350770140754,1.3293190643086175,1.2732106480411793,1.5447454588732623,1.9189010014707133,1.8364449701605527,3.266223342400707,0.986379594694496,Relax
82.08693772564897,731.1666666666666,55.81720834709983,,,,,,,52.55766748263238,52.802994550200694,0.07633992479658058,0.07188192498194536,725.5,61.527899999999995,0.08480758097863542,84.75,1.0620183699275574,679.4,778.6,28.703703703703702,59.25925925925925,619.0,891.0,12.0,179.6875,,,0.05927368995348599,0.024953139313453637,0.0027577053890592788,0.08698453465599891,2.3754001133447855,0.6814279134549369,0.28686868777463465,-3.6907556405132897,37.337355513403224,69.69488254633616,0.5357259263415752,8175.12342546258,1.866626106428918,4.619464428186186,520.3771489819529,0.5648148148148148,0.5673076923076923,0.8135593220338984,0.34782608695652173,49.394613293797875,49.31886600449082,49.468593992077466,56.730769230769226,0.5721173202691775,0.42788267973082245,28.242464348084606,24.42431513494945,0.4196470474082655,0.5803529525917345,45.14846365761774,53.09418878280713,0.4536500143827324,0.5463499856172677,37.656477285429,41.32517424231677,1.2147404525725367,1.5057074321448676,1.4290348891072708,1.6809594762395892,-0.6318357157512686,-0.9370219613375799,-0.3326868940445795,0.0005114010511455115,0.133012689561866,0.6778909501631052,1.5260563034950494,6.212949307598831,1.2193995578035828,1.2639261377824642,1.1263032404261917,1.7662010202688254,1.8889707174120847,1.7034808983596084,3.0734423633337657,0.9381788197449261,Stress
82.76663950512167,725.6880733944954,57.22853750173209,,,,,,,54.803436631899885,55.058868240843964,0.07886106937659669,0.07551927424623373,719.0,65.2344,0.09072934631432544,82.0,1.044250890434499,675.0,773.8,26.605504587155966,59.63302752293578,567.0,891.0,12.11111111111111,101.5625,,,0.0580293633636799,0.03844810033810462,0.005110432737065371,0.10158789643884988,1.5092907803865916,0.571223200773827,0.3784712715382209,-3.2584459902820915,38.9324990975574,71.22679949343664,0.5465990241656853,8711.753631802012,1.8294946675515462,4.64707569504493,521.236199440022,0.5596330275229358,0.5619047619047619,0.7966101694915254,0.30434782608695654,49.8927805575411,49.8389631702927,49.944997479988935,58.0952380952381,0.5936510579001075,0.40634894209989236,29.997040352450476,24.81774689103875,0.4273951819642173,0.5726048180357827,46.5648535289035,53.89778642866504,0.4656409218731112,0.5343590781268889,39.16700150684744,41.95766880236349,1.1563498649751764,1.7161653205019984,1.413049795996194,1.6843583698591909,-0.7365102332301046,-0.9042382347956819,-0.34191000096445495,0.0008134757139186158,0.18057121469509746,0.6505579097158658,1.4781019103730133,6.226720563229643,1.2153709462329183,1.1874543285315442,1.125609836545024,1.6069866821389016,1.8518699714686344,1.7115961681785168,2.9027372580163804,0.7451212100671846,Stress
82.88380727870644,724.1467889908257,59.75967699229626,,,,,,,56.37391700528285,56.63497372844084,0.08252425875640161,0.07784874263385991,721.0,62.2692,0.08636504854368932,82.0,1.0600589805866447,675.0,773.0,29.357798165137616,63.30275229357798,544.0,891.0,12.11111111111111,242.1875,,,0.0538875471861806,0.020754084489032303,0.003760655447312954,0.07840228712252585,2.5964791275017696,0.6873211122268155,0.2647127430938099,-3.87501220883151,40.04697397570248,74.24792414755801,0.5393682643047956,9341.226317960973,1.8540208354470458,4.677374004196507,550.6287934330576,0.5779816513761468,0.580952380952381,0.8360655737704918,0.2916666666666667,49.45602901178603,49.45078125933808,49.45724681943329,58.0952380952381,0.5904272986312226,0.4095727013687773,30.772757705841542,25.630005779587375,0.4212513780071707,0.5787486219928293,48.1897843978181,56.484501590377306,0.45937828195307046,0.5406217180469294,40.43029765615523,43.8599824223347,1.124258379515767,1.8294169616495592,1.4078767483175605,1.794462693449598,-0.8714981744843335,-1.2867202300699878,-0.28868352418496307,0.0014954987482100788,0.2431597179352652,0.6300181882606668,1.688575232992824,6.23030184328068,1.221017138638504,1.5346521885288869,1.4137640580133766,1.71809277731204,1.9268466901136792,1.7257180833041392,2.4793254373832605,0.8072146442394499,Stress
83.50787143772054,718.7636363636364,56.771863956666614,,,,,,,52.496046159547305,52.73284046467293,0.0789854426190596,0.07303659159099216,712.0,58.5627,0.08225098314606742,81.0,1.0814502826388894,673.8,766.0,26.36363636363636,59.09090909090909,544.0,891.0,12.222222222222221,156.25,,,0.04552911182401887,0.01714728146673479,0.005293108496790205,0.06796950178754388,2.6551795928902187,0.6698461902270785,0.2522790518655414,-4.065915632994224,37.2877490837986,71.25433799409377,0.523304968279817,8346.94111486646,1.9109315993829603,4.628497459658221,544.6486642641106,0.5545454545454546,0.5566037735849056,0.8135593220338984,0.24,48.98403483309144,48.89926844877749,49.07247502030188,59.43396226415094,0.6143861564786641,0.3856138435213359,29.230327350836102,23.15737223626396,0.41670435181752413,0.5832956481824757,45.99655732291494,54.41964165093661,0.4592085913761819,0.540791408623818,38.53631613554438,41.819620313348395,1.1853980225923255,1.5763769609656615,1.39065779108105,1.712265572319859,-0.7722742074563964,-1.0967703266953324,-0.29598294747863,0.0008038720023045787,0.15563522466893537,0.6543857927064693,1.5040773967762742,6.181004258821861,1.2132403769214481,1.1610505793309092,1.2656383368690647,1.5310802345491026,1.9090386438624392,1.7179309386622341,2.8215841849907823,1.048028319362902,Stress
83.33000493889847,720.1272727272727,56.46970594700712,,,,,,,53.131306965070166,53.37365957593083,0.07841628568397989,0.07378043989897895,715.0,56.3388,0.07879552447552447,76.75,1.0628329919332062,676.6,766.2,26.36363636363636,59.09090909090909,544.0,891.0,12.222222222222221,195.3125,,,0.051277414026822614,0.012885149171788934,0.005954319967463007,0.07011688316607456,3.9795747292620143,0.7313133686414736,0.1837667133787159,-4.351679857778434,37.74087662288299,70.25311985579947,0.5372128198768875,8329.663777138938,1.861459672963815,4.627597581635059,523.0933980458567,0.5545454545454546,0.5566037735849056,0.8305084745762712,0.2,49.258727881396474,49.13287161334818,49.38216276536217,60.37735849056604,0.623431914202145,0.37656808579785506,29.801037764679467,23.16107046716937,0.4057567209528764,0.5942432790471239,44.75056023048686,54.15614654432952,0.45451214982940397,0.545487850170596,38.01785431079905,41.64927006392837,1.1522590261833647,1.6583923346722038,1.3708030388683805,1.6506667991643802,-0.6861364313486522,-0.8143873729709608,-0.3312439376106274,0.0008575772538118379,0.16751908279906927,0.6768960135729349,1.660296329667591,6.194729486133923,1.2187785962677493,1.3621202658514153,1.4176013299636032,1.778805207847449,1.9111167477002866,1.7257816632975649,2.8765081113889983,0.9247308700260899,Stress
83.8957003000693,715.8818181818182,57.51421552529057,,,,,,,54.719551878630774,54.97207612892719,0.0803403775100253,0.07643657163637199,707.0,56.3388,0.07968712871287129,78.0,1.0510724878167574,669.0,763.0,27.27272727272727,60.0,544.0,891.0,13.75,195.3125,,,0.05733197162892239,0.011653052776454141,0.004297960939465163,0.07328298534484169,4.919910063804559,0.7823367369538791,0.1590144386397379,-4.452187092399796,38.87112780666755,71.6717591771027,0.5423492914498725,8752.358101417105,1.8438301953463996,4.649095188408162,528.6022148973495,0.5545454545454546,0.5566037735849056,0.8305084745762712,0.19230769230769232,49.801169590643276,49.74000059777949,49.86150627356635,61.32075471698113,0.6420392743227801,0.3579607256772201,31.146532415045524,23.256619925740935,0.38798995027820443,0.6120100497217955,44.643506905597796,56.06958493435141,0.44573260399487175,0.5542673960051283,38.491227509080815,42.92242260800768,1.1954590117902855,1.3727066964381756,1.383926822998165,1.596915925007142,-0.3035423321902382,-0.5625205845781203,-0.3448400502732087,0.0006293624039228645,0.11752306349463157,0.650521041315101,1.7047480922384253,6.2129113043157425,1.206577951885017,1.2919087461202083,1.0821121449270006,1.6406083023478575,1.8498164958666115,1.7367984241066146,2.727717778573758,1.109677044031308,Stress
84.16727514720596,713.1621621621622,60.62140944052095,,,,,,,57.42140874114968,57.60638054272021,0.0850036817106634,0.08051662270900588,704.0,56.3388,0.08002670454545455,77.5,1.0557283558436639,666.0,762.0,28.82882882882883,60.36036036036037,544.0,969.0,12.333333333333334,195.3125,,,0.05262629445663525,0.01422354824732309,0.005248123383615166,0.0720979660875735,3.6999413607318172,0.7299275875925949,0.197280852972281,-4.252856360605053,40.733862321370246,71.4418629597005,0.570167974823777,9142.35823672269,1.7538691125349015,4.668028344764992,501.19870714787993,0.5675675675675675,0.5740740740740741,0.8548387096774194,0.24,46.36846767050486,46.69162246347069,45.97102435961098,62.03703703703704,0.5599761782659762,0.44002382173402355,30.52296473389813,27.057024389376952,0.34843651128893366,0.6515634887110663,42.1710679479486,57.667502211229234,0.4004404551540665,0.5995595448459335,36.81066657924905,45.042332200328325,1.1771719649237335,1.4883292393099357,1.3410971800849798,1.7273054016412894,-0.8886267946206683,-1.3718888993626956,-0.24050887978564797,0.0008666801081161899,0.14497230529667132,0.6688860678588062,1.551543934015198,6.298744244650526,1.1464398854805327,1.040075707239807,1.2822932145151469,1.489651233113,1.7444130647767875,1.737038527505846,2.0111694700041767,1.0405862137653317,Stress
84.85845733259751,707.4684684684685,55.066046265093796,,,,,,,56.14137997461895,56.39233174140518,0.07783533644163826,0.07935531048635158,701.0,53.373599999999996,0.07613922967189729,73.0,0.9808459694077469,665.0,759.0,30.630630630630627,63.96396396396396,544.0,852.0,12.333333333333334,203.125,,,0.039127666482396684,0.011757889810532097,0.004116344906067189,0.055001901198995964,3.3277796537392437,0.7113875271480787,0.21377242521112583,-4.443230790492483,39.875400181268986,66.53583130443934,0.5993071612619719,8335.094242489253,1.6685934436262733,4.62788062459512,444.08500752324494,0.5765765765765766,0.5833333333333334,0.8888888888888888,0.21428571428571427,50.98597721297108,50.850069682900845,51.12263797720793,59.25925925925925,0.6223262494808252,0.37767375051917496,31.460110173203333,24.50809639671808,0.4404679976537342,0.559532002346266,44.158342884914155,49.77004722753598,0.4885327083260872,0.5114672916739128,38.33860833710413,39.22820662496559,1.0476428426391844,1.7149341481889802,1.3018642045444786,1.6844499931301729,-0.7370056866833714,-1.1652038200728558,-0.27690934139382795,0.0016045569049910836,0.22259341046823578,0.6295569697899253,1.6171007851796695,6.24469019059647,1.2756740399413387,1.374732351180873,1.3082802111913574,1.5263177156215617,1.8344143209808448,1.7498123806682144,3.2276664525110017,1.0405862137653317,Stress
85.35611618317418,703.7321428571429,55.67246268733854,,,,,,,58.80897461693662,59.075599478350235,0.07911030248143719,0.08356727089112767,699.0,51.891,0.07423605150214592,73.75,0.9466661007094862,662.2,751.8,30.357142857142854,65.17857142857143,544.0,852.0,12.444444444444445,195.3125,,,0.038738556823282574,0.008114992734854418,0.005218497720329968,0.052072047278466954,4.773701972264001,0.7439414973665132,0.15584163018322814,-4.814041973289623,41.77275699380191,66.95903804874123,0.6238553929552337,8787.234535762398,1.6029355701534465,4.6508223280585215,429.32409532634136,0.5625,0.5688073394495413,0.8709677419354839,0.18518518518518517,50.11499059167887,50.068690843805584,50.16271036983905,59.63302752293578,0.5888489761469994,0.41115102385300084,32.054995355992915,26.785172288888766,0.4642513007892864,0.5357486992107136,45.623202852879764,49.01057169486762,0.4991585246349981,0.500841475365002,39.42714398626753,39.49355385631441,1.0942988048101234,1.3325638615386124,1.2785293797463615,1.6019409592687288,-0.4154553661353404,-1.0349352340426705,-0.2573012529778888,0.0009444844799124287,0.1343476452516183,0.6056254859084804,1.4223993657620069,6.244680368408911,1.2456665132461469,1.2728374141951793,1.4215131597182384,1.832076355944773,1.8227300607863361,1.7526596792282068,3.1518691330005764,1.0332592292408862,Stress
85.9029808577152,699.0973451327434,57.18406443259875,,,,,,,61.80405384300104,62.08142137278575,0.08179699841620874,0.08840550500340665,695.0,47.4432,0.06826359712230215,70.0,0.9252477932574081,660.0,749.4000000000001,32.743362831858406,67.2566371681416,544.0,852.0,12.555555555555555,195.3125,,,0.05603806605445567,0.01075352781974187,0.007022083840022506,0.07381367771422004,5.211133220074825,0.7591826852391079,0.14568475860768862,-4.532521408965912,43.89819403839627,68.32070042453718,0.6425313816400858,9422.124458753935,1.5563442169119615,4.681118946585834,425.32210800441214,0.5752212389380531,0.5855855855855856,0.8769230769230769,0.2222222222222222,49.75446867020232,49.70482709205208,49.80567433797257,59.45945945945946,0.5863640719850589,0.4136359280149412,33.615003621425785,28.233103054891224,0.4600396708592003,0.5399603291407997,46.33935154247945,50.20341228563913,0.49695314673805235,0.5030468532619475,40.480266611312985,40.72769765914819,1.111486073581471,2.3776178453803354,1.3800285336829106,2.16932318511724,-1.5770922323490435,-2.2647504013153297,-0.1680313226249065,0.006686635011490679,0.5643053789098941,0.6067277995119364,1.5702171992808194,6.251465134924121,1.2579084400128329,1.558554613749708,1.2232216445690447,1.600755589922261,1.8642625142326061,1.7693766772343713,3.7682468103569575,1.1467557547423766,Stress
86.26872799112334,696.3982300884956,57.153699390173344,,,,,,,61.610745236293226,61.88746104519343,0.08207042597295297,0.08847056551028852,692.0,47.4432,0.06855953757225433,73.0,0.9276579786687216,656.2,748.8000000000001,34.51327433628318,68.14159292035397,544.0,852.0,11.3,117.1875,,,0.0543230499380651,0.008819420418536634,0.00449569262372568,0.06763816298032742,6.1594807096267985,0.8031420065897559,0.13039118790233503,-4.730799123306633,43.76104337547457,67.79508376869691,0.6454899226141291,9320.425567093038,1.5492108628902568,4.6764058524896654,420.1155209000807,0.5575221238938053,0.5675675675675675,0.873015873015873,0.20689655172413793,49.8341463414634,49.80597333578447,49.86083197196003,58.55855855855856,0.5792411423087508,0.42075885769124927,33.30570927439123,28.38609290251602,0.4844083002219306,0.5155916997780693,47.185003296422856,48.68006621935919,0.512299986672079,0.48770001332792123,40.83928749594994,39.84670072535157,1.0012861383670277,2.6881463871340223,1.3024253328051616,2.2205850482778686,-2.0835703848503133,-2.796822995587224,-0.1584413260129012,0.0077950670970525935,0.7049699438007612,0.5954932999051317,1.529395204760564,6.315581174727985,1.241621518378852,1.2768541502448003,1.1282687876366808,1.5901669848767108,1.8386021874975267,1.780210795377872,2.946183585377185,1.0260446226642317,Stress
86.3665280872656,695.9649122807018,56.89983900074605,,,,,,,63.411774122359425,63.68886846118396,0.08175676387805708,0.09111346420404555,689.0,43.7367,0.06347851959361393,63.75,0.8973071608271369,656.8,740.0,32.45614035087719,66.66666666666666,544.0,879.0,11.4,140.625,,,0.05428642733451208,0.01832623698728053,0.010818539322240112,0.08343120364403273,2.9622244529627118,0.6506729492496639,0.21965686921491853,-3.9994215307710914,45.034830775001204,64.26563977548354,0.7007606386917411,9092.372991095204,1.4270207896763618,4.665647353188485,366.83361608586847,0.5789473684210527,0.5892857142857143,0.8939393939393939,0.1724137931034483,50.90063916327717,50.695224882196996,51.13368694150845,57.14285714285714,0.6022021264186944,0.3977978735813054,34.95073062796501,28.40640961372727,0.5046727711845812,0.4953272288154188,45.65451906917405,45.229828037641646,0.5367965853588388,0.46320341464116105,40.65641820713027,37.76679395618253,1.0492042759328195,2.265167913664625,1.1163791310868998,2.155209240159529,-1.512286771713601,-2.459128786502394,-0.04138935890540992,0.0074976044922811244,0.5765253617402645,0.6292680075946291,1.6094379124341005,6.304252623756929,1.230879443123751,1.3035361412697615,1.3260681595077706,1.8972328520967778,1.835401582299686,1.7793541504092856,2.835776277095961,1.0189397389543913,Stress
86.40057611550277,695.1140350877193,54.9082515152225,,,,,,,58.69932384166811,58.95883814534339,0.07899171753638005,0.08444560299269543,695.5,51.149699999999996,0.07354378145219266,67.5,0.9354154004112312,653.8,738.8,31.57894736842105,65.78947368421053,544.0,843.0,11.4,140.625,,,0.05853275730435534,0.0157008306615911,0.013973436108520865,0.0882070240744673,3.728003859537436,0.6635838576181874,0.17799977752719484,-4.154041659645875,41.6901942634524,65.81065350239378,0.6334870122804049,8619.458735678018,1.578564328257077,4.642450104848133,415.54540015266195,0.5614035087719298,0.5714285714285714,0.875,0.13793103448275862,50.555327025915254,50.51189148128302,50.59719534693558,56.25,0.5713720675786045,0.4286279324213955,31.514310808175477,27.295342355165914,0.4975107215993719,0.5024892784006281,46.41917586104315,46.65085451300635,0.5186641259802857,0.48133587401971445,39.672986233284334,38.21869922616022,0.9672150622427805,1.2997067169684045,1.0100210976750605,1.5855782731276031,-0.39806636172361287,-1.3350860665248534,-0.05716380631236352,0.0016932713645202706,0.1683890487145847,0.5545701679376727,1.413693335308005,6.3568842027043,1.2619502473060795,0.9808420543163475,1.3388215259061742,1.7980245936945767,1.8289561428982688,1.799783653368257,3.501326674002218,1.0189397389543913,Stress
86.45081647168601,694.5263157894736,54.3171953291991,,,,,,,59.79744570861147,60.05669071696823,0.0782075410165795,0.08609817129915262,695.5,47.4432,0.06821452192667146,65.25,0.9083531024700081,651.6,738.8,32.45614035087719,66.66666666666666,544.0,843.0,11.4,140.625,,,0.056628426917113756,0.02342183336638341,0.01261939167306084,0.092669651956558,2.417762351532681,0.6110784460878328,0.25274545519349934,-3.7540866417934673,42.46649326159141,63.19140887914652,0.6720295371607954,8430.518987422503,1.4880298330707624,4.632824420818556,376.1228064237708,0.5877192982456141,0.6017699115044247,0.8970588235294118,0.16666666666666666,48.95916733386709,49.03823598615944,48.872563575228966,58.4070796460177,0.569616243212608,0.4303837567873918,32.05450157822722,27.862865712526514,0.4240358211461723,0.5759641788538278,41.14900243697849,47.95741605396413,0.4693356462755618,0.5306643537244382,36.883136207398586,39.2189561327638,0.9461492584789305,2.9192195079046335,1.2473051361013294,2.2738185433205613,-2.5575734454022374,-3.2408835671246203,-0.14836032218897915,0.00862498173407673,0.8061506707139744,0.5661181667112003,1.3951833085371366,6.350262382509882,1.2574904221000778,1.318215158603269,1.3813802790492902,1.7924241497496591,1.8382344569681468,1.814652390293223,2.5611807277740612,1.0189397389543913,Stress
87.00143577378279,690.2543859649123,49.8476992667264,,,,,,,59.523922460912665,59.78829988201111,0.07221641800514442,0.08623476166356217,692.0,42.9954,0.06213208092485548,60.75,0.8374397587702607,651.6,730.4,31.57894736842105,66.66666666666666,544.0,821.0,11.4,242.1875,,,0.060804872268557096,0.02655678500109638,0.014420767581744098,0.10178242485139757,2.2896172208362873,0.5974005075761583,0.2609171970491891,-3.628470008346108,42.27671228218492,56.727655898530635,0.7452575223239565,7534.352186222159,1.3418180562360151,4.584016026991506,304.4727718903676,0.5964912280701754,0.6071428571428572,0.8970588235294118,0.16666666666666666,50.34399028733305,50.29970149192652,50.38855396364313,57.14285714285714,0.5798786122836376,0.42012138771636265,32.194026730790554,27.40275012267408,0.3900668845790311,0.6099331154209688,35.42944741929884,44.30328655196177,0.4578463858150364,0.5421536141849637,33.850414337048505,36.835390004660944,0.9257728694619576,1.8770870318796806,0.9258557619256438,1.7867508779992525,-1.3179566046664206,-2.1628255898613293,-0.041366435624711574,0.0022154764941080215,0.2973189434573518,0.5569406742977834,1.5773495978825998,6.266843303524557,1.3244880916739161,1.3022865070655623,1.3705278673970978,1.764014281704861,1.8355172150647818,1.836168660184163,3.990343240666579,1.0189397389543913,Stress
86.52723123935624,694.0701754385965,51.05726774269731,,,,,,,57.528753872510514,57.78084823062323,0.07356211165597662,0.08288607680939031,696.5,47.4432,0.06811658291457286,64.0,0.8875086683755629,656.8,735.8,29.82456140350877,65.78947368421053,544.0,821.0,12.666666666666666,226.5625,,,0.05139238880064249,0.02828746563955637,0.009752144906880932,0.0894319993470798,1.8167901449883463,0.574653246889762,0.3163013892798544,-3.565336482709693,40.85722960658441,59.094692487157474,0.691385772342644,7585.203992326527,1.4463705213540463,4.5869373749198035,341.891284727628,0.5964912280701754,0.6071428571428572,0.8823529411764706,0.16129032258064516,50.811823480432984,50.71039231472804,50.91842753336236,55.35714285714286,0.5697978501524145,0.4302021498475855,30.84328185706387,26.8001032780526,0.41759905728267277,0.5824009427173273,38.18811588819524,45.09823150702781,0.4668274614121941,0.5331725385878059,34.71051880053448,37.09512111299653,0.9148322132663788,2.082452119587681,1.172712482833941,1.7951897193432163,-1.0821907288342842,-1.692350443098669,-0.20108449041674786,0.004891283100267045,0.4212953228691138,0.6123165313626582,1.6582280766035324,6.207589904382774,1.2901219370924357,1.2162341393925555,1.3345833459041931,1.7059458516780985,1.8445345547850978,1.828075164680809,3.354567988591766,0.9590021072511917,Stress
86.52918176749574,694.3245614035088,51.182044627816566,,,,,,,57.815391281444676,58.06556355794844,0.0737148697784176,0.08326853822451066,696.5,49.6671,0.07130954773869347,65.75,0.8852667688204849,654.2,737.4,32.45614035087719,67.54385964912281,544.0,810.0,12.666666666666666,140.625,,,0.07118141768981968,0.049514335991855285,0.009563394785801559,0.13025914846747652,1.4375920885120719,0.546460026242168,0.3801217540142155,-3.005493035341033,41.05855374524381,59.576933710466676,0.6891686293353246,7684.784045053606,1.4510236790151922,4.5926017775868395,345.79016614802237,0.6052631578947368,0.6160714285714285,0.8840579710144928,0.125,51.059926620464736,51.012853896797914,51.10460531673744,54.46428571428571,0.5594229526946171,0.44057704730538294,30.71346552061024,27.256470398263758,0.4123852761889893,0.5876147238110108,38.25865716482426,45.669313354656225,0.45974137898912576,0.5402586210108743,34.691798831577415,37.60718921201909,0.8590710182353419,1.8463165455707928,1.1341896781723324,1.5906545480823202,-1.3546648672512234,-1.9643733617720698,-0.2527699835626665,0.0009346404323013328,0.2239846996663915,0.601467558183014,1.684339220607218,6.339340343055175,1.2927678439602848,1.4097930334719095,1.2617300379311882,1.8477515388125187,1.8298146570347085,1.8565124607478576,3.6777006955856213,0.9590021072511917,Stress
85.84588209600027,699.433628318584,50.58900856520732,,,,,,,57.115015538823066,57.371309741605,0.07232853342614033,0.08165894979360047,702.0,48.925799999999995,0.06969487179487178,68.0,0.8857392068959556,661.8,743.0,32.743362831858406,69.02654867256636,564.0,814.0,12.555555555555555,242.1875,,,0.061689953474845446,0.048550598853725764,0.011224853332037647,0.12146540566060887,1.2706321843878012,0.5078808500192697,0.3997072136685802,-3.0251487495376472,40.56764216384273,58.6176217459441,0.6920724682360506,7470.640425261287,1.4449353874006763,4.5803279435355755,338.79470394392814,0.584070796460177,0.5945945945945946,0.8484848484848485,0.12903225806451613,50.247831474597284,50.264369415000054,50.233398366422165,55.85585585585585,0.5399115388194594,0.4600884611805408,29.80877493395297,27.517152717781208,0.42342659096219687,0.5765734090378032,38.143211682272344,44.50978523551806,0.46115073523377925,0.5388492647662206,34.230597865810786,37.00212612408667,0.7513645214409136,1.5939314957998776,1.0115060264636568,1.2979872278343272,-0.7044581690367568,-1.1448230291072088,-0.32026755721587247,0.0006664116780569092,0.162784802582445,0.6231451984103926,1.6739764335716716,6.3222615951011125,1.3004692380409715,1.2100491335993093,1.1660095524549707,1.7318005017575584,1.8928359338601424,1.8740091218703636,3.1538534803561618,1.0864001887033041,Stress
85.77208480637518,700.1504424778761,51.85216300057481,,,,,,,61.035923263037716,61.31024274546925,0.07405860205853297,0.08717544053393407,702.0,48.925799999999995,0.06969487179487178,68.0,0.8495351627125394,663.4,746.2,35.39823008849557,70.79646017699115,564.0,813.0,10.272727272727273,117.1875,,,0.058035320731489634,0.04434606527722709,0.009685519634624934,0.11206690564334167,1.3086915461086543,0.5178631496812256,0.39571062502930693,-3.1157312939543305,43.35288840151464,59.50815371654214,0.7285201387362713,8104.8388976641345,1.3726456508596339,4.615714496629255,326.73443355879255,0.584070796460177,0.5945945945945946,0.8636363636363636,0.125,50.0095950873153,49.99973089490774,50.02036121693777,54.95495495495496,0.5379071668068727,0.46209283319312733,31.795942854112408,29.470171207357975,0.424196858625663,0.575803141374337,38.75789663905506,45.15579483153776,0.4636227102458318,0.5363772897541684,35.44824772725485,38.12831492381301,0.9006882919352917,2.820473311713389,1.2380241125242857,2.0780371731667344,-2.2020577673575765,-2.658289766960725,-0.20217301572970559,0.006503839678450346,0.6833613234356216,0.5911075379698052,1.9965538818740685,6.255803409222114,1.3467879767157127,1.491189992366742,1.0883357353524843,1.7606002230751083,1.9076103828186481,1.8870253253605065,4.59218500515786,1.0260446226642317,Stress
85.62878346529158,701.2566371681415,52.04029667359811,,,,,,,60.98426319258812,61.2577989939276,0.07421005936393058,0.08696425810507633,705.0,48.925799999999995,0.06939829787234042,69.0,0.8533397625753878,663.4,746.2,35.39823008849557,69.91150442477876,564.0,813.0,10.272727272727273,117.1875,,,0.05032312706503897,0.039325293756571456,0.007626199549437532,0.09727462037104796,1.2796630935943032,0.5173304904515129,0.40427085304026456,-3.235887360095665,43.315805069168675,59.866571597074476,0.7235390955857811,8146.679880250481,1.382095322976839,4.617950761221223,330.9652344278988,0.6106194690265486,0.6181818181818182,0.8676470588235294,0.16129032258064516,49.7207779703447,49.709480494239116,49.73438756261536,55.45454545454545,0.5352225612610646,0.4647774387389357,31.689655003395576,29.530637625330044,0.42627394409853026,0.5737260559014699,39.086679848517235,45.345758932971464,0.4637113624787833,0.5362886375212168,35.580913252857336,38.26418960180471,0.7207932103649929,1.929432720326358,1.0448850415109279,1.4027933898187643,-1.018397181962074,-1.3808413656081018,-0.31450073664797323,0.001210072508330741,0.2513754777174636,0.5789069815913996,1.815289966638249,6.241558803253646,1.3016733041169528,1.4592412777729509,1.150226881285237,1.6984762610376052,1.900172674705196,1.8713888262487175,4.163704679616655,0.9053334905860869,Stress
