PPG_Rate_Mean,HRV_MeanNN,HRV_SDNN,HRV_SDANN1,HRV_SDNNI1,HRV_SDANN2,HRV_SDNNI2,HRV_SDANN5,HRV_SDNNI5,HRV_RMSSD,HRV_SDSD,HRV_CVNN,HRV_CVSD,HRV_MedianNN,HRV_MadNN,HRV_MCVNN,HRV_IQRNN,HRV_SDRMSSD,HRV_Prc20NN,HRV_Prc80NN,HRV_pNN50,HRV_pNN20,HRV_MinNN,HRV_MaxNN,HRV_HTI,HRV_TINN,HRV_ULF,HRV_VLF,HRV_LF,HRV_HF,HRV_VHF,HRV_TP,HRV_LFHF,HRV_LFn,HRV_HFn,HRV_LnHF,HRV_SD1,HRV_SD2,HRV_SD1SD2,HRV_S,HRV_CSI,HRV_CVI,HRV_CSI_Modified,HRV_PIP,HRV_IALS,HRV_PSS,HRV_PAS,HRV_GI,HRV_SI,HRV_AI,HRV_PI,HRV_C1d,HRV_C1a,HRV_SD1d,HRV_SD1a,HRV_C2d,HRV_C2a,HRV_SD2d,HRV_SD2a,HRV_Cd,HRV_Ca,HRV_SDNNd,HRV_SDNNa,HRV_DFA_alpha1,HRV_MFDFA_alpha1_Width,HRV_MFDFA_alpha1_Peak,HRV_MFDFA_alpha1_Mean,HRV_MFDFA_alpha1_Max,HRV_MFDFA_alpha1_Delta,HRV_MFDFA_alpha1_Asymmetry,HRV_MFDFA_alpha1_Fluctuation,HRV_MFDFA_alpha1_Increment,HRV_ApEn,HRV_SampEn,HRV_ShanEn,HRV_FuzzyEn,HRV_MSEn,HRV_CMSEn,HRV_RCMSEn,HRV_CD,HRV_HFD,HRV_KFD,HRV_LZC,Labels
75.42983266496685,795.979797979798,64.0565725407866,,,,,,,59.75878383047934,60.05637386020832,0.08047512349353916,0.07507575441254605,789.0,69.6822,0.0883171102661597,96.5,1.0719189453804652,736.6,845.4,44.44444444444444,72.72727272727273,653.0,945.0,14.142857142857142,148.4375,,,0.06654696216295629,0.028010662530741418,0.005702133682710841,0.10025975837640855,2.3757725148386504,0.6637454871287123,0.2793809099916245,-3.575170036625293,42.46626921002782,80.11726132864527,0.5300514334336632,10688.581585518017,1.8866093683060507,4.735890186503203,604.5999031425849,0.5050505050505051,0.5204081632653061,0.7647058823529411,0.034482758620689655,51.10689437065149,51.080304593096656,51.130370458752964,50.0,0.5413850941083352,0.4586149058916647,31.251226780043883,28.763253332473386,0.4747763243976396,0.5252236756023606,55.204009535909,58.06283573820441,0.4893894369055019,0.5106105630944981,44.85600207384996,45.81821491628493,1.2946464394810704,1.7843648413527022,1.5757849360628162,1.9278373959446493,-0.36631324381075636,-0.7225740233041646,-0.30270152621089136,0.0032377752089923005,0.281377296244694,0.5851794138310065,2.302585092994046,6.270672024076307,1.4248350078581564,1.2597063652035774,1.0452277387068,1.2796439167797018,1.9860815841460175,1.7883347991809977,3.5205991586355294,0.9374847745567124,Relax
74.86507039493215,802.0102040816327,64.16915386051475,,,,,,,58.352466179916945,58.64882712109776,0.08001039579539226,0.07275776029151063,792.0,73.3887,0.0926625,95.75,1.0996819511049172,741.4,858.6,41.83673469387755,69.38775510204081,653.0,945.0,16.333333333333332,93.75,,,0.058806782293616286,0.02569971422161649,0.005247835399816318,0.08975433191504908,2.2882270902511768,0.655197148024854,0.28633397044212666,-3.6612754069242475,41.47098336596573,80.98662639904369,0.5120719952159339,10551.337492298886,1.9528503986598862,4.730277624449346,632.619062597967,0.5102040816326531,0.5257731958762887,0.7647058823529411,0.034482758620689655,50.95090667846085,50.93986741166855,50.9590956530365,51.546391752577314,0.5366621655171578,0.46333783448284216,30.384000724065288,28.232110855076588,0.46612815623914117,0.5338718437608588,55.292468193386334,59.174121172871175,0.4807838297947442,0.5192161702052559,44.61190726093562,46.36069833336732,1.1652731735562274,1.933598137786051,1.4653923690866892,1.854947292911926,-0.8053742188392192,-1.1267637772040366,-0.29853366828783107,0.002044775402288802,0.2849818544058027,0.619248543500754,2.3353749158170367,6.2523652012139115,1.389934050101523,1.495930921045657,1.0917127400963744,1.2987162187569519,2.04665503065964,1.779310607965794,3.488702568403911,0.8774615099336501,Relax
74.49988922562686,805.4639175257732,67.21297956491088,,,,,,,58.33898782118182,58.63350338584797,0.08344629486492199,0.0724290518194629,793.0,77.09519999999999,0.09721967213114753,108.0,1.1521108280268633,741.2,869.0,43.29896907216495,70.10309278350515,653.0,945.0,16.166666666666668,93.75,,,0.052960517717016355,0.027034856327000343,0.0063059882997989584,0.08630136234381566,1.9589716725856408,0.613669544474016,0.31326106092388534,-3.610628270495549,41.460147848857495,85.50656971784261,0.4848767525778318,11137.307310975137,2.0623797587397865,4.75375031324653,705.388074501404,0.5154639175257731,0.53125,0.7843137254901961,0.034482758620689655,51.25055828494863,51.20002312590308,51.29806273536377,50.0,0.530869525296116,0.46913047470388386,30.21423505568195,28.40302059548189,0.5150989822603652,0.48490101773963495,61.36840417268282,59.54235831918757,0.5181019175582326,0.4818980824417674,48.36828005367647,46.64774385304124,1.1126807229267568,1.9179477894744612,1.4114431592675554,1.7567279979460595,-0.796922196053254,-1.0162584724241595,-0.3199717215591588,0.001640859542962595,0.2611853875812605,0.5907048601126772,2.2857779746776643,6.164194672017122,1.3497707701053334,1.267729914370746,1.1095295571225274,1.6239462257946056,2.0536394037238113,1.788344950417702,3.7807111183647897,0.9525647401094823,Relax
73.53575021185928,816.7525773195877,73.32363064521944,,,,,,,63.44338026933937,63.74133240010246,0.08977459353217147,0.07767760032976861,818.0,80.0604,0.09787334963325184,103.0,1.1557333536443826,744.2,875.6,47.42268041237113,72.16494845360825,653.0,1056.0,16.166666666666668,93.75,,,0.057165816910212136,0.03613598109741495,0.0064968415924266335,0.09979863960005372,1.5819638812657446,0.5728115848002137,0.36208891466087173,-3.3204662037256387,45.07192838197823,92.82748453968205,0.48554507973024746,13144.15265329198,2.0595410019509752,4.825702704218481,764.7280420697816,0.5463917525773195,0.5625,0.8333333333333334,0.07142857142857142,52.09630552096305,52.125197775239684,52.068715597323276,51.041666666666664,0.5684849614136428,0.4315150385863574,34.002012324350204,29.623959009025466,0.4802331275325329,0.519766872467467,64.3283837171665,66.92384428813021,0.49708458905569486,0.5029154109443051,51.450353710000265,51.75123129776875,1.049366975768392,2.564109690545476,1.4193219524510137,1.9179425450450647,-1.8033388585606094,-1.781873109045459,-0.30553850935761767,0.002056958145234092,0.419720040169378,0.6240000162789547,1.9600947840472698,6.184813228718154,1.3230337486626589,1.2198144059080738,1.3274638336488762,1.7805616130407078,1.8914006635682767,1.816787129672583,2.367672618132871,0.9525647401094823,Relax
73.33508446823977,819.21875,72.50991992025716,,,,,,,63.91935708786749,64.25442499173917,0.0885110599827667,0.07802477309981917,819.5,75.6126,0.0922667480170836,100.75,1.1343968904533968,748.0,876.0,45.83333333333333,71.875,653.0,1056.0,16.0,93.75,,,0.05947938389782565,0.040213288748136504,0.005474322232603982,0.10516699487856614,1.479097724892793,0.565570823493674,0.3823755617869451,-3.21355777210798,45.43473963290114,91.9646348600896,0.49404577859764554,13126.796941174525,2.024103925831552,4.825128877142182,744.5839138318902,0.5208333333333334,0.5368421052631579,0.803921568627451,0.07692307692307693,49.29313929313929,49.20530652142381,49.38465642244809,53.68421052631579,0.5452336785695883,0.4547663214304116,33.55108838644275,30.641457800995905,0.46507104650628,0.5349289534937202,62.7163106026396,67.26186474773682,0.480800056722551,0.5191999432774491,50.29419025852617,52.264028669406336,1.2598022492382277,2.0729695507905426,1.5126238293131435,2.132381277957985,-1.1886724637880555,-1.801020757060031,-0.201029159637925,0.004075421027165408,0.3918548712357461,0.6037301313538812,1.8870696490323797,6.103038932945215,1.3344845922062034,1.2462997822273443,1.0903261305857608,1.600900539318107,1.9011332101273628,1.806965441719208,2.757629651055156,1.0974937501201927,Relax
73.18118848975621,820.3020833333334,73.41032765313305,,,,,,,64.77759521705991,65.12052225537651,0.08949182154314052,0.07896797598493634,819.5,77.8365,0.094980475899939,104.75,1.1332672570994056,748.0,876.0,44.79166666666667,73.95833333333334,653.0,1056.0,16.0,93.75,,,0.06095142408346521,0.0409210877659721,0.006742173598760329,0.10861468544819763,1.4894868981012113,0.5611711144947816,0.3767546496784625,-3.196109755505885,46.047162881186225,93.6346949747983,0.4917745809240878,13545.328744031596,2.0334519895699197,4.838759659750789,761.6066271571046,0.5208333333333334,0.5368421052631579,0.7843137254901961,0.08,49.70377936670071,49.67602093609334,49.73876904575414,53.68421052631579,0.5537399061291965,0.4462600938708036,34.265779095495205,30.76109037162148,0.4619337378472294,0.5380662621527705,63.63948278451952,68.68385788482152,0.479812825546312,0.5201871744536881,51.10835247834953,53.21520936157925,1.2372692762432798,2.0620385644402246,1.4904992524064533,2.1346141189972783,-1.2998692349272272,-2.0147499794008565,-0.18763199791771068,0.0037796722102207705,0.38675088328527873,0.604216779809672,2.1484344131667874,6.090069011092751,1.342975627901428,1.4147440988278395,1.1040095485591574,1.6737179132100592,1.9723005532312325,1.8135015776237076,3.0801856663574685,1.0289003907376806,Relax
73.21448286651317,819.8333333333334,73.01761383272232,,,,,,,64.23656935192962,64.57123118677917,0.08906397296123884,0.07835320514567548,816.5,78.5778,0.09623735456215554,104.75,1.1366985281029633,758.0,876.0,43.75,75.0,653.0,1056.0,16.0,171.875,,,0.06593099622226939,0.03372975919654171,0.008511368253485483,0.10817212367229659,1.9546832765123698,0.6095008028316508,0.31181563282167557,-3.3893747690819507,45.658755441735835,93.02481757751718,0.49082338058538616,13343.592455471264,2.0373927558368115,4.832242879088574,758.1123577818976,0.53125,0.5473684210526316,0.8076923076923077,0.07692307692307693,49.13615795968737,49.09655069155933,49.186383839952555,54.736842105263165,0.5575048086489355,0.4424951913510647,34.094908211600256,30.37522436656475,0.47540364357874104,0.524596356421259,64.14016606105595,67.37696774856012,0.4913450517029762,0.508654948297024,51.36352630173127,52.26045368301762,1.1266247675009853,2.133422359998268,1.433543954482825,1.8642739498863263,-1.3138821952887216,-1.4983886893406124,-0.29810374003774337,0.0016254949895790954,0.3004688192090166,0.5744789052672181,1.9810014688665833,6.123872266278549,1.3270230067026705,1.1287820387653025,0.9458751134833002,1.2187083620462587,1.9516370081688337,1.7957180212701684,3.2816436503732955,1.0289003907376806,Relax
73.18131592645913,820.3541666666666,72.44700119712438,,,,,,,64.00542740144859,64.3449497970874,0.08831185863478605,0.07802170087283268,815.0,73.3887,0.09004748466257669,99.25,1.1318884060054686,758.0,876.0,41.66666666666667,71.875,653.0,1056.0,16.0,171.875,,,0.06658794834714696,0.02426958723949017,0.005353166367221855,0.09621070195385899,2.7436786497464047,0.6921054206535299,0.25225454909506273,-3.718531266413787,45.49875033662846,92.40054912262964,0.4924077916057043,13207.599568775147,2.0308370766008315,4.827794003370105,750.6018442260508,0.5208333333333334,0.5368421052631579,0.803921568627451,0.08,49.93692178301095,49.908882833466066,49.970366630960875,54.736842105263165,0.5687743135672915,0.4312256864327083,34.3138673040755,29.87803220613162,0.4728833689424099,0.5271166310575902,63.54063817241354,67.08538424132277,0.49159637055234257,0.5084036294476576,51.06297185201464,51.928535446883906,1.2074597001559813,1.8529084495119488,1.5034532654994666,1.954619884042672,-1.0680738506430352,-1.6701364767878761,-0.2565089529048013,0.001734332169759451,0.2625961085503131,0.5328584721079404,1.7404661748405046,6.136842188131013,1.3107495479629256,1.2264782199480044,0.8522658230847295,1.3326228963763,1.9837890964429656,1.797689100090505,2.9210518340394684,0.9603070313551686,Relax
72.8872825557528,823.6458333333334,70.69787150323353,,,,,,,64.44916397318204,64.77578349707223,0.08583528094486428,0.07824863717497756,820.0,71.9061,0.08769036585365853,100.25,1.0969556025994633,764.0,878.0,41.66666666666667,72.91666666666666,679.0,1056.0,16.0,148.4375,,,0.06347376236434417,0.025858963387916985,0.0046394320545582474,0.0939721578068194,2.454613567147216,0.6754528558855545,0.275176860800364,-3.655097991982592,45.80339576745143,88.37332815266944,0.5182943397619214,12716.534108294692,1.9294055969419814,4.811338870429264,682.0319758326032,0.5520833333333334,0.5684210526315789,0.8518518518518519,0.07692307692307693,48.61024033437827,48.43567565451063,48.7803242021033,54.736842105263165,0.5479002840844295,0.4520997159155706,33.91180676840843,30.8047212463257,0.45966242209077346,0.5403375779092265,59.91571019397637,64.96116378830376,0.47835352087091865,0.5216464791290811,48.68214747906278,50.83740577465897,1.267081646468116,1.2807744708418358,1.4405654838243374,1.8116277337950235,-0.5976967539475311,-1.3788625202358142,-0.21028291208303682,0.0008911529023044946,0.12671549538706095,0.5426344010750217,1.791759469228055,6.165538932945215,1.29266063971719,1.1770473069234315,0.9424974741643529,1.3567895062073978,2.028986696141572,1.7795108016363603,2.964847174725003,1.0289003907376806,Relax
73.29764127049813,819.6041666666666,72.51068584287084,,,,,,,64.982021805225,65.3266870110085,0.08847037239668032,0.07928464062049262,813.5,74.87129999999999,0.09203601720958819,101.0,1.1158576453686222,758.0,878.0,42.70833333333333,72.91666666666666,678.0,1056.0,16.0,125.0,,,0.06196641154969936,0.03499809096865098,0.005830449425098674,0.10279495194344902,1.7705654747056019,0.6028157062011097,0.3404650744708224,-3.352461762733117,46.19294337793526,91.4072296644987,0.5053532805608696,13264.963381590152,1.978813710064657,4.829676165396212,723.5115170365555,0.53125,0.5473684210526316,0.8269230769230769,0.07407407407407407,50.09284093253559,50.0855852582216,50.106402256076606,53.68421052631579,0.5508870680264139,0.44911293197358615,34.28525518942881,30.956644356054387,0.46464441603707285,0.5353555839629273,62.30758345571777,66.88083939998938,0.48218876030251756,0.5178112396974826,50.28774045180142,52.11218911461313,1.1894458715144558,1.4787625617800648,1.3916012360577683,1.7636939792568875,-0.739259263585085,-1.333902560457628,-0.2483755994260421,0.0010122307960980903,0.15705786961364365,0.5541987409557385,1.791759469228055,6.194235677759418,1.3278460214837489,1.2957138743078627,1.1414337887272998,1.4770679845900454,1.9836354778124483,1.7926326538286794,2.476005878134243,1.0289003907376806,Relax
73.34095068900434,818.4270833333334,71.38343384282506,,,,,,,63.56099432828282,63.890114231612976,0.08722027324913395,0.07766237899827094,807.0,70.42349999999999,0.08726579925650556,101.75,1.123069810301276,761.0,876.0,38.54166666666667,71.875,678.0,1056.0,16.0,93.75,,,0.04840675762954639,0.02846540027694235,0.00549286552814953,0.08236502343463827,1.7005472313262011,0.5877101178506935,0.3456005849319208,-3.5590659546037533,45.17713302395668,90.28792317109034,0.500367396183747,12814.397832437922,1.9985314943117831,4.814668312819638,721.7730320537066,0.53125,0.5473684210526316,0.8461538461538461,0.07142857142857142,48.97039897039897,48.99852524287183,48.952786852724245,54.736842105263165,0.5379494528400209,0.4620505471599793,33.139373637810095,30.712721738650007,0.4492665096817792,0.5507334903182207,60.517598559168356,67.00395014609254,0.46702754259197893,0.532972457408021,48.78830710567358,52.1190973241853,1.1619660993500598,2.3758202174873446,1.5509415418144687,2.030531249381303,-1.073176188567576,-1.3541479806192855,-0.29813720582189257,0.0036209287453174885,0.46028125645119455,0.565947321361739,1.5314763709643884,6.194235677759418,1.2786235554894814,1.3163869639531147,0.9079782354344023,1.4052397456516188,1.9596588625532427,1.7881807358814077,2.868916400357646,0.9603070313551686,Relax
72.91845797491716,823.2708333333334,76.89822106855769,,,,,,,64.31591437665536,64.6448511090869,0.0934057395877918,0.07812242554038659,811.0,73.3887,0.09049161528976572,104.75,1.1956328665128846,761.0,886.0,38.54166666666667,71.875,678.0,1056.0,16.0,93.75,,,0.07189339533985642,0.040076563490916185,0.007098581135546283,0.11906853996631889,1.7939012000405645,0.6037984119079063,0.3365839834959991,-3.2169635671261245,45.710812588030045,98.92856132765996,0.4620588025800949,14206.611615704134,2.1642267053805484,4.859460617721984,856.4153374007963,0.5104166666666666,0.5263157894736842,0.82,0.07407407407407407,51.260326202075845,51.259155839761746,51.25953066139155,53.68421052631579,0.5622654088978576,0.4377345911021424,34.28246248510385,30.24870315489891,0.49646194749466105,0.503538052505339,69.70511959509324,70.20011786738202,0.5080427812175026,0.49195721878249715,54.92763845191601,54.051089679799794,1.0800924580592417,1.9035213919213427,1.408083974451968,1.8072472321999884,-0.8346090643965383,-1.36010634731003,-0.2903027202940335,0.0018900356122209432,0.28529828079746217,0.545167058937793,1.3609765531356004,6.2775690110927505,1.2629127659549784,1.3669950048374615,1.1265372514022132,1.5696939826444891,1.9951263011767058,1.782041598850849,2.5765612992679188,0.9603070313551686,Relax
72.67019777696488,826.021052631579,76.67366311779719,,,,,,,66.58005899155654,66.9132248617918,0.09282289219327572,0.08060334392137158,815.0,80.0604,0.09823361963190184,104.0,1.1516010090576922,760.4,898.4,43.15789473684211,74.73684210526315,678.0,1056.0,13.571428571428571,125.0,,,0.061528650761392426,0.03611821463624606,0.0038659998481644477,0.10151286524580293,1.7035352212466779,0.6061167775375776,0.35579938117980936,-3.320957980330348,47.31479505083327,97.42855966966002,0.48563578494086523,14482.152559365244,2.0591563286914036,4.867803228119562,802.4825409562737,0.5052631578947369,0.5161290322580645,0.8125,0.07692307692307693,51.687209537280275,51.71107284068559,51.663068668279564,51.61290322580645,0.563762770192924,0.4362372298070763,35.538560006165525,31.261728981691512,0.5218904184432823,0.4781095815567178,70.38432403063865,67.36743404683428,0.5298857413765515,0.47011425862344836,55.75366497622271,52.51507816322517,1.2316493796986852,1.8260414567899024,1.3300449962608392,2.1350548622772543,-1.6445422255723,-2.6253117339395353,-0.059150279407355004,0.003025961191030128,0.31156785863442316,0.5516309935851202,1.461517782357478,6.246119950413438,1.3220682834536681,0.9559658007822465,1.0201059828477483,1.314914227815901,1.959835939232936,1.8234651713658399,2.508852477393118,0.9681892475435081,Relax
72.71029492420345,825.7157894736843,75.04121749084564,,,,,,,62.70404988786949,63.03960563240162,0.09088020169588536,0.07593902246660124,816.0,77.09519999999999,0.09447941176470587,102.0,1.196752325009917,763.4,888.2,40.0,73.68421052631578,678.0,1056.0,11.875,125.0,,,0.05849782045270752,0.026834210442398906,0.0029047867151927855,0.08823681761029922,2.1799717408595374,0.6629638515643782,0.3041158007410588,-3.6180776964655776,44.57573262599686,96.9098140962855,0.4599712943593957,13571.133506977649,2.174048711871694,4.839586232880684,842.7466260150193,0.5157894736842106,0.5268817204301075,0.7959183673469388,0.07692307692307693,49.70911441499677,49.696987411628506,49.72879679314247,51.61290322580645,0.5277456850717961,0.472254314928204,32.38287414103956,30.633104589221663,0.536766774404338,0.463233225595662,71.00036365832625,65.95802019892683,0.535191420385095,0.46480857961490496,55.18016934211503,51.423960978012154,1.3105937882452086,1.6609373676004138,1.4608534981396313,2.0190667966941374,-1.2047424640917779,-1.8973472274257448,-0.1639167078521649,0.001964116553307695,0.22229329725274743,0.5628810520967136,1.4000876832522264,6.246119950413438,1.2799199856988799,1.0380669034257546,0.9956947487309055,1.4621613809776368,1.9016362296338047,1.8049371816852942,3.138247486912929,0.8990328727189718,Relax
72.30553335295642,830.1052631578947,78.31666131858267,,,,,,,65.76675419576982,66.11932340801826,0.09434545809365147,0.07922700543492434,816.0,81.54299999999999,0.09993014705882353,102.5,1.1908244868745563,768.0,898.4,41.05263157894737,72.63157894736842,678.0,1056.0,10.555555555555555,125.0,,,0.07662345877163228,0.02050828429320103,0.003234325326338199,0.10036606839117151,3.7362198454131397,0.7634398756459837,0.20433483767911545,-3.8869263626055175,46.75342194927614,100.89028343096345,0.4634085697783599,14818.785707165698,2.157922975999952,4.8777827277560135,870.8538426832932,0.5263157894736842,0.5376344086021505,0.82,0.08,49.9052830982951,49.882402677461435,49.935722520369424,52.68817204301075,0.5552456496341387,0.44475435036586114,34.838259156784346,31.179845985811486,0.5214511308206671,0.4785488691793331,72.85446090069192,69.79310007192467,0.5274254597752588,0.47257454022474127,57.102875471405625,54.052102703542516,1.3103235601567316,2.148306677966806,1.564065024417745,2.186233846643467,-1.6692842002657624,-2.209953680637854,-0.2103910588712813,0.002405870382246066,0.34503342665747566,0.5564595457779187,1.5040773967762742,6.2671725819923845,1.2572953770476578,1.1465593007434065,1.1869580101296564,1.6439483255875273,1.940532153910611,1.808054670568581,3.352245258890422,0.9681892475435081,Relax
72.30516205463611,830.4631578947368,79.25984877741999,,,,,,,66.67274794958534,67.02333326546263,0.09544053583105051,0.08028381188950501,816.0,81.54299999999999,0.09993014705882353,103.0,1.1887892912011426,763.4,900.0,42.10526315789473,72.63157894736842,678.0,1056.0,11.875,125.0,,,0.06597705727445487,0.017191856686143914,0.0027997796481476237,0.0859686936087464,3.837692372553935,0.7674544593491694,0.1999781078957192,-4.063319455754854,47.39265344973453,101.72093431840375,0.46590855429411904,15145.06836885297,2.146343935485502,4.887241348155496,873.3124419448997,0.5052631578947369,0.5161290322580645,0.7916666666666666,0.08333333333333333,49.067164179104466,48.95826835971969,49.18260857430221,53.76344086021505,0.5522814188687913,0.44771858113120844,35.22378534120716,31.71453654015756,0.5148775271888059,0.48512247281119436,72.98982272975884,70.8493772484091,0.5215498325909874,0.4784501674090127,57.30719534179395,54.88827782160949,1.3074174583328855,1.640941640010535,1.5344694915589816,1.9534277095163128,-0.6801520934787515,-1.2868840673778683,-0.24468426680022484,0.0017949436741244726,0.21943442583245906,0.5624303722984325,1.5950491749820008,6.246119950413438,1.275587774865272,1.102330545315492,1.131221077828719,1.488749957151194,1.9280207452257119,1.8085853459203878,2.994413145233467,0.9681892475435081,Relax
72.4611488463972,828.7263157894737,78.99211408328064,,,,,,,65.1934926918454,65.53853426652614,0.09531749213011292,0.07866709606022322,815.0,84.5082,0.10369104294478527,106.0,1.2116564218557537,760.4,899.2,38.94736842105263,74.73684210526315,678.0,1056.0,13.571428571428571,125.0,,,0.05594305845559034,0.018148765704238214,0.0030389369763315997,0.07713076113616016,3.082471798207531,0.725301522136326,0.2352986724998073,-4.009152725859872,46.34274200888755,102.15958980469863,0.4536308544061529,14873.416502431006,2.2044355896141536,4.879380849682498,900.8169423434435,0.5157894736842106,0.5268817204301075,0.7959183673469388,0.08,49.2324093816631,49.18201612443943,49.294772944295694,51.61290322580645,0.5496648461395983,0.45033515386040185,34.360595711285455,31.10137776569924,0.5298511531477145,0.4701488468522854,74.36285965356731,70.04817551662667,0.5332329841713016,0.4667670158286984,57.92445698273985,54.19429209858206,1.3047597630961514,1.879560279185232,1.5779326931313509,2.0649865766005386,-0.9764127713321322,-1.5847690745640852,-0.24086817599682406,0.0021998152524206394,0.2885969610838944,0.5580223827734203,1.3071570405611668,6.296171397804632,1.23673861883125,1.3243073067091846,1.0051477868116203,1.3080310701164894,1.875727732536352,1.7728849230641919,3.284123325445699,0.8990328727189718,Relax
72.38928074894007,829.2842105263157,79.45929817956645,,,,,,,65.5264279963241,65.87454799939742,0.09581672624532016,0.07901564646303458,812.0,83.0256,0.10224827586206896,107.5,1.2126297832688813,760.4,900.0,38.94736842105263,76.84210526315789,678.0,1056.0,13.571428571428571,148.4375,,,0.06607738464796167,0.0210654206341682,0.005236405193890667,0.09237921047602053,3.1367702452038335,0.7152841457236074,0.22803204883025371,-3.8601224153589633,46.580339597972625,102.4302109926514,0.4547519637669634,14989.273724205983,2.199000949256918,4.882750700434418,900.9765248217072,0.5263157894736842,0.5376344086021505,0.8,0.08,49.35937828187355,49.366049898586255,49.36322317225306,51.61290322580645,0.5490065880592355,0.4509934119407644,34.51538538039216,31.28304704241683,0.5245757960071349,0.47542420399286517,74.18774857624663,70.6266669551006,0.5287626415866028,0.4712373584133973,57.858162201928664,54.62030353927358,1.2947124028314283,1.6270119104678105,1.5289305022606596,1.9326675256812733,-0.7527849350964697,-1.3827549595548643,-0.2518536767782307,0.0013797900180273026,0.20349156902400994,0.5740708973413526,1.316614440481901,6.288225213571333,1.244935805125399,1.2832126873167236,1.0577857853024704,1.2979776685958249,1.7902824220192097,1.7715210376226735,2.8972448018195887,0.8298764978944355,Relax
72.59043776520073,826.7578947368421,78.15011683598537,,,,,,,62.77145305908519,63.08305253247796,0.09452600009445405,0.07592483054433415,808.0,75.6126,0.09357995049504951,107.0,1.2449945481176712,760.4,897.2,37.89473684210527,76.84210526315789,678.0,1056.0,13.571428571428571,156.25,,,0.07580778885873786,0.015641795837680925,0.0028564253735266776,0.09430601006994546,4.8464888332142575,0.8038489678707886,0.16586213143870282,-4.157808727075539,44.60645422366237,98.70126096246166,0.45193398532798096,13831.531692979503,2.212712547551104,4.847840386164769,873.5900743630194,0.5263157894736842,0.5326086956521738,0.7959183673469388,0.08,48.225737494655846,48.45662825800075,47.971452166617084,51.08695652173913,0.49854205365242565,0.5014579463475745,31.50797816699832,31.59998638899938,0.5066852909514608,0.49331470904853936,70.25736369856179,69.32417876692062,0.5053032592276128,0.4946967407723871,54.446532681356445,53.8720748695134,1.3501842403428361,2.199773903822936,1.6290554664814054,2.170915289021267,-1.5019118766913255,-1.8164876963100536,-0.25367476557560037,0.002250415603848837,0.34367756848490993,0.6494708224987455,1.3388921222253067,6.267172581992386,1.2532963315124586,1.3765116535343338,1.0616143199484116,1.2705965710182971,1.783938639669605,1.7743715431673166,2.240766236795897,0.8990328727189718,Relax
72.77887344659511,824.9791666666666,73.22668181629263,,,,,,,60.93352719843244,61.25381447088859,0.08876185578378358,0.07386068601542355,810.0,80.8017,0.09975518518518518,104.75,1.2017469722018068,761.0,889.0,34.375,75.0,678.0,1025.0,13.714285714285714,156.25,,,0.0786850712380087,0.024252196360755922,0.006401229542132771,0.10933849714089738,3.2444513506139265,0.719646540747788,0.22180839315455103,-3.7192480941224386,43.312987585908,94.53850125469982,0.4581518324393234,12864.020594292426,2.18268252835688,4.816346836638275,825.3901397827132,0.5625,0.5604395604395604,0.803921568627451,0.08333333333333333,50.632349678278246,50.6155115978426,50.64869555212083,49.45054945054945,0.5260301934935148,0.47396980650648524,31.41554026612889,29.820473475414037,0.5435332988141541,0.4564667011858459,69.69823668057327,63.87240423769619,0.5404964849265631,0.4595035150734372,54.05913598363359,49.844481446803826,1.2672289231156764,1.826702869051526,1.539140775420832,1.9566383031897616,-0.9853188530239727,-1.453452020037533,-0.27144748889253906,0.0014846677462435718,0.2414326863338178,0.6464437440053299,1.4987723445465808,6.264599089240286,1.271006305961061,0.7212666764166178,1.1197114389344691,1.575110391465277,1.777190919413059,1.7847991778482892,3.0612293976456755,0.8917136719726565,Relax
72.40243873571788,829.3157894736842,71.69309043503021,,,,,,,61.00749866710666,61.333126933097454,0.08644848119982067,0.07356365264168475,815.0,84.5082,0.10369104294478527,104.5,1.1751521042721407,768.0,890.6,34.73684210526316,73.68421052631578,678.0,1025.0,13.571428571428571,156.25,,,0.062269718416882766,0.027266913279590237,0.006299648417908401,0.0958362801143814,2.2837098493100334,0.6497509955787447,0.2845155639080205,-3.602081279598697,43.36906996576848,91.72032081309568,0.4728403649409861,12496.705830648,2.1148786654980425,4.803765656720574,775.9093987210086,0.5789473684210527,0.5777777777777777,0.8269230769230769,0.125,50.4522840343736,50.41584296477023,50.491315078109345,50.0,0.5219659292288343,0.47803407077116544,31.333705099601882,29.986107894601233,0.5402038940430848,0.45979610595691506,67.4131188833073,62.19395993569045,0.5368712336025439,0.46312876639745587,52.56581433233838,48.82240939952132,1.3290389546376065,1.925999582560717,1.5306713617178191,2.160020759357815,-1.598633242128134,-2.2748136779233086,-0.1732349252105013,0.002151065939546355,0.28651840127976375,0.6631245443802802,1.6094379124341003,6.204014687255544,1.3035596641432783,1.4459562955824343,1.2528436362413966,1.5818958234641667,1.8079492957374195,1.7878457024522163,3.1951224961529916,0.8990328727189718,Relax
72.68532012945808,826.375,73.21967667663917,,,,,,,63.75916858732843,64.06486949022492,0.08860345082636717,0.07715524863086182,811.5,79.31909999999999,0.0977438077634011,108.0,1.1483787869089455,761.0,889.0,36.45833333333333,75.0,678.0,1025.0,13.714285714285714,179.6875,,,0.06507797174173274,0.02443358007026687,0.008063957392233981,0.0975755092042336,2.663464443384041,0.666949855270744,0.2504068927698381,-3.7117968604348146,45.300703652369194,92.55105609512248,0.48946717156646885,13171.529213698806,2.0430379361288824,4.826606309412328,756.3412745245097,0.5729166666666666,0.5714285714285714,0.8269230769230769,0.125,52.065054568799496,52.01105914717782,52.11864404718774,49.45054945054945,0.5616744821943205,0.4383255178056793,33.96783522374121,30.007091360458336,0.5355738766361939,0.46442612336380623,67.73155893347233,63.07244968101421,0.5406225779189593,0.45937742208104054,53.578810668704044,49.38906478502586,1.2831012643838973,1.706222619775268,1.5397384469784106,2.070118402806612,-1.0715567456746609,-1.9393684027448224,-0.18914961642106265,0.0020142263808260543,0.25287872491909597,0.6498567300591005,1.7227665977411033,6.222932422573622,1.31066081544424,0.9660884087105305,1.1905372067364022,1.6627044332926513,1.8117209475228442,1.8114975916921758,2.69808742014385,0.9603070313551686,Relax
72.0253805161399,833.3473684210526,72.8166991048965,,,,,,,64.15075329983405,64.49381952409256,0.08737856728684781,0.07697960746114889,819.0,85.9908,0.10499487179487178,103.5,1.1350872025548742,773.8,898.4,36.84210526315789,75.78947368421053,678.0,1025.0,11.875,210.9375,,,0.07505697327528654,0.017149130419619924,0.00697706718981011,0.09918317088471658,4.376721818466993,0.7567510960355098,0.17290363139884735,-4.065807811051039,45.6040171301072,92.47423355166421,0.4931537724465572,13248.713640482529,2.0277650823574898,4.829143823256484,750.0640872553445,0.5578947368421052,0.550561797752809,0.7959183673469388,0.13636363636363635,49.656946826758144,49.602308632961346,49.71496804650696,52.80898876404494,0.5501189122117671,0.4498810877882328,33.824976456134664,30.588493162928025,0.49682001991731295,0.5031799800826872,65.1808897384561,65.59676427897162,0.507246831218115,0.4927531687818852,51.92628149287621,51.17905527581308,1.1618026073914804,1.9935801454185356,1.4247753347868206,1.8064552807090708,-1.0812388156548725,-1.1828876166406337,-0.30854547192427034,0.0013780542915111862,0.25412823008191504,0.6006706744484731,1.763588592261359,6.175015871443297,1.3565190739196282,0.8432566261738648,1.0489537460551115,1.395568665480774,1.8557975903299402,1.8300722404432483,2.9054285818758885,0.8990328727189718,Relax
72.64069936652169,826.8736842105263,79.29828445264914,,,,,,,65.0027822645128,65.35126913798652,0.09590132805878411,0.07861271135575619,815.0,90.4386,0.11096760736196318,109.5,1.2199213893639862,760.4,898.4,35.78947368421053,75.78947368421053,639.0,1025.0,13.571428571428571,250.0,,,0.07633428102218354,0.010735056782584788,0.00521264705706723,0.09228198486183556,7.110747764838908,0.8271850799099206,0.11632884575095885,-4.534240558183799,46.21032556661741,102.61670011518744,0.4503197385488545,14897.278805084858,2.220644387524469,4.880077055698538,911.5007967082902,0.5368421052631579,0.5280898876404494,0.7872340425531915,0.13636363636363635,49.91507430997878,49.878006061667115,49.95418084943546,53.93258426966292,0.5631218780212699,0.4368781219787304,34.676926728183794,30.54355254633189,0.4365021379731242,0.5634978620268756,67.7971179400097,77.03075971038274,0.4578500283997594,0.5421499716002408,53.84671971570511,58.59456691413148,1.2247697284211383,1.3808912436333576,1.4224485488893466,1.6367590739324076,-0.23066442075109173,-0.5175522956816225,-0.3448027489267193,0.000752985151507869,0.12525320313648497,0.5844218573267419,1.4842747694800944,6.225067318834492,1.285436273021056,1.3709959106886915,1.1680574783690325,1.6378435915547955,1.8325330586116197,1.8246581444575352,2.9003014881481586,1.0373456223680444,Relax
72.28434904531699,830.5157894736842,75.8796447851541,,,,,,,63.455546510756044,63.79577075362409,0.09136448186402413,0.07640498508880751,816.0,78.5778,0.09629632352941175,107.5,1.1957921562032738,768.4,898.4,33.68421052631579,72.63157894736842,639.0,1025.0,13.571428571428571,250.0,,,0.051597970506682043,0.01830293974494649,0.0047614537847882835,0.07466236403641682,2.8191083632304714,0.6910840712398948,0.24514278353172916,-4.00069359023592,45.110422110910015,97.87251342205671,0.46091001991927855,13870.352713378947,2.169620873451905,4.84905761498075,849.3849922307838,0.5578947368421052,0.550561797752809,0.8163265306122449,0.14285714285714285,50.055370985603545,50.01934007694763,50.091411590026205,52.80898876404494,0.5783815630605996,0.42161843693940043,34.307120173859765,29.291178164757554,0.4370345809816548,0.5629654190183453,64.70213964262493,73.43474660688179,0.4618007900560006,0.5381992099439994,51.78486926196393,55.904539741851494,1.4134820890600595,2.734752596822074,1.7915522947227092,2.5525220605334673,-1.7541594219131333,-2.1824479444395353,-0.22174091115406747,0.00704981923409271,0.6883563021441707,0.6410721472074132,1.5488132906176655,6.140856792518702,1.2552110338923395,0.9187720117015912,1.0545196965424593,1.5141156040010222,1.7600231754247628,1.7791939867610187,2.8928011962264737,0.8990328727189718,Relax
71.58909824845692,838.6808510638298,80.88106398345572,,,,,,,64.05592314784465,64.35997517760619,0.09643842932727228,0.07637699497561264,828.5,82.2843,0.09931719975859989,114.5,1.2626633105696987,775.6,902.0,36.17021276595745,74.46808510638297,639.0,1051.0,13.428571428571429,148.4375,,,0.06341426701852693,0.022437365029883884,0.006949686691872888,0.0928013187402837,2.8262795980752067,0.6833336840395536,0.24177851494414326,-3.7970276281329514,45.509374885083204,104.21745447254405,0.4366770913318804,14900.169335053532,2.2900216655514605,4.8801613140023505,954.6409146829955,0.5319148936170213,0.5227272727272727,0.782608695652174,0.09523809523809523,52.39139973672664,52.273576797597876,52.50275415280519,52.27272727272727,0.6098680796867877,0.39013192031321253,35.563935078403084,28.444453879829346,0.43985654867286367,0.5601434513271366,69.11876861350308,77.99919000919054,0.467114320166753,0.5328856798332471,54.96452334418924,58.70673129468012,1.330258318487661,2.3032894622912954,1.6885374863588747,2.159418828756032,-1.013957026027244,-1.2081546659321072,-0.2955613698988889,0.00415209814293538,0.44409369469248167,0.6776853648541126,2.120263536200091,6.121026218675897,1.2669581196444069,1.355255118434042,1.4056931922529028,1.8955741509831405,1.7914152363846156,1.8041519981895182,2.5850239136079325,0.8367560236184219,Relax
71.19853414444596,842.7659574468086,85.29612245619776,,,,,,,65.96121375801167,66.24560108712208,0.10120973883971963,0.07826753462828953,839.5,86.73209999999999,0.1033139964264443,115.25,1.2931254232088425,777.2,909.4,38.297872340425535,74.46808510638297,639.0,1068.0,13.428571428571429,148.4375,,,0.06605227324096574,0.018327233955074965,0.006842555631833696,0.0912220628278744,3.604050311295083,0.7240822142511602,0.20090790963208494,-3.9993671311320367,46.842713752482936,109.78778671267104,0.42666598129969074,16156.450332588458,2.343753764839289,4.91531605982199,1029.2621537647826,0.5425531914893617,0.5340909090909091,0.7872340425531915,0.1,46.95945945945946,46.93003918961141,46.98762294771649,55.68181818181818,0.5438769054350621,0.456123094564938,34.58370438075789,31.671033261106068,0.4146221894362153,0.5853778105637847,70.69363288268801,83.99862130484452,0.4345655997542379,0.5654344002457622,55.648999716292835,63.47764460398939,1.2413581132060791,2.387401201395826,1.6266837840056891,2.1278031170882277,-1.00423786823891,-1.2635309756224036,-0.2900983995528056,0.004922848934915816,0.5041967202017759,0.723451767320439,2.1848020573376625,6.1503335325287,1.2439813563979694,1.4086087162513117,1.1534807048242777,1.6240432255099504,1.7822172197598467,1.7954935710400861,2.304549291157487,0.8367560236184219,Relax
71.50444942471437,839.8723404255319,83.71318597623355,,,,,,,68.62544435486903,68.98841464893745,0.09967370271274704,0.0817093754035275,839.0,87.4734,0.10425911799761621,117.25,1.2198563778085618,775.6,909.4,37.234042553191486,74.46808510638297,639.0,1068.0,13.428571428571429,148.4375,,,0.06491102124049325,0.03098123863328605,0.008947423095624888,0.1048396829694042,2.095171920297378,0.6191455315582793,0.2955106096832383,-3.4743734630855587,48.78217582157301,108.07799105524506,0.45136086769634304,16563.35473996296,2.2155221499457918,4.9261184132741445,957.7967324181544,0.5425531914893617,0.5340909090909091,0.7872340425531915,0.09090909090909091,51.06868644947086,51.091869905730455,51.04164975330109,53.40909090909091,0.6026932798147855,0.3973067201852145,37.87615689150055,30.75251845466234,0.4070619507866105,0.5929380492133893,68.9552787192382,83.2227233830389,0.44017905269778235,0.5598209473022175,55.63017941781866,62.73650882298981,1.3032831798657443,2.030327432041833,1.6258995246421284,2.166026629230658,-0.7599919613979154,-1.4541273647077562,-0.2339704443409201,0.004858907859706509,0.4222227387303894,0.6329016519934862,2.2129729343043585,6.171610128273381,1.2899055937266806,1.3045173738713198,0.9657351397768918,1.4785973017985883,1.7732352837046248,1.7792393900883903,2.4603767930875584,0.9064856922532903,Relax
71.88912451004742,835.1808510638298,84.59186808142056,,,,,,,68.36563621479554,68.72644991694295,0.10128568916980056,0.08185728411722243,828.5,79.31909999999999,0.09573820156910078,109.75,1.2373448528387039,775.0,903.6,38.297872340425535,74.46808510638297,639.0,1068.0,11.75,148.4375,,,0.06445423046801671,0.016487996616612557,0.0035481386045448874,0.08449036568917416,3.909160825704898,0.762858935954106,0.1951464700397809,-4.105122640597023,48.596938783148,109.72583667161797,0.44289421942241824,16752.039440526347,2.2578754839115027,4.931037796788368,990.9891062900958,0.5212765957446809,0.5168539325842697,0.7608695652173914,0.09523809523809523,48.88796508002494,48.83778193061358,48.94698174521101,55.0561797752809,0.583059753513593,0.416940246486407,37.11307633143079,31.38393039369865,0.39468457344151575,0.605315426558484,68.93407892565378,85.36891703634475,0.42558318624481767,0.5744168137551825,55.359225392480305,64.31486252381652,1.3316264387740773,2.064095549104424,1.5955401985061297,2.085673336283846,-0.9372724362334655,-1.24791370487993,-0.2625433871070665,0.0038055032633571005,0.361872163565454,0.621002937387924,2.2129729343043585,6.142302814420577,1.2511888813955658,1.2769202252765393,1.097702620365212,1.6583746965465191,1.7915811826018047,1.7746858413025737,2.800563775917503,1.0459450295230273,Relax
72.77459933457888,824.15625,93.56858763551614,,,,,,,63.52396978182413,63.7589367514664,0.11353258272993275,0.07707758059448573,819.5,97.1103,0.11849945088468578,123.25,1.4729650548742714,753.0,900.0,36.45833333333333,75.0,636.0,1068.0,13.714285714285714,148.4375,,,0.06286327775491594,0.0140242159267302,0.002812732888188484,0.07970022656983462,4.482480737842772,0.7887465376253872,0.1759620584571608,-4.266969734538623,45.084376538206065,122.55209235890408,0.367879288475734,17357.87959241587,2.7182829567366684,4.946466781403791,1332.5250558865082,0.5,0.4888888888888889,0.7272727272727273,0.09090909090909091,46.299110049924025,46.30270486781992,46.284204954336964,56.666666666666664,0.5341473785257974,0.46585262147420275,33.00282064025385,30.820861959310832,0.3826347394209386,0.6173652605790614,75.80763168422612,96.2923585751957,0.400746411038108,0.599253588961892,58.46359205430355,71.49176124522657,1.4163034929187466,1.9654094276182565,1.6352468621510603,2.099846211288483,-0.794625560735545,-1.0224355038168484,-0.2636119260400422,0.0038935041157287732,0.32950569146980724,0.6889721498952479,2.1335087629501115,6.2020990892402885,1.1328170320450504,1.5111342197838276,1.305396461511384,1.8126041190933084,1.8306236409358394,1.7265342238084678,2.1871304196495025,0.8231203125901446,Relax
72.98859154148008,822.0104166666666,91.1771548939832,,,,,,,61.45533251668924,61.78112578125744,0.11091970739703709,0.07476223083144941,812.0,88.2147,0.10863879310344826,123.25,1.4836329275286648,753.0,902.0,34.375,72.91666666666666,636.0,1068.0,13.714285714285714,148.4375,,,0.05862643568949692,0.015479948251320071,0.002433171750182124,0.07653955569099911,3.7872501081841463,0.7659625818338957,0.2022476889441949,-4.168209753764123,43.685852989266166,120.69949728568383,0.36193898045711037,16565.179792298968,2.7628966593679722,4.926166263876093,1333.920951352038,0.4583333333333333,0.4444444444444444,0.675,0.1,50.180995475113136,50.11603904816965,50.245335606468345,53.333333333333336,0.5842660928894736,0.41573390711052643,33.392412184347535,28.16762136952677,0.409291296475076,0.5907087035249241,77.21856311953603,92.76670822429253,0.4295581608085899,0.5704418391914099,59.488484943454104,68.55318026316519,1.4062340126400774,2.1946081764279732,1.6072995413677806,2.2521071057034643,-1.5564486620259927,-1.8506821877096495,-0.20618556366394447,0.00406078291261031,0.39029566000576194,0.6998571369218856,2.146580844517464,6.1812657559069555,1.1586416765210645,0.9390046892378912,1.2804428261781526,1.783081191284592,1.85544078922064,1.7226200755826848,2.4390209210154103,0.8917136719726565,Relax
72.90784413512097,823.5157894736842,90.00979416659419,,,,,,,62.133606899833026,62.45628166687681,0.10929941516254375,0.07544919926737911,816.0,91.9212,0.1126485294117647,112.0,1.448649107264946,753.8,898.8,34.73684210526316,72.63157894736842,636.0,1068.0,13.571428571428571,218.75,,,0.04931262623443733,0.013026717242634506,0.0028756048004471876,0.06521494827751902,3.7854990874480983,0.7561552609777419,0.19975048032239404,-4.340752857988229,44.16326029434563,119.8252944007236,0.3685637537150832,16624.917717479402,2.7132347929499496,4.927729614467274,1300.4566313740563,0.4842105263157895,0.4659090909090909,0.7073170731707317,0.15,51.216185496703794,51.21081254330551,51.20921505645241,52.27272727272727,0.5856432301354384,0.41435676986456144,33.802637168864386,28.432905365559844,0.4033732621087493,0.5966267378912506,76.10304928152428,92.55499483158093,0.4251780487845004,0.5748219512154996,58.882477824544736,68.46479816592193,1.4778464145813874,1.9849403039797258,1.7326887469978574,2.2912521895318014,-0.8450146028498793,-1.4202357032684478,-0.21859937479527886,0.00482761283492578,0.3894568846549411,0.7012517865813135,2.10684051586795,6.132910608285402,1.190513771209508,1.490069982630024,1.3736366750946643,1.7972462872539285,1.8977957606610887,1.7157902715248066,2.3788073397963583,0.8990328727189718,Relax
72.90864365396834,823.2708333333334,88.92569093783827,,,,,,,61.387895258027264,61.7053740892101,0.10801511159795117,0.07456585703330994,814.0,79.31909999999999,0.09744361179361179,111.5,1.448586737891296,754.0,898.0,33.33333333333333,68.75,636.0,1068.0,13.714285714285714,187.5,,,0.058498459503946526,0.013859848841817068,0.0021552604157709632,0.07451356876153456,4.220714105297356,0.7850712356988145,0.1860043623218837,-4.2787591913536565,43.632288454133146,118.32886537417268,0.3687374869704163,16219.914650954699,2.7119564333317423,4.917018674589275,1283.610910801333,0.5,0.4831460674157303,0.7441860465116279,0.15,48.90224173792465,48.90099308792577,48.91094329478002,55.0561797752809,0.5738467339841623,0.4261532660158378,33.057010715532165,28.487119149657946,0.39452046635040866,0.6054795336495914,74.32338295797092,92.07472577435067,0.4159895798318076,0.5840104201681924,57.518393630924756,68.15156301901183,1.373181422779031,1.9786117573546287,1.676762019652002,2.0962472758048043,-0.5885596503740942,-0.9760305869999275,-0.2879901124646872,0.0037668543119412034,0.35246807853347395,0.7057867275978063,2.184802057337662,6.1395990892402885,1.175777456148599,1.3607246488397862,0.9518604303256373,1.1283119286031251,1.8154059859651435,1.7070799479593468,2.548266072679178,0.8917136719726565,Relax
72.49561672998014,828.0526315789474,94.74673613881676,,,,,,,64.4029865833182,64.74762083680402,0.11442115214120119,0.07777644092563692,820.0,84.5082,0.10305878048780488,113.0,1.471154385305452,754.0,911.2,35.78947368421053,67.36842105263158,636.0,1068.0,15.833333333333334,148.4375,,,0.07423539119058824,0.013039363430271485,0.0015896812566949517,0.08886443587755467,5.6931760194863,0.8353779603448602,0.14673320436353504,-4.339782540372176,45.78348175939953,126.58740400747475,0.36167486108409413,18207.45240378616,2.764914312823879,4.967219293297694,1400.0133006539431,0.4842105263157895,0.4659090909090909,0.7073170731707317,0.15,50.3155996393147,50.25828885543333,50.3676641971158,53.40909090909091,0.5974228496388707,0.40257715036112945,35.387866215255436,29.049457271039255,0.40490366722277005,0.5950963327772298,80.55014912127565,97.65267190349626,0.427174154935637,0.5728258450643628,62.21184613370898,72.04136068132605,1.372317236285306,1.9186788274198872,1.634293908427443,2.038813886303557,-0.6893941538332466,-0.9856817874310186,-0.2891674353752651,0.0028245069771806242,0.29910794211927044,0.6873724841700013,2.1517622032594623,6.175015871443296,1.156852849737779,1.2748689706787455,1.174396632369532,1.4666616198249303,1.7601983472802472,1.6992740867547762,2.9340658375657522,0.9681892475435081,Relax
72.77917516680377,824.9375,94.95958281511695,,,,,,,64.17107070783122,64.48670965621083,0.11511124517326093,0.07778900911624362,814.0,88.95599999999999,0.10928255528255527,110.0,1.4797880379379178,754.0,910.0,35.41666666666667,67.70833333333334,636.0,1068.0,13.714285714285714,140.625,,,0.0727002117935241,0.015252463606981358,0.0021554245557127384,0.0901080999562182,4.766456991265841,0.8068110617008653,0.16926850765238907,-4.183014240977411,45.59898969431469,126.44004018742633,0.360637260370384,18112.972105824552,2.7728693340587536,4.964959828263377,1402.4068401314835,0.4479166666666667,0.44565217391304346,0.6829268292682927,0.14285714285714285,48.12013348164628,48.08198615946702,48.17432125103803,55.434782608695656,0.578914272129815,0.42108572787018517,34.70797627378001,29.601070998450698,0.3974597173652113,0.6025402826347886,79.71337274119163,98.1471444761478,0.4183576489229551,0.5816423510770451,61.47709089895776,72.48822446810637,1.4208850286728374,1.4854260164403668,1.6496974946901481,1.8774331454353637,-0.11294441726812998,-0.3580414537476271,-0.3466866419298655,0.0016096308319166327,0.17387114101212192,0.641516818264106,1.9924301646902063,6.207205599611882,1.1351184189628825,1.2091078373904063,1.192095284092987,1.4684979592511809,1.8316842534392235,1.6856219187801456,2.5069799102857515,0.9603070313551686,Relax
72.8953954865386,824.0208333333334,100.01494405881412,,,,,,,75.73888662614748,76.12042089376328,0.12137429056767066,0.09191380067390789,813.0,88.2147,0.10850516605166051,129.5,1.3205230300320494,747.0,916.0,37.5,69.79166666666666,636.0,1101.0,12.0,140.625,,,0.05263794702060353,0.012620810876892515,0.0021820261718526256,0.06744078406934867,4.170726234158102,0.7805061543542624,0.18713914808455762,-4.372408170613692,53.82526580075417,131.0339996739347,0.41077327971895145,22157.464054739205,2.4344329326488663,5.05249016339833,1275.9739364117095,0.4479166666666667,0.44565217391304346,0.7073170731707317,0.09090909090909091,51.66666666666667,51.56416548116073,51.76012229030642,53.2608695652174,0.660066133779608,0.33993386622039223,43.74168614014529,31.390556243504125,0.3954815000568897,0.6045184999431106,82.40377051483142,101.8799669978731,0.4336979981066671,0.5663020018933327,65.96861564957983,75.38200944775984,1.3257713869648744,2.0362646906980553,1.6409239233002422,1.6032654074889892,-0.0933686216054781,0.8722746674749855,-0.5184939197655798,0.0011441659871342022,0.23651860339778047,0.7048452921816866,1.8111775550851563,6.228038932945214,1.124621833015519,1.238435185336079,0.8067312431836037,1.3234566680539346,1.834285262194312,1.6951873436510965,2.409437636082664,1.0289003907376806,Relax
72.71245943603014,825.578947368421,100.29017250462698,,,,,,,75.12054142963062,75.51786360612326,0.12147859732168256,0.09099134815523281,813.0,90.4386,0.11124059040590405,128.0,1.3350565716911675,746.2,916.8,36.84210526315789,69.47368421052632,636.0,1101.0,11.875,140.625,,,0.04396896963877592,0.006906958300210126,0.0012989605385056444,0.05217488847749169,6.365894758252454,0.8427228293500654,0.13238089245154394,-4.975225926216513,53.39919345661053,132.0645594864134,0.40434158614752475,22154.95423445681,2.4731564455879345,5.052440967207174,1306.465266110218,0.4421052631578947,0.43956043956043955,0.7,0.09090909090909091,50.87466556904713,50.76616572306746,50.98069727105743,53.84615384615385,0.6565620575698792,0.3434379424301207,43.271709698312755,31.29610577306927,0.3913156211740843,0.608684378825916,82.61328272191967,103.03442817936434,0.42859228374526015,0.5714077162547396,65.94465612279316,76.14308775853435,1.4082293105255013,1.8193853456625702,1.727503883515225,1.5736267691742065,0.19854701418520193,1.1591359802874432,-0.5845764283568969,0.0006846185374795908,0.18678838928502506,0.6730023718371259,1.660731206821651,6.209174950367892,1.1001897542460461,0.973772687112942,0.8014819131791027,1.3695414278435822,1.7940407806624519,1.6596130147571582,2.5272678530537758,0.8990328727189718,Relax
72.9922396863052,822.65625,98.76743850021998,,,,,,,73.27662081383623,73.65422986297342,0.12005918450169191,0.08907319529127292,812.5,87.4734,0.10765956923076923,114.5,1.3478710863475096,743.0,902.0,37.5,66.66666666666666,636.0,1101.0,10.666666666666666,140.625,,,0.07022914588359858,0.013056178023481583,0.002842091623165716,0.08612741553024587,5.3789972653016225,0.8154098837313398,0.1515914293155188,-4.338493845476387,52.08140539918123,129.9567298131967,0.40075958724141836,21263.33307110969,2.4952615778536527,5.034601452036783,1297.1041387455118,0.4270833333333333,0.4301075268817204,0.65,0.09090909090909091,48.7308579819593,48.64482989178537,48.84299012025062,54.83870967741935,0.6286603188792764,0.3713396811207237,41.300597594975876,31.74197838020437,0.3914079267429618,0.6085920732570383,81.30431266744084,101.38224876878209,0.4242481317236187,0.5757518682763814,64.48306219476207,75.11961646901753,1.3782830264340715,1.9576834108474377,1.7404929245764236,1.6576848714249028,0.15836419385128053,0.9631634210624265,-0.5422990013056682,0.0014309030434253424,0.24729915133424402,0.6442823985669048,1.6805338341178306,6.269705599611882,1.106100998232771,0.9402877564684919,0.8469552026299977,1.0124971647983783,1.7996573859821445,1.6311670048691516,2.600980087602589,0.8917136719726565,Relax
73.42753890077888,818.2164948453608,98.10010053555456,,,,,,,73.21700053038684,73.57556981555909,0.11989504141455255,0.08948365254384724,803.0,78.5778,0.09785529265255292,110.0,1.339854129845713,736.4,896.8000000000001,37.11340206185567,65.97938144329896,636.0,1101.0,10.777777777777779,140.625,,,0.05746329861059668,0.018657466424631366,0.003463050702603271,0.07958381573783133,3.0799089920769904,0.7220475429312779,0.2344379476110275,-3.981508868524528,52.0257843462461,128.14960332881773,0.40597694409364404,20945.260942955785,2.463194066925477,5.028055885276354,1262.6293703935885,0.4639175257731959,0.46808510638297873,0.7045454545454546,0.08333333333333333,51.94073455759598,52.11082712189874,51.800886084522205,51.06382978723404,0.6453860054796648,0.35461399452033504,41.81003405127076,30.99193443462347,0.424812493976104,0.5751875060238959,83.52488892590078,97.19009086964199,0.456041593310383,0.5439584066896171,66.04727858682931,72.13325780543003,1.305745205713114,1.96350848181428,1.6214389858395069,1.5301380378714988,-0.14897945816938218,0.7953446757327729,-0.5464988813715976,0.0005585310531573836,0.20201282118209846,0.625896869890028,1.5493339883643946,6.246668898821247,1.1213875389842058,1.141959732384241,1.0973965958144556,1.4134915715543415,1.7550620581736018,1.6286550637733,2.063319954669916,0.816484062950985,Relax
73.22428655861705,820.0833333333334,95.96958582545186,,,,,,,72.24920323727488,72.6222952016689,0.11702418757295216,0.08809983120082295,802.5,83.76689999999999,0.10438242990654205,111.5,1.3283134142016273,736.0,898.0,37.5,66.66666666666666,636.0,1101.0,13.714285714285714,140.625,,,0.049853939721570886,0.021722523795161968,0.003732810054017637,0.0753092735707505,2.2950344164279075,0.661989385340901,0.2884442083318517,-3.8294055938360696,51.351717402431355,126.05309142937578,0.4073816581579228,20335.6634831211,2.4547005982590084,5.015228456476563,1237.690395776345,0.4791666666666667,0.48387096774193544,0.7111111111111111,0.08333333333333333,48.77477093543575,48.57907500130735,48.99058323548962,52.68817204301075,0.6201211950110407,0.3798788049889593,40.44401173358527,31.654719657513073,0.43647648331882777,0.5635235166811721,83.27869785175423,94.62579110907765,0.46262230915065017,0.5373776908493498,65.4639580264979,70.55516146822478,1.380033903591931,1.9828559213523227,1.6059872654873173,1.8536860044536707,-0.6760820181672571,-0.346528449817491,-0.3750798097335176,0.0018575479753696895,0.24147163500707558,0.6262006566796394,1.4033887944791907,6.207205599611882,1.0961166642287246,0.9365601408038317,1.197061769682771,1.4833242713201573,1.8354817311360996,1.6445109625003227,2.7879074221239466,0.8231203125901446,Relax
73.1463885860219,820.8645833333334,96.21692812999139,,,,,,,72.48034216254777,72.86269742722803,0.1172141301787898,0.08829756287964399,807.0,91.17989999999999,0.11298624535315983,116.0,1.3274899822383681,736.0,901.0,38.54166666666667,68.75,636.0,1101.0,16.0,140.625,,,0.05253290893549971,0.01654797405442047,0.003249241740855532,0.07233012473077571,3.1745825055524883,0.7262936311949633,0.2287839833819543,-4.101491598282408,51.52170744633654,126.44230079815463,0.40747208110822736,20465.978322780564,2.4541558707046565,5.018002619755677,1241.236459236781,0.4791666666666667,0.48387096774193544,0.7333333333333333,0.08333333333333333,49.44687956585264,49.3604606975706,49.55243865716106,51.61290322580645,0.6173625902423091,0.3826374097576908,40.48305398033192,31.87108340560152,0.4380862172881065,0.5619137827118937,83.68973348702838,94.78229760878969,0.46361498270037294,0.5363850172996267,65.73754311922643,70.70873318568219,1.3991625724004515,1.9883632644992941,1.6075733444343685,1.9158434757577827,-0.8167761670564335,-0.572448521361868,-0.3449628713086076,0.0020859715697061783,0.2499403642007728,0.6125787490802299,1.367602228107738,6.269705599611882,1.0966626642319333,0.9736823484089522,1.0970165993752956,1.406171706486992,1.8661711287807448,1.6734966545717513,2.763732709577998,0.8917136719726565,Relax
73.67581246146206,814.7731958762887,87.20121668142968,,,,,,,70.54342634150967,70.89985215138124,0.10702514162563333,0.0865804455749679,808.0,80.0604,0.09908465346534653,105.0,1.2361352602760962,736.4,879.4000000000001,35.051546391752574,68.04123711340206,636.0,1101.0,16.166666666666668,140.625,,,0.054835240752229196,0.015242044116076341,0.002957221010888543,0.07303450587919408,3.5976303660210815,0.7508127848900878,0.20869647754293172,-4.183697609366574,50.1337662413653,112.61503670126858,0.4451782613573535,17736.853834267353,2.246291175474267,4.9558466970701,1011.8646526710812,0.4742268041237113,0.4787234042553191,0.7111111111111111,0.08333333333333333,48.55603448275863,48.51129611012402,48.628736966350594,53.191489361702125,0.6236530104744921,0.3763469895255081,39.59924241699581,30.76164734484194,0.40045305911466783,0.5995469408853322,71.26432739142797,87.19829202843046,0.43738316271107436,0.5626168372889255,57.6485227848582,65.38280003198035,1.1941391475492542,1.7978066204385343,1.4380898484104208,1.4171916585866675,-0.24624103564966937,0.46581328999144445,-0.5116242701446141,0.0004996928861272455,0.16008797082291404,0.6054937158913116,1.504077396776274,6.267287455522278,1.1567164327514146,0.8502993454155388,1.1346540247474626,1.6044419831566987,1.878662532060502,1.682555664739071,2.473279923947539,0.8845244015302336,Relax
73.6529009495596,815.4536082474227,85.13298672989961,,,,,,,71.6786085011886,72.04481350873755,0.10439954630020938,0.08790028982180931,809.0,74.13,0.09163164400494438,102.0,1.1877042329649563,745.2,876.4000000000001,36.08247422680412,69.0721649484536,636.0,1101.0,13.857142857142858,140.625,,,0.04643749816207422,0.018319409692349783,0.003650301448602216,0.06840720930302623,2.534879613586381,0.6788392427524433,0.2677994012473092,-3.9997941422886023,50.9433761813485,109.46205758361477,0.4653975752505327,17518.672900554364,2.1487004943282746,4.95047131374614,940.8047089604124,0.5051546391752577,0.5053763440860215,0.7659574468085106,0.08,51.20772946859903,51.13654024980199,51.28394287354451,51.61290322580645,0.6481425538946254,0.3518574461053746,41.01886600603498,30.222595241936038,0.40766996799810096,0.5923300320018994,69.89047096891966,84.24526169572503,0.45049202535256394,0.5495079746474362,57.302815378820846,63.2877135838351,1.2612237875838874,1.878713057206375,1.4302343820571293,1.3230023116558827,-0.34554529625531316,0.9992338317823082,-0.5570774073187629,0.0006660626418050919,0.14881786391930657,0.5901473890422944,1.4733057381095205,6.218267996737088,1.1603880782992064,1.2341543136706385,1.162813008097111,1.5937282192775415,1.8670183610596507,1.6784739881879234,2.346153752893974,0.8845244015302336,Relax
73.95752025013682,812.0618556701031,82.60723011549263,,,,,,,67.25642782168357,67.6076910591604,0.10172529289326881,0.08282180396982743,805.0,68.19959999999999,0.08471999999999999,98.0,1.228242902440619,746.0,871.4000000000001,32.98969072164948,67.0103092783505,636.0,1101.0,13.857142857142858,140.625,,,0.04579758355051155,0.02205818612191979,0.005492919954886634,0.07334868962731797,2.076217114924119,0.6243817549189686,0.3007304729504594,-3.814071493291737,47.805856808297435,106.6289534653007,0.44833842267667445,16014.232363607798,2.2304579518966725,4.911476235712843,951.3255886364009,0.5051546391752577,0.5053763440860215,0.7659574468085106,0.125,50.53035432182351,50.501147675936785,50.57902443437683,52.68817204301075,0.637687133418845,0.36231286658115514,38.17652902531937,28.776269463058032,0.4239170123003448,0.5760829876996552,69.42494903135153,80.93151530213373,0.45969636028605454,0.5403036397139457,56.023525935212305,60.73707209485008,1.1789339439730635,2.0048278387459124,1.411161076873661,1.3260361375010392,-0.2937039440048608,0.9461712227422074,-0.5424599747307332,0.000675832722945691,0.18702929414268937,0.5843544989184344,1.5240780634829434,6.218267996737088,1.1298444057392636,0.795576535021619,1.0996782699926617,1.287478064336522,1.835026849109238,1.6633510741814252,2.1413312813642746,0.7484437243717361,Relax
73.6437202097148,815.2708333333334,81.97194374542737,,,,,,,67.96144417783397,68.29113455896383,0.10054565966781268,0.08336057344277285,809.5,72.64739999999999,0.08974354539839406,92.0,1.2061536469256344,758.0,874.0,33.33333333333333,66.66666666666666,636.0,1101.0,12.0,187.5,,,0.05262429977579714,0.022567655091393326,0.00620916136556282,0.08140111623275328,2.331846156044213,0.6464813040809723,0.2772401182664962,-3.7912375884817653,48.28912434156631,104.95778119923513,0.4600814135914509,15922.594826408726,2.173528359239465,4.908983953951483,912.5148558375532,0.5104166666666666,0.5161290322580645,0.7916666666666666,0.125,52.17586361597129,52.25011267851071,52.11793903373072,53.76344086021505,0.6575338094999341,0.34246619050006616,39.1745955457132,28.27185654215912,0.4320999146540919,0.5679000853459082,68.99327035156722,79.0952873467318,0.47151170958333466,0.5284882904166655,56.101338174657904,59.39428572178681,1.3022683520600142,2.164057137604283,1.5493146364899495,1.8418309112567277,-0.761828419116501,-0.34868308363436284,-0.3648296897139195,0.002678612014602381,0.30743454170760454,0.5912518958207142,1.533930359925955,6.186372266278549,1.1355075515886295,1.1294165417298159,1.0030920844024673,1.2432045610394353,1.7722939316498239,1.6712820559009443,2.075553497297271,0.9603070313551686,Relax
72.24103980793679,831.2105263157895,79.07051723954102,,,,,,,71.15012596989492,71.53081194759005,0.09512694406074079,0.08559820131881235,816.0,65.2344,0.07994411764705882,91.0,1.1113194272206544,773.6,882.4000000000001,35.78947368421053,67.36842105263158,703.0,1101.0,11.875,125.0,,,0.05540012403530139,0.025758150230786668,0.00604108067578157,0.08719935494186963,2.150780375878312,0.6353272231455519,0.2953938162496502,-3.659004188135365,50.57992219192063,100.3730515887788,0.5039193428047097,15949.429659230596,1.9844445629616223,4.909715267557021,796.739025972874,0.5263157894736842,0.5326086956521738,0.7959183673469388,0.12,50.34632034632036,50.27017685212307,50.427459313241975,53.2608695652174,0.5990375320472408,0.40096246795275925,39.1480509409232,32.028381231355965,0.4972197425465399,0.5027802574534602,70.7768630646607,71.1715191630045,0.5178392709739811,0.4821607290260189,57.192369411254724,55.18696559999921,1.1300954252591795,1.4818805996540854,1.2965831457168648,1.0043427032301044,-0.016608770310423182,1.244081116057219,-0.6972091695882772,0.00041093609809749924,0.09399068038662217,0.5320236132078251,1.4350845252893227,6.196068503022245,1.1810985764739321,1.3718534791840842,1.0408779453909205,1.3036898434422137,1.849578158927976,1.7131603864158438,2.569583857902842,1.0373456223680444,Relax
72.44138324075642,829.0421052631579,78.6704567260046,,,,,,,70.82274847905622,71.18994557163167,0.0948931980976198,0.0854272033102292,815.0,63.751799999999996,0.07822306748466257,88.5,1.1108077336093376,772.0,877.6,36.84210526315789,69.47368421052632,703.0,1101.0,13.571428571428571,78.125,,,0.05459085101891656,0.03101518056819407,0.00595349661112633,0.09155952819823697,1.7601332643827723,0.5962334242343522,0.3387433419386196,-3.473278498610629,50.338893266001975,99.22381939300057,0.5073267041517752,15691.681190779378,1.9711164261931566,4.902639585911017,782.326801100666,0.5368421052631579,0.5483870967741935,0.8235294117647058,0.08,51.34495373359156,51.218854397415626,51.46901006834938,53.76344086021505,0.615994790992829,0.384005209007171,39.515615533200815,31.19958298590902,0.48977668192603524,0.5102233180739648,69.44084429117099,70.87549279591741,0.5156202348964037,0.48437976510359637,56.495640216030814,54.757417112016725,1.154759843966846,1.445842317436036,1.2960505205070767,1.062176811034769,-0.08387438114828427,1.0616955019422658,-0.6617560273702906,0.0003668219688216102,0.08426910659608033,0.5703654679084846,1.515127232962859,6.225067318834492,1.1889928869470736,1.1342144019682385,1.0164562505044195,1.2400913492779786,1.8898322864602255,1.7021397612485636,2.578080438249706,0.9681892475435081,Relax
72.36934174244765,829.7473684210527,78.52726432902855,,,,,,,71.71055888304838,72.09415156269422,0.09463996791994662,0.08642456922702656,817.0,63.751799999999996,0.07803157894736841,88.0,1.0950586015805208,772.0,877.6,37.89473684210527,67.36842105263158,703.0,1101.0,13.571428571428571,125.0,,,0.05633274092110976,0.029400165968384073,0.0067240475469256275,0.09245695443641946,1.9160688066076923,0.6092861403935654,0.3179876099920844,-3.526754959470303,50.97826345387182,99.30055088049835,0.5133734204075141,15903.274964503535,1.9478998332367956,4.908456677839167,773.7101060017787,0.5578947368421052,0.5698924731182795,0.8301886792452831,0.125,50.36185610898255,50.287077371454394,50.4417425586222,53.76344086021505,0.5980686242464615,0.4019313757535386,39.42448886898402,32.319640155560926,0.4870177408614314,0.5129822591385683,69.29853422580945,71.1218149327248,0.5101812476624739,0.48981875233752625,56.37631226156216,55.239803127408514,1.1977904081649007,1.868257046562599,1.3864836916745105,1.2709749729772026,-0.4468565816363146,0.8483716536468311,-0.5618269947970126,0.0003490927226456272,0.139640739958754,0.5532153640175741,1.4098248585300845,6.2671725819923845,1.2008397801535495,1.2171145382291755,1.0270441739152032,1.4101789861281038,1.8519424739763186,1.7267428392812936,2.5890237693782394,0.8990328727189718,Relax
72.17134738305658,831.8842105263158,79.22642788678463,,,,,,,71.25672793916196,71.61321875168802,0.09523732616184616,0.08565702658796627,827.0,69.6822,0.08425900846432889,92.5,1.1118448766610094,772.0,892.0,40.0,71.57894736842105,703.0,1101.0,15.833333333333334,31.25,,,0.05612709435533074,0.02603247459975999,0.006443541360917889,0.08860311031600862,2.1560414527725387,0.633466411677309,0.29380994083518647,-3.648410497273366,50.63819260191422,97.90391903371227,0.5172233461305819,15575.003239606569,1.9334007397019797,4.899398255626424,757.1500379180081,0.5684210526315789,0.5806451612903225,0.8518518518518519,0.12,48.135028130860604,48.277395214681185,47.985566251093516,54.83870967741935,0.5581840695430631,0.44181593045693685,37.84617990409776,33.67084505104695,0.4684157933725256,0.5315842066274743,67.00633148227413,71.38157257617182,0.48737276993151896,0.5126272300684811,54.41590664523442,55.80795064280222,1.125581240780245,1.9287500262129522,1.3029376697742339,1.2583909458720426,-0.8525590257332709,0.342672790567625,-0.5230961624351381,0.0003422598016576493,0.1404727479317533,0.5745060381122973,1.491654876777717,6.238173766180139,1.1908108126614239,1.1154850884137704,1.0560250399911608,1.183702871238283,1.8919450061938923,1.743720582003609,2.367119942458578,0.8990328727189718,Relax
72.78844429487229,824.84375,71.05806789631909,,,,,,,69.0637386766746,69.43012632286799,0.08614730716735029,0.08372948049454773,818.0,58.5627,0.07159254278728606,81.25,1.0288766472516213,772.0,869.0,36.45833333333333,70.83333333333334,703.0,1101.0,13.714285714285714,148.4375,,,0.054638951691321824,0.030081271546858787,0.0068847899403877925,0.09160501317856841,1.8163777287874472,0.5964624619922544,0.32838018906476724,-3.5038525086244334,49.094513141538556,88.29265700541029,0.5560429916445963,13617.81458195315,1.7984220915046907,4.841077526558205,635.1498595047051,0.5729166666666666,0.5851063829787234,0.8545454545454545,0.12,49.98918918918919,49.91070992699966,50.07669943010738,55.319148936170215,0.5879315253204923,0.41206847467950775,37.644049570750305,31.51502512311609,0.48682212100110395,0.513177878998896,61.604117196457736,63.24971166353351,0.5107006559010759,0.4892993440989242,51.04969012462273,49.96860431326237,1.1707805547429546,2.297107998483898,1.4800826712000066,1.7477646364612553,-0.5184993951175727,0.011187344595609883,-0.3834700129737391,0.004634196260888312,0.4039888013250255,0.597603704477073,1.509908317087067,6.209962500721158,1.2466923547482966,0.8667297600883455,0.9876464647975844,1.1925778680344015,1.8543966479772447,1.780914941318165,2.6356911320347653,0.9603070313551686,Relax
72.67674686289344,826.4315789473684,72.88925622485331,,,,,,,71.61510597810576,71.96203147437551,0.08819756902040561,0.0866558197949338,821.0,63.751799999999996,0.07765140073081607,84.5,1.0177916408744418,771.0,872.0,38.94736842105263,72.63157894736842,705.0,1101.0,13.571428571428571,31.25,,,0.053345360957234446,0.03469008169574104,0.006919077967397941,0.09495452062037342,1.5377698278463192,0.5617990655811775,0.36533365098467935,-3.3613014629804487,50.88484044349068,88.82383810907095,0.5728736961468249,14199.329100161274,1.745585469757202,4.859237934979978,620.198404685041,0.5789473684210527,0.5913978494623656,0.8727272727272727,0.12,52.25563909774436,52.1813398622171,52.330666908992626,54.83870967741935,0.6118647583488901,0.3881352416511098,39.82353548461793,31.71784206682958,0.4692502938687003,0.5307497061312996,60.845969008525266,64.71044947950854,0.5045165842161621,0.495483415783838,51.42054999259071,50.958138590495885,1.0680027765087872,0.9556768328798575,1.1811089858669894,1.2684854532226313,0.12321382796979208,-0.13247939760746563,-0.4085711148900202,0.00018334085551793226,0.046537106940672666,0.594145726876055,1.585627263740382,6.246119950413438,1.2503476572949523,1.1751083261885538,0.9896424761143632,1.2476139835825246,1.8861302511911449,1.820733824532643,2.3102510118402972,0.9681892475435081,Relax
72.70998872697724,825.6875,67.16692677673721,,,,,,,60.45668305750647,60.77741041720416,0.08134666780923439,0.07321981143896023,826.5,57.080099999999995,0.06906243194192377,81.75,1.1109925880791038,772.0,869.0,39.58333333333333,70.83333333333334,705.0,1047.0,13.714285714285714,23.4375,,,0.060937483540037696,0.028552343180143613,0.00906724953811541,0.09855707625829672,2.1342375704707814,0.6182963806711734,0.2897036343216403,-3.5560162733882397,42.97611904896297,85.26632869140455,0.5040221586706508,11512.10204823482,1.9840397545962694,4.768124740680892,676.6871434088766,0.6041666666666666,0.6170212765957447,0.896551724137931,0.16,50.0,50.0002038257974,49.99504426122757,54.25531914893617,0.5008236710384592,0.49917632896154096,30.41372520509554,30.363664595360923,0.527546638736248,0.4724533612637521,61.930985954339484,58.60801811385574,0.5221332011552514,0.47786679884474864,48.787507120817615,46.67361093216175,1.1346814720337333,2.083825890549353,1.406361636566809,1.848602565351172,-0.7148101783261573,-0.8149110191992133,-0.28777453011308146,0.004891819004077015,0.38905307374068737,0.5503774713424456,1.8718021769015913,6.243765755906953,1.296500551455776,1.0976782033219945,1.2375004965205112,1.5776038786793176,1.8643945252444694,1.807910514118978,3.0264942225796987,0.8917136719726565,Relax
73.1413311994126,820.9166666666666,66.42679653758424,,,,,,,59.42965766792129,59.744890657582175,0.08091783153497217,0.07239426373109893,817.0,54.1149,0.0662361077111383,68.5,1.1177381654924092,772.0,864.0,38.54166666666667,70.83333333333334,705.0,1047.0,12.0,140.625,,,0.06532189248795912,0.02517843679251619,0.008625515416347382,0.0991258446968227,2.594358538865876,0.6589794285006774,0.25400476404034356,-3.681767333606953,42.24601732522517,84.2936483309162,0.5011767572258548,11187.434265670834,1.9953040231459718,4.755700606496682,672.7658225613152,0.625,0.6382978723404256,0.9166666666666666,0.2,50.0793830800635,50.08516965462031,50.068315521915785,53.191489361702125,0.4963564997362374,0.5036435002637626,29.76342893766878,29.981111074751645,0.5465468969294339,0.4534531030705663,62.31729123793846,56.76243794713303,0.5364709966411538,0.463529003358846,48.83291149092844,45.391857105535586,1.1705038246657802,2.0953421891796697,1.4108666542998574,1.9685791919201785,-1.227096872673938,-1.5558598383689315,-0.23383223966932742,0.003742709249313646,0.3636751788182932,0.548335857272559,1.6486586255873814,6.2359023444260835,1.2950130244674976,1.1978332609044924,1.1868998627875071,1.5609831078233003,1.8618285499784628,1.7853315119444364,2.608221706222804,1.0289003907376806,Relax
72.65540551851595,826.5,64.79457417180286,,,,,,,59.61543424315552,59.913384663312996,0.07839633898584739,0.07212998698506415,827.0,54.1149,0.06543518742442564,72.0,1.0868758232561555,777.0,868.0,39.58333333333333,70.83333333333334,705.0,1047.0,12.0,171.875,,,0.06985100439054864,0.02709447904180249,0.009064746351790734,0.10601022978414186,2.578053052165336,0.6589081500226849,0.2555836271364782,-3.608425297246061,42.365160579266714,81.06700738555833,0.5225943567618835,10789.53854291149,1.913530039237762,4.739972980728785,620.4966152935016,0.6354166666666666,0.648936170212766,0.9344262295081968,0.2,51.57374100719425,51.65016778156644,51.49083649960481,51.06382978723404,0.5052750051831887,0.49472499481681137,30.12350464197175,29.807360222003144,0.572182825158793,0.427817174841207,61.321327790094664,53.02409305692961,0.5578229508310155,0.4421770491689845,48.31009611797067,43.0118191193664,1.2514945483389592,1.9915210302950106,1.480612030200482,2.0948802775722624,-1.1382822127975931,-1.6945919754316172,-0.19155824215384418,0.004397151688290674,0.37655639032894156,0.509517472934709,1.6247053845648887,6.215069011092751,1.3286615061607079,1.3279130411808817,1.2590854161483471,1.6576447662983576,1.8598175522249085,1.7820865956158174,2.3849663688772647,1.0289003907376806,Relax
72.77410129020757,824.65625,66.5956894645829,,,,,,,59.26426099749281,59.576673851342605,0.08075569604254246,0.07186541179733108,823.5,54.1149,0.06571329690346084,72.75,1.1237074139404226,777.0,868.0,39.58333333333333,70.83333333333334,673.0,1047.0,12.0,171.875,,,0.06333730358962557,0.022062079134711796,0.007278838433328069,0.09267822115766543,2.8708673920932775,0.6834108682543151,0.23805030846653275,-3.813895020517629,42.12707008082362,84.3721227372215,0.49930082015394045,11166.320876903323,2.002800635680286,4.754880213600346,675.9221642072093,0.625,0.6382978723404256,0.9333333333333333,0.19230769230769232,49.4815148782687,49.4414889608735,49.51658551121814,54.25531914893617,0.4896033135129951,0.5103966864870048,29.477993955823628,30.09744811406315,0.5459666928131748,0.4540333071868251,62.34218940329,56.851618407826216,0.5347186335975508,0.465281366402449,48.76218159216863,45.486057746125944,1.2256313976894406,0.9123371178553215,1.3618344090467158,1.3746793090199845,0.4509693109204873,0.2985818711864976,-0.48592088415358586,0.00025696418197497533,0.04730617066933867,0.5300504191325519,1.6545583477145702,6.2359023444260835,1.3226098446688475,1.377566116723465,1.2704258868902434,1.3839132214579912,1.8828159010710608,1.759654823559253,2.7013188349701784,1.0289003907376806,Relax
72.24627945087175,830.9052631578948,66.99810630607573,,,,,,,61.7873842387249,62.108726740403526,0.0806326656921708,0.0743615270938338,829.0,53.373599999999996,0.06438311218335344,73.5,1.084333106694053,779.4,871.2,41.05263157894737,73.68421052631578,673.0,1047.0,11.875,203.125,,,0.05203360050719871,0.014287019243580381,0.005329206149917713,0.0716498259006968,3.642019347778165,0.7262208924180049,0.1994006135253071,-4.24840389917062,43.91750184900158,84.14000599332279,0.5219574366620179,11608.872451586863,1.9158650299057396,4.771760149525138,644.8035803946659,0.631578947368421,0.6451612903225806,0.9333333333333333,0.20833333333333334,51.12554112554112,51.16659872187901,51.07633567772118,53.76344086021505,0.5091316439188323,0.4908683560811678,31.341682712783896,30.774413335253563,0.5256165418086368,0.4743834581913632,61.00101353472107,57.95185032674254,0.522086102700895,0.477913897299105,48.494457041666315,46.39763718349352,1.1633705614742942,1.2781094191390414,1.3327126264742502,1.4579321856617224,-0.1366643932555789,-0.20767435390218392,-0.40202751242391865,0.00037304632141217366,0.0888992873582998,0.5568285459209483,1.7346010553881064,6.238173766180139,1.3414287751392415,1.5873932732420033,1.2954372306353397,1.4035211436833361,1.883744391359579,1.784177088323783,2.579751484930776,1.0373456223680444,Relax
72.84831772347154,824.3333333333334,71.17756397935439,,,,,,,60.9063128695903,61.20422187166514,0.08634560935627301,0.07388553926759842,827.0,54.856199999999994,0.0663315598548972,74.25,1.168640172518018,777.0,868.0,41.66666666666667,72.91666666666666,658.0,1047.0,12.0,218.75,,,0.05238838495046964,0.012529479874075966,0.005009450705672251,0.06992731553021786,4.181209872794757,0.7491834135664899,0.17917861967204463,-4.379671021384588,43.277920322700425,90.44698198918441,0.47848937986538426,12297.316074237517,2.089910543639098,4.796780445682603,756.1044051981283,0.625,0.6382978723404256,0.9166666666666666,0.2,48.18856394587517,48.05989415566753,48.310596854142425,56.38297872340425,0.48585454442268955,0.5141454555773107,30.178546698790246,31.044751500771927,0.5112237258277817,0.4887762741722181,64.6695115312854,63.23377917898623,0.5064943146597983,0.49350568534020145,50.462314664242854,49.811080218167696,1.2141081878329576,0.9977930828300439,1.4008984685882528,1.467614985655889,0.37050193198877146,-0.012391275322828577,-0.43313591944493346,0.00043121953510953827,0.07004676823890255,0.5620554150361183,1.4744016286301573,6.2567356777594165,1.2651621588260262,1.393370680316639,1.164777177587288,1.5381645200639373,1.9092823157063417,1.7508872465468255,3.126149390931133,1.0289003907376806,Relax
72.91295492349386,823.3125,70.44853477987728,,,,,,,59.815681802297334,60.12369668088937,0.0855671871614694,0.07265246404287234,826.5,54.856199999999994,0.06637168784029038,72.75,1.177760290566003,777.0,869.0,40.625,71.875,657.0,1047.0,12.0,218.75,,,0.060213056886466484,0.014618632234313086,0.005672174157112033,0.08050386327789161,4.11892548641681,0.7479523892985954,0.18158920130144526,-4.225458383461542,42.51387363305999,90.38868600478035,0.47034507870610676,12072.42797494128,2.1260985716082,4.788764733006727,768.7010248172224,0.625,0.6382978723404256,0.9166666666666666,0.20833333333333334,51.11756817165847,51.127754691457916,51.096357574005815,53.191489361702125,0.5082082482597925,0.49179175174020745,30.312292991177337,29.818689698226997,0.5294223836169627,0.4705776163830374,65.76808894551905,62.00542745699819,0.5255784738568122,0.4744215261431878,51.206819027980465,48.65093673016078,1.40429956289808,1.0129462594298673,1.5222134665984681,1.5993656876495574,0.11744135089253405,0.0019387617169375204,-0.42383384574171373,0.00022437527585638043,0.05152665765155927,0.580676584762748,1.5163474893680884,6.256735677759418,1.2654365824858578,1.3960365020085383,1.2211457677707274,1.5553579526063506,1.9096820730540434,1.717678025130009,2.607787525257243,0.9603070313551686,Relax
73.22371009505669,819.90625,70.10819880351858,,,,,,,57.524091063063125,57.828980982145715,0.0855075794379157,0.07015935183206998,818.0,52.632299999999994,0.06434266503667481,65.75,1.2187623916848962,767.0,864.0,37.5,73.95833333333334,657.0,1047.0,12.0,156.25,,,0.0564651689286716,0.013242554322222044,0.0052600295099615516,0.07496775276085518,4.263918240751984,0.7531927642114836,0.17664334109714325,-4.324319822441713,40.891264601583124,90.86685742489104,0.4500129723907656,11673.092391262213,2.2221581628799294,4.774156032892594,807.6821158478734,0.5833333333333334,0.6,0.8947368421052632,0.16666666666666666,50.1963501963502,50.207314791711845,50.179659315456504,53.68421052631579,0.490986362638656,0.5090136373613439,28.652819103068925,29.17409226650365,0.5350769481587437,0.46492305184125626,66.46815580291181,61.95780856708309,0.5276517144762214,0.47234828552377817,51.18105009861243,48.4246719245974,1.439746501877512,0.7123766644318943,1.5388275843478672,1.3940192477749886,0.7820412546460576,0.910188084066359,-0.7032749580425408,5.057302035030973e-05,0.023641074848832697,0.5731199168713861,1.3862943611198904,6.272462500721155,1.267348217498783,0.8446811314525241,1.1251631006261305,1.5180198048613818,1.8798400154370676,1.7157977923159446,2.6752167390630466,0.9603070313551686,Relax
72.68471152587468,825.8842105263158,69.34263727163103,,,,,,,57.70421644684798,58.013544793841156,0.08396169388859083,0.06986962059738919,827.0,53.373599999999996,0.06453881499395404,70.0,1.2016909948946857,777.0,871.2,38.94736842105263,74.73684210526315,657.0,1047.0,11.875,195.3125,,,0.04473691508485149,0.013353932786725408,0.007949943998225444,0.06604079186980234,3.3500928752107098,0.6774133655612296,0.20220733895881093,-4.31594434675327,41.02177092439461,89.64570984961094,0.45759881865191837,11552.973795109072,2.185320326975472,4.769663898222177,783.6183678420002,0.6,0.6129032258064516,0.8947368421052632,0.17391304347826086,50.10482180293502,50.11398769014915,50.091150630223794,50.53763440860215,0.4832187962261861,0.5167812037738139,28.515888798676688,29.48956440170235,0.5577530560526968,0.4422469439473033,66.94998588120403,59.61587611490089,0.5448480578266077,0.4551519421733922,51.45608090144407,47.03024076883597,1.3194174224979285,2.160516720955144,1.5553385608906682,1.9524410440476938,-0.9425088207536216,-0.7239206497295392,-0.31620022686912125,0.003326510685440848,0.33489733642964165,0.5694751588920979,1.5546296759391052,6.225067318834492,1.2903594413600745,1.2543152526215946,1.3100196868089289,1.5364881556263261,1.8309411135394804,1.7640195085466956,2.8028222542436008,1.0373456223680444,Relax
72.95911446299563,822.3368421052631,66.27595605967326,,,,,,,57.61020890617188,57.881935546372084,0.08059465740340697,0.07005670420734657,829.0,51.891,0.0625946924004825,63.0,1.150420338999552,776.2,863.2,37.89473684210527,74.73684210526315,657.0,1047.0,10.555555555555555,203.125,,,0.047649431160534966,0.007656890895841483,0.004511603457617052,0.0598179255139935,6.22307824529846,0.7965744507369802,0.12800328379910583,-4.872149265895924,40.92870913304237,81.52049118305817,0.5020665177438025,10482.013336172779,1.9917679523697815,4.727414817877742,649.4796071994344,0.6210526315789474,0.6382978723404256,0.9166666666666666,0.22727272727272727,47.73046326626111,48.01917775062262,47.40569384976283,52.12765957446809,0.46803641259055073,0.5319635874094495,28.018619001526254,29.87086903999114,0.4625939918944027,0.5374060081055974,55.44556095757498,59.76102620292678,0.46369080118827705,0.536309198811723,43.927515526449085,47.24219020129784,1.2972975793202661,2.180535923612343,1.5209039773384987,1.9436175506340039,-0.9983761398925441,-0.7199891838235812,-0.30614234843917415,0.0035747367072337783,0.3439320710990832,0.5865292307523489,1.3277981544382822,6.217121134601193,1.2772871431549528,1.0856692944185793,1.377847996612185,1.6928737056765921,1.8090944131442286,1.7549770696350973,2.1140098167316044,1.1065019971925807,Relax
73.6848614680469,814.8453608247422,64.8529330174218,,,,,,,54.330105987994045,54.61518389059501,0.07958925231136027,0.06667535780409188,821.0,53.373599999999996,0.06501047503045067,72.0,1.1936831677036137,757.6,859.0,37.11340206185567,75.25773195876289,657.0,971.0,13.857142857142858,218.75,,,0.05407531233362151,0.008716154802280093,0.004256173973095285,0.0670476411089969,6.204033035241152,0.8065207282343201,0.1299994251566667,-4.742577101355315,38.61876688479001,83.36673595909632,0.46323952162092824,10114.42208267212,2.1587104582546957,4.711911183081785,719.8585791418361,0.6185567010309279,0.6354166666666666,0.9180327868852459,0.21739130434782608,49.870982875908986,49.85466525569518,49.88788469601666,50.0,0.5262114063288503,0.47378859367114945,28.014282071829005,26.58224575677691,0.49840475016173424,0.5015952498382659,58.8550705178228,59.04314811064692,0.5033175781607337,0.4966824218392666,46.09077633137619,45.785964706935424,1.3188927493415612,1.1926634773536193,1.4580484866689676,1.5107385521764432,-0.07680006166804709,0.09527706915048473,-0.45582151503088814,0.00016118962067720658,0.06261017155082473,0.5051812889175387,1.3581234841531942,6.303470702989565,1.301500704896581,1.0418292904321778,1.423405992691206,1.788893584028567,1.8848290552040547,1.7461541435075854,3.0032049267638716,0.9525647401094823,Relax
73.56954456263486,815.8762886597938,67.3361062339451,,,,,,,61.22780210002642,61.542467686528205,0.08253225050155011,0.0750454486189356,821.0,53.373599999999996,0.06501047503045067,72.0,1.099763570215042,756.4,859.0,40.20618556701031,75.25773195876289,657.0,1012.0,13.857142857142858,218.75,,,0.056206269484827744,0.008801834923674355,0.004074044451546375,0.06908214886004847,6.385744560335863,0.8136149557057699,0.1274111339747948,-4.732795065180106,43.51709623209807,85.00219005176568,0.5119526474035139,11620.90354393191,1.9533056525280825,4.772210006423019,664.141033221521,0.5979381443298969,0.6145833333333333,0.8983050847457628,0.17391304347826086,49.05660377358491,49.01595680776059,49.10331983923914,51.041666666666664,0.5268235483718592,0.47317645162814076,31.589305318830863,29.937742417434073,0.4847391214123856,0.5152608785876145,59.18125232850466,61.0159953325876,0.49348018287699075,0.5065198171230092,47.435771511046674,48.05840253004142,1.3984697885085604,0.9192616605689157,1.5354551701733556,1.3962776343244014,0.5919000446789386,0.8691395689395343,-0.6514014364123698,5.727885763557501e-05,0.03897964282976895,0.5122017385678665,1.3581234841531944,6.282852146288535,1.2745406345514654,0.8009875436628813,1.2545004628884946,1.5592693954976313,1.9501744353738253,1.7615109188888083,3.3448492097198312,1.020605078688731,Relax
74.73039747187492,804.1020408163265,75.89595289536342,,,,,,,59.50794800939333,59.78989918601251,0.09438597223097911,0.07400546819776842,813.0,68.19959999999999,0.08388634686346862,96.75,1.2753918667029696,739.2,858.2,37.755102040816325,73.46938775510205,621.0,1012.0,16.333333333333332,265.625,,,0.04400585879958036,0.005694750640602963,0.0026693218073421507,0.05236993124752548,7.72744261808819,0.8402886494463304,0.10874084622503767,-5.168210468712734,42.277843160889475,97.46422045940474,0.4337780876059929,12945.17451462964,2.3053262222602515,4.819078019520615,898.7472926288793,0.5612244897959183,0.5773195876288659,0.8571428571428571,0.17391304347826086,48.05456171735241,47.726488164242326,48.34682121403892,52.57731958762887,0.5328650115285185,0.4671349884714815,30.87584344327023,28.908890645151594,0.42972969160334284,0.570270308396657,63.891472063173644,73.6013183805844,0.44607521078355394,0.5539247892164462,50.17687669999315,55.91456887830525,1.5516958305698054,1.0280443158450288,1.6997639862014533,1.6153986198887407,0.3716188016476458,0.613980413540614,-0.5820639392800555,6.494605811578113e-05,0.04718842785206858,0.5321231443429331,1.5040773967762742,6.369811884931532,1.1381281837444508,1.159892903176356,1.2343563458561961,1.6593118297121972,1.9490006127787218,1.695972499766087,2.9532987963919686,0.9449585491593154,Relax
74.9794935632388,800.6767676767677,75.63146795182226,,,,,,,60.34095302731718,60.65112108918624,0.09445942608185505,0.0753624377067935,805.0,69.6822,0.08656173913043477,97.0,1.2534019460644392,737.2,852.8,38.38383838383838,71.71717171717171,621.0,1012.0,16.5,187.5,,,0.05477862105415081,0.007630440497234171,0.004947766912299977,0.06735682846368496,7.178959206091258,0.8132601000310515,0.11328384473072509,-4.875609703080371,42.88681900873001,98.57411390976279,0.43507181863171174,13281.177763209576,2.2984710964386776,4.830206699555742,906.2790067145744,0.5454545454545454,0.5612244897959184,0.8363636363636363,0.125,49.90072799470549,49.879787962992175,49.92319813380674,50.0,0.5549112860509889,0.4450887139490108,31.9474439549979,28.61196130811216,0.4644786653708777,0.5355213346291225,67.18089218970678,72.13586942492535,0.47887198663821173,0.5211280133617882,52.60186047404948,54.87361837707983,1.4523828992082315,1.5117122384455222,1.68949561416076,1.7124919778412107,-0.17464810269362907,0.12144205927975271,-0.48478786961194575,0.0002574927834034238,0.11487403247421897,0.553101546312257,1.5314763709643884,6.3465283372513275,1.1705914038264278,0.9321752370751519,0.9127924480157091,1.2951463840275346,1.921047283256498,1.6893170176464702,3.15314106975296,0.8035583781914678,Relax
75.27908929841159,797.7373737373738,76.40982224746702,,,,,,,61.83396134415297,62.14423762284308,0.09578317973180757,0.07751167662417878,802.0,72.64739999999999,0.09058279301745635,97.5,1.2357258145275265,733.6,852.8,39.39393939393939,71.71717171717171,621.0,1012.0,16.5,164.0625,,,0.053658104485001225,0.007513962778215421,0.004593244842653035,0.06576531210586968,7.141119282699603,0.8159028333754709,0.11425419476637419,-4.890992285500412,43.94261183478051,99.09249297978356,0.44345046242549874,13679.69750156343,2.255043313136704,4.843046603920866,893.8314547044266,0.5353535353535354,0.5510204081632653,0.8333333333333334,0.12,51.0239275705971,51.011412535490905,51.02822246720532,51.02040816326531,0.5805037136673099,0.4194962863326901,33.484340084998465,28.464483204929458,0.453377086047208,0.5466229139527918,66.72222770638801,73.26299539907825,0.47427242525208413,0.5257275747479159,52.78757761552867,55.577393331142616,1.4229180239616757,1.2741339805631124,1.6183959816551219,1.54084939716694,0.11771058053520989,0.4920499761137975,-0.5608621900609775,8.719559159317817e-05,0.07382197683287471,0.5338379680925724,1.623622547426057,6.3389032109668495,1.1795613829627003,1.1784332313706039,0.9529576192565399,1.3493410938665231,1.9837927158871658,1.7042438729262288,2.673657136621976,0.8035583781914678,Relax
74.53249826831565,805.0918367346939,82.89131957273422,,,,,,,64.1552562711466,64.47808739638245,0.1029588374773819,0.0796868796128261,804.0,71.1648,0.0885134328358209,98.75,1.2920425291795465,739.2,859.0,40.816326530612244,72.44897959183673,621.0,1045.0,16.333333333333332,164.0625,,,0.055424144948813696,0.008102159557140385,0.003007434076490445,0.06653373858244452,6.840663227863579,0.8330231568174319,0.12177520352476041,-4.8156246408457655,45.592892835920885,107.1732762721529,0.4254128866989522,15350.88890430962,2.3506575171232655,4.893103638638791,1007.710670015459,0.5306122448979592,0.5463917525773195,0.8301886792452831,0.08,48.817567567567565,48.91175337212928,48.723319843174096,51.546391752577314,0.5546109878219225,0.4453890121780773,33.95953474357386,30.432473061955818,0.44112873531936064,0.5588712646806394,71.18183535125229,80.12026873977909,0.4585238479714066,0.5414761520285931,55.767838778155955,60.60277584237,1.3558828974246613,1.4451077156974472,1.5912054463931788,1.3964924184915453,0.18682904452770543,0.9336492455558085,-0.6347394562955883,0.0001578077014097482,0.0993007932009901,0.5844234942808462,1.5735059032080372,6.313589691009829,1.1079822689769578,1.4711647326094426,0.9913086492168626,1.4295748304631257,1.9195432078350203,1.7039774570861415,2.3225467684927024,0.9449585491593154,Relax
74.52838450760242,805.6938775510204,83.45347591647429,,,,,,,64.35532804222724,64.67046389460681,0.10357963271377797,0.07987565728790331,804.0,76.3539,0.09496753731343283,102.0,1.2967609435805478,739.2,859.6,39.795918367346935,73.46938775510205,621.0,1045.0,16.333333333333332,164.0625,,,0.05308799813660522,0.008889840386536377,0.0032338737941540706,0.06521171231729567,5.9717605523049375,0.8140868603219462,0.1363227566128268,-4.722846183887877,45.72892356235625,108.67465395560794,0.420787385999277,15612.380135224897,2.3764970939545185,4.900439227040685,1033.0599972480607,0.5306122448979592,0.5463917525773195,0.8301886792452831,0.038461538461538464,51.60067396798652,51.51212904703477,51.67718757054606,49.48453608247423,0.5802367724077505,0.4197632275922496,34.84354913992929,29.63616175103202,0.4644857836791001,0.5355142163208999,74.06524761473334,79.5268477191154,0.48190664393516436,0.5180933560648354,57.878034783924846,60.0117554795421,1.402114692687726,1.1336697857213673,1.6313749228826513,1.345975261060476,0.7653830846245393,1.3676234518584174,-0.7517484945058954,0.00024327981775196965,0.07700426420644657,0.5473843716126838,1.6094379124341003,6.390220048196838,1.1150840272630642,1.412775554206822,1.0174183812734892,1.4932283280352312,1.9493083912785985,1.701251498663876,2.702566237422298,0.9449585491593154,Relax
74.01509748054542,811.319587628866,87.07019993370203,,,,,,,65.28559054901267,65.62813568114255,0.10731923801836256,0.08046840177964153,808.0,75.6126,0.09357995049504951,102.0,1.3336817389793654,738.6,874.2,40.20618556701031,73.19587628865979,621.0,1045.0,16.166666666666668,195.3125,,,0.0540601102731431,0.0108837366711168,0.003279884948951789,0.0682237318932117,4.967054230244978,0.7923945051519838,0.15953006921627721,-4.520485652481273,46.406099776766716,114.72181456393595,0.4045098131785912,16725.185752326295,2.4721279124036966,4.930341059765618,1134.4279997804279,0.5051546391752577,0.5208333333333334,0.8,0.04,49.852569502948604,49.821132093775475,49.88525936990574,48.95833333333333,0.5543170109391647,0.44568298906083514,34.55057315390235,30.98055417261133,0.5002503391175266,0.49974966088247336,81.14087813958608,81.10026283298315,0.5078531710301122,0.4921468289698878,62.36018044604392,61.388302503087075,1.4203552851134713,1.4213921409382744,1.687347973192495,1.572885621878775,0.21511907721369106,0.6144951491007573,-0.5805283412065035,0.00026152699273832995,0.10943926824947288,0.5570532977325215,1.5362345084108053,6.393727275176817,1.0884478695595103,1.3478392408753577,1.0757635796086722,1.5858611304922725,1.97137483627799,1.714613340709428,2.8597998047978463,0.9525647401094823,Relax
73.35873577090118,818.7525773195877,95.82188673608567,,,,,,,67.47514974665364,67.81259004359774,0.11703399707123371,0.08241213721433666,802.0,96.369,0.12016084788029925,140.0,1.420106322043959,737.2,897.8,39.175257731958766,69.0721649484536,644.0,1070.0,16.166666666666668,70.3125,,,0.04228107826331489,0.01251651186835837,0.0018720644262623812,0.05666965455793564,3.3780240619753714,0.7460973353929529,0.2208679753917018,-4.38070655689141,47.950742269651315,127.07225117052053,0.3773502226328339,19142.379894490103,2.650058062833082,4.988966040831654,1346.9953751071537,0.6185567010309279,0.6315789473684211,0.9,0.18518518518518517,51.45985401459854,51.49419533668571,51.41627157173731,45.26315789473684,0.5472936180727468,0.4527063819272533,35.48238999842034,32.27089286517789,0.5537541216144385,0.44624587838556157,94.56038018982758,84.88634469630036,0.5529485059583827,0.447051494041617,71.41661396917645,64.21488161717231,1.3957807459643083,2.049942600380411,1.7237071561701791,2.015160853744782,-0.9234791924949786,-0.8963700382097928,-0.35782348368168104,0.00136024408992176,0.2681615363999929,0.6662076823466023,1.849579040116881,6.434964388578881,1.0761737427085623,1.2324594140994074,1.0514206529326633,1.3080693598932633,1.864110898655566,1.612874450626665,2.4743393169190147,0.7484437243717361,Stress
73.11991847622349,821.71875,97.52394611473365,,,,,,,68.90924619037938,69.27376755468555,0.1186828779490959,0.08385989268272068,809.0,102.29939999999999,0.12645166872682323,139.0,1.4152519655388314,738.0,915.0,40.625,70.83333333333334,644.0,1070.0,19.2,70.3125,,,0.04606821670368227,0.012944842971785797,0.002281032234690724,0.06129409191015879,3.558808461724195,0.7515931025000958,0.21119234445563811,-4.347057796266594,48.98395079625879,128.25918302061393,0.38191379083075905,19737.50041374001,2.618391961769035,5.002262262081878,1343.331255376956,0.6041666666666666,0.6170212765957447,0.8793103448275862,0.15384615384615385,49.64285714285714,49.54287923572779,49.73153036681609,46.808510638297875,0.5261956169946752,0.4738043830053246,35.533172993397635,33.717853090332966,0.54743414360345,0.4525658563965499,94.89742096436294,86.28381959224933,0.5447305857142836,0.4552694142857163,71.6523791952027,65.5049278316109,1.2732345256625612,2.3493271508283113,1.642274717932371,2.0360556817153497,-0.9838335701993142,-0.9830524573125317,-0.33238564129131953,0.0028372445498039147,0.4067522877259944,0.679229919236922,2.10684051586795,6.439129167387822,1.1177872960138946,0.0,1.1414863251793512,1.4548479232710894,1.9206675859613045,1.623088662219196,2.3747874187290776,0.8917136719726565,Stress
73.04877963870702,821.8541666666666,94.38420688214703,,,,,,,67.15810097312006,67.51372968077482,0.11484301073140149,0.08171535011558627,816.0,96.369,0.11809926470588235,130.25,1.4054031533727285,745.0,897.0,39.58333333333333,69.79166666666666,644.0,1070.0,19.2,125.0,,,0.048023037979978096,0.010066308567876336,0.002121451895519608,0.060210798443374035,4.770670167337161,0.7975818162441731,0.16718443913915734,-4.598561216629664,47.73941608047135,125.38857275259052,0.3807317926384568,18805.5021417591,2.6265208720029345,4.981255044342572,1317.3428137813498,0.6041666666666666,0.6170212765957447,0.8793103448275862,0.15384615384615385,50.28443722064202,50.2721432301643,50.29341111391309,46.808510638297875,0.5350362919224214,0.4649637080775784,34.9198931294214,32.55298463291251,0.5427359638466981,0.45726403615330197,92.37453374171015,84.78938431745651,0.541761134147743,0.458238865852257,69.82998431966227,64.2220230973923,1.3565859351365128,2.2782999936641772,1.6339916265178829,2.1920665444045015,-1.4213863320932507,-1.6434302325398198,-0.2550476585881608,0.00305725286950074,0.3886032136347714,0.6187812774064603,2.367123614131617,6.459962500721156,1.129433178408105,0.0,1.4299475348430515,1.8675766625165529,1.9614431889752744,1.6187573786727252,2.771020148517223,0.8231203125901446,Stress
72.53647933363052,828.03125,93.97653157486769,,,,,,,67.07505615275127,67.40428409231686,0.113493943102833,0.08100546465215083,830.5,97.85159999999999,0.11782251655629138,130.25,1.4010652687468974,747.0,899.0,38.54166666666667,68.75,644.0,1070.0,19.2,210.9375,,,0.046951116788603975,0.011711132396700803,0.0015793384024780446,0.06024158758778282,4.009101357425588,0.7793804690188113,0.19440278494711943,-4.447215402657649,47.66202636270178,124.0551786344473,0.38420021547949407,18575.36146738065,2.6028095761267815,4.97590738363324,1291.5680276714318,0.59375,0.6105263157894737,0.8793103448275862,0.14814814814814814,51.82690344968361,51.92382943647678,51.72574914456934,45.26315789473684,0.544480605319002,0.45551939468099784,35.18318324112705,32.18083875505303,0.5537492665179663,0.44625073348203376,92.31483131004447,82.87134164608815,0.5525562768194967,0.4474437231805035,69.85658330744745,62.862014162773164,1.3786617388971252,1.747468733753332,1.643407687855259,1.8607512280732978,-0.30541796925137277,-0.2922313599692794,-0.37562378884387043,0.0016211007950837379,0.21270643341178738,0.6428637750974269,2.2735975561207935,6.459962500721156,1.1481149078148583,1.1177055333642532,1.445112371154138,1.5824389072376517,1.9258476454814142,1.6061101131078757,2.3435002489721044,0.8917136719726565,Stress
71.64216064461884,837.9893617021277,93.75035422795887,,,,,,,68.09899498729455,68.46636954568116,0.11187535130223221,0.0812647488137219,847.0,97.85159999999999,0.11552727272727271,124.75,1.376677500827291,756.2,921.2,40.42553191489361,72.3404255319149,644.0,1070.0,18.8,250.0,,,0.04742682876645624,0.017851451861464824,0.0012461407628495706,0.06652442139077064,2.656749105591492,0.712923581670356,0.2683443386392455,-4.025670437287404,48.41303418897527,124.1544604948854,0.3899419641952346,18883.15255524963,2.5644841843678154,4.9830446117381015,1273.5686014314094,0.6063829787234043,0.6236559139784946,0.896551724137931,0.2,50.45390357070808,50.44092957160723,50.46151381360392,47.31182795698925,0.536135038315731,0.4638649616842693,35.44952014147538,32.97380383168485,0.5425024888804761,0.45749751111952364,91.4456801735115,83.97629212093081,0.5416620397135713,0.4583379602864286,69.35048990691062,63.79376684876956,1.432993847940202,1.7762695068286414,1.7466754655415988,2.0125640753520098,-0.6738184080320515,-0.9486079509535914,-0.3503106601851599,0.0010661610128600864,0.21262853258686149,0.6121857715760264,1.9021075263969203,6.363099489975509,1.1535564920655423,0.0,1.2510400536271105,1.4214663120378983,1.9657706976038078,1.626010817063759,2.9103014640918308,0.9762153608881589,Stress
71.66424512334896,837.8297872340426,92.51499597105398,,,,,,,64.74715089011328,65.08761491795711,0.11042218524657263,0.07727960007708172,847.5,87.4734,0.10321345132743362,118.75,1.428865899104462,759.0,917.6,37.234042553191486,71.27659574468085,644.0,1070.0,18.8,257.8125,,,0.05579347568508372,0.021846722187777116,0.0023825613212279497,0.08002275919408879,2.553860263591362,0.6972200939705305,0.27300635978809035,-3.8237043829831836,46.02389387974616,122.92832065734625,0.37439618172312317,17774.00021274368,2.670967410505081,4.956755290992276,1313.3501532155615,0.5957446808510638,0.6129032258064516,0.8947368421052632,0.15384615384615385,51.154339461308254,51.18254031667037,51.11684144460459,48.38709677419355,0.5525451812636903,0.44745481873630966,34.21662131060054,30.791285469586438,0.5400327411739012,0.45996725882609896,90.33623666426593,83.37107630931172,0.5415714513331273,0.4584285486668728,68.30597641705778,62.84440955981145,1.451236272471635,0.9842630417071998,1.6066826640912368,1.7415176690650798,0.1845173253737844,-0.29558729272222717,-0.36300917614464906,0.0004115946456105931,0.06621133096694792,0.6733734212222973,2.093234863812172,6.2912389846333445,1.145372504890774,1.4826049378560804,1.123743543328381,1.6484297549010223,1.9782413661018743,1.6449154752830657,2.5013333735770216,0.8367560236184219,Stress
70.8816467417044,847.5591397849462,89.37457356123153,,,,,,,68.96951122242979,69.24365377528093,0.10544936555566944,0.08137427582921192,856.0,88.95599999999999,0.10392056074766354,107.0,1.2958562700697485,777.4,921.8000000000001,43.01075268817204,76.34408602150538,644.0,1070.0,18.6,257.8125,,,0.05896959456852419,0.01780385716566933,0.003957812636336957,0.08073126437053048,3.3121808392303658,0.730443094485338,0.22053237125031713,-4.028340150458479,48.96265713863463,114.38987985392632,0.42803311972316965,17595.534133625708,2.336267811815006,4.952372564865046,1068.9815772004556,0.5913978494623656,0.6086956521739131,0.875,0.16,53.42411683441879,53.477328122789395,53.38709679411422,46.73913043478261,0.570147957726364,0.42985204227363605,37.02620099928644,32.149547533260964,0.5718735101309926,0.4281264898690073,86.50427962277061,74.84687181132696,0.5716056430686511,0.4283943569313487,66.53544150862022,57.600553931948504,1.3274225151519603,1.5451811190058802,1.5243321690845066,1.7951924870433915,-0.6675066074595577,-0.8620949426371523,-0.3247064278567242,0.0006392813538525602,0.13967713027001952,0.5736851691006839,1.8870696490323795,6.264860155147527,1.2445329558087557,1.5185157428863683,1.1133549067624435,1.4587990963805404,1.9830453035072604,1.7001012318564381,2.2951259352357636,0.9843894984463702,Stress
70.1748782404762,855.6847826086956,80.20248130603272,,,,,,,69.63089499971645,70.01239206551253,0.09372900270765863,0.08137446921451054,856.0,83.76689999999999,0.09785852803738317,100.5,1.1518232144848823,788.0,922.4,43.47826086956522,75.0,652.0,1070.0,13.142857142857142,132.8125,,,0.05663571972903552,0.020660779980858482,0.0036146094969546363,0.08091110920684863,2.741218859186662,0.6999745805516859,0.2553515850096599,-3.8795180628155492,49.50623719661514,102.47351544433988,0.48311250943181744,15937.545084695617,2.0699112121441186,4.909391536289269,848.4443142642505,0.5869565217391305,0.6043956043956044,0.8727272727272727,0.16,49.30417495029821,49.244176936344985,49.36513357663555,49.45054945054945,0.5261485460438339,0.47385145395616596,35.91208400772332,34.08062336414768,0.5160070162133086,0.4839929837866913,73.61044424294458,71.29041917310985,0.5179263030288903,0.4820736969711097,57.91448557753677,55.874022384139295,1.2695190236664673,1.283547882412729,1.457574519599926,1.668949235298014,-0.41463755797401447,-0.8191403360393377,-0.33531996071641695,0.0003312525031553145,0.09492470490097639,0.5978229641159851,1.7764919970972666,6.2979653527726285,1.33115515822088,1.120367611823913,1.0668590304099015,1.648547527890642,1.8529596050517303,1.740268671272776,3.320905208575451,1.0636242319658173,Stress
70.07506906131647,856.8804347826087,81.34336966723149,,,,,,,70.90412967095502,71.29578108477668,0.09492966155525347,0.08274681833404617,859.5,89.6973,0.10435986038394415,108.25,1.1472303523747047,788.0,923.8,44.565217391304344,72.82608695652173,652.0,1070.0,13.142857142857142,132.8125,,,0.05683022182873473,0.04052911137552835,0.003608818297271183,0.10096815150153425,1.4022074479296147,0.5628529490100764,0.40140490612936,-3.2057347636864395,50.413730275037175,104.07008944208472,0.48442093732505676,16482.558810011047,2.064320352299262,4.923994743949363,859.3360148036002,0.6086956521739131,0.6222222222222222,0.875,0.16,50.36453201970442,50.339215820063565,50.384836248201516,50.0,0.5449176271549508,0.45508237284504904,37.21528956998423,34.00955748021429,0.5041862499694063,0.49581375003059386,73.89608438988014,73.2799578897752,0.5119279762556452,0.4880720237443548,58.50473940602618,57.125310626408094,1.2859937236226855,2.4917905905888214,1.6108209881193036,2.3230377791065906,-1.1508107793367195,-1.6479253317015008,-0.21417470084475,0.010015455478578855,0.6841819314985466,0.5258567439658948,1.5926307941177191,6.240953260404839,1.3159548721938246,1.2169062819896275,1.1458417714840563,1.8166990049494796,1.8825491406736872,1.7636998358705487,3.223625069978413,0.9218076677037084,Stress
69.50838618045941,863.7032967032967,81.11096576165744,,,,,,,69.35143994339427,69.71529761535844,0.09391068214194978,0.08029544428984413,868.0,83.0256,0.0956516129032258,113.5,1.169564263234642,797.0,926.0,45.05494505494506,72.52747252747253,652.0,1070.0,11.375,242.1875,,,0.05187834328697707,0.049883382192348495,0.003876851218629774,0.10563857669795533,1.0399924986428561,0.4910927892876579,0.47220801104672594,-2.998067353886295,49.2961596962583,103.19739880975017,0.4776880063337484,15982.021522971341,2.093416595645748,4.910601821156613,864.140589183215,0.5934065934065934,0.6067415730337079,0.8518518518518519,0.16666666666666666,48.33400240867122,48.40646657237597,48.263595264335315,50.56179775280899,0.5000161712862641,0.4999838287137359,34.870547116151975,34.869419331190215,0.5089076151430161,0.4910923848569841,73.61871377129211,72.31865667833708,0.5072547132784447,0.4927452867215555,57.60065135707759,56.77087505162118,1.292309800334717,2.4143683404751592,1.5838526749478263,2.322783200749206,-1.1042053364974809,-1.6383600377217755,-0.19394457613872007,0.011106894681517793,0.6801339951643616,0.5595343091550928,1.9278916435526348,6.244058376462433,1.3186783325101616,1.4624689241141795,1.2028390734610954,1.8788320789309527,2.006295889945297,1.7706171088043352,2.4400372612652927,0.8581707217844434,Stress
70.10238459199185,856.2717391304348,73.32707148336692,,,,,,,66.6859129727635,67.05405214933627,0.08563528157291794,0.07787938095502803,860.0,75.6126,0.08792162790697675,91.0,1.0995886269610775,797.2,918.4,42.391304347826086,71.73913043478261,652.0,1022.0,11.5,242.1875,,,0.05517246996538788,0.04863077470481487,0.005390173269802775,0.10919341794000552,1.1345176033135522,0.5052728544105237,0.4453636091099761,-3.023498724098744,47.414374980832065,92.55156962630637,0.5123022242872395,13786.171959461253,1.9519727859688472,4.846413801251786,722.632580837004,0.5543478260869565,0.5666666666666667,0.8235294117647058,0.11538461538461539,49.60498960498959,49.60812956939412,49.60166902120187,48.888888888888886,0.5254745748471623,0.47452542515283763,34.37117655504067,32.662414689262235,0.5144163178279625,0.48558368217203746,66.38059742924835,64.49348281205711,0.5167153086506043,0.483284691349396,52.8571730838952,51.11869843101661,1.2016331837849226,1.4393633300823456,1.450565408249195,1.7310330791437698,-0.5915157564460731,-1.1679453776529876,-0.30514463232953887,0.0006441160597782301,0.13899613923089257,0.5464877638392034,2.178532444324067,6.159325271227374,1.376088522760486,1.1130570191090552,1.258506543330722,1.78155796965039,2.0236924891241537,1.8121940150372486,2.7597356083955815,0.9927159498347627,Stress
70.21620434035773,855.4565217391304,73.1347413789094,,,,,,,67.02254828057478,67.39357367652923,0.08549206128001403,0.07834711242170314,859.5,68.19959999999999,0.07934799301919719,89.25,1.0911960713989461,798.6,912.8,44.565217391304344,72.82608695652173,652.0,1022.0,11.5,242.1875,,,0.06442868833525209,0.04809981401801229,0.006724263280080488,0.11925276563334486,1.3394789491519656,0.5402699718792674,0.40334338379958595,-3.034476968447288,47.65445295506902,91.17136315925883,0.5226910216514571,13649.344946872903,1.9131761568057388,4.84208191937631,697.7075127190845,0.5869565217391305,0.5955056179775281,0.8679245283018868,0.16,50.18465326220763,50.19591231619722,50.17386437651575,49.43820224719101,0.5308997147568093,0.46910028524319036,34.72255110955351,32.63910401820354,0.5087825943938108,0.49121740560618926,65.03161972937357,63.89918540710522,0.513528542541775,0.486471457458225,52.128529233910896,50.736658378349674,1.131017953815995,1.6151853884362666,1.4222816251464705,1.6633355404715413,-0.5027307661529221,-0.8648640311647418,-0.350757741463693,0.0008734892521908858,0.17768570990215435,0.5508092836732779,2.043073897508961,6.107641711421247,1.3771141667265179,1.1208675207721968,1.2963529749672689,1.586347003244696,2.086104100105779,1.8282718892784047,2.745156340325181,0.9927159498347627,Stress
70.61370942351977,850.7826086956521,72.13034996814113,,,,,,,64.47471605977812,64.81072847168534,0.0847811758619811,0.07578283265407282,857.0,65.2344,0.07611948658109684,93.25,1.1187385439784652,792.8,896.8,43.47826086956522,71.73913043478261,652.0,1022.0,11.5,242.1875,,,0.061483462568075256,0.04876619629890422,0.00808255665294646,0.11833221551992594,1.260780360871754,0.5195834650600458,0.41211259406101874,-3.020717904942641,45.82810559596875,90.89847078049218,0.504168059181519,13086.947337335343,1.9834655960225425,4.823808464750807,721.1759580966664,0.5869565217391305,0.5955056179775281,0.8867924528301887,0.16,48.39124839124838,48.29059691008746,48.492657478937545,50.56179775280899,0.5158953807436701,0.4841046192563298,32.92719240992162,31.896534120322368,0.4783676356316587,0.521632364368341,62.86913306622115,65.650621457331,0.4859773396357235,0.5140226603642764,50.18330346090332,51.61101135718355,1.1803893999564896,1.8310904271281823,1.4631837960301204,1.7682398887231794,-0.961145474619542,-1.1691478090966942,-0.3334019510049549,0.0007840231866610906,0.20260680947213408,0.5188776899526717,1.9095425048844383,6.115847010357807,1.345557745870364,0.7905763683449516,1.2522444210444386,1.5797890386800977,2.1457257368786604,1.7899466004955276,2.953115961888501,1.0636242319658173,Stress
71.116321306502,844.258064516129,74.7911444458335,,,,,,,62.55084888034833,62.8904013346128,0.08858801306055474,0.07408972624525441,852.0,68.19959999999999,0.08004647887323943,102.0,1.1956855228119967,779.6,896.0,40.86021505376344,72.04301075268818,652.0,1022.0,11.625,242.1875,,,0.0587116445404046,0.05223981399573982,0.008162007954039315,0.11911346649018374,1.1238869369862718,0.49290517915741366,0.4385718553497472,-2.9519103545918965,44.470229255248206,96.4949107332608,0.4608556960913357,13481.047835866231,2.1698766196909776,4.836693759701796,837.5282028770822,0.6129032258064516,0.6222222222222222,0.8928571428571429,0.16,49.36207655081392,49.33532013828852,49.39214950673338,50.0,0.5264029336592957,0.4735970663407046,32.26640480625134,30.60524985490755,0.48338090288041147,0.5166190971195886,67.08866547247877,69.35689412410136,0.4909181993153172,0.5090818006846829,52.64033583669011,53.60531727927335,1.1734112362121225,1.4803031192798786,1.4281445021126296,1.5331643058304105,-0.20797135301516434,-0.2526820525360316,-0.4290552033904584,0.00046347094606457114,0.12824613306914157,0.47413544922760886,1.7147984280919266,6.178838649771183,1.2787064965725308,0.6577722899915204,1.2457803653696295,1.6178596401631726,2.272959780518323,1.7802675127411758,3.1251711453784337,0.914075962843058,Stress
71.10738376915798,844.3978494623656,74.08443182479826,,,,,,,61.79339700197327,62.125371254133576,0.08773640514594912,0.073180429155898,849.0,69.6822,0.0820756183745583,98.0,1.198905310585733,782.4,896.0,38.70967741935484,73.11827956989248,652.0,1022.0,11.625,242.1875,,,0.05421242064812659,0.04234920532852069,0.009386005904665465,0.10594763188131275,1.280128404478382,0.5116907257432404,0.39971828134830006,-3.1618056224398035,43.92927129752966,95.41519743759098,0.4604011989417393,13168.048735134562,2.1720186704521227,4.826491535162978,828.9743611172926,0.6021505376344086,0.611111111111111,0.8727272727272727,0.16666666666666666,49.07551793272444,49.01396697632237,49.13961648192409,50.0,0.5276733229906488,0.4723266770093511,31.91411896028134,30.194060983599385,0.48513407834125544,0.5148659216587447,66.458180156748,68.4643717002332,0.49257535494401167,0.5074246450559882,52.13060856520746,52.91054484216266,1.2149256504816621,1.3892276183302332,1.413054300723877,1.7106646633910563,-0.7460999152656136,-1.268739702052331,-0.28577278572615133,0.0004138921136135905,0.1145190435306665,0.5173283844732177,1.7227665977411035,6.186955719686919,1.2722107197048118,1.317475250742956,1.2951984096598799,1.5327303546219861,2.22939931568212,1.7786501909568295,3.205303900066851,0.9843894984463702,Stress
71.82737351214975,835.421052631579,74.59159426537545,,,,,,,61.12543782204075,61.42753848688152,0.08928622762188203,0.07316722224020501,839.0,81.54299999999999,0.09719070321811679,104.0,1.2203036399107645,772.6,894.2,36.84210526315789,71.57894736842105,652.0,1022.0,11.875,242.1875,,,0.03742002018732468,0.040853468041507975,0.008047655691654844,0.0863211439204875,0.9159570039269411,0.4334977328589757,0.47327301500011515,-3.19776356430273,43.43582901567156,95.75903110639298,0.45359511801463637,13067.0553519725,2.204609265586788,4.823147840735003,844.4449889630697,0.5894736842105263,0.5978260869565217,0.8545454545454545,0.11538461538461539,48.14732142857142,48.19830615832687,48.10127155836547,50.0,0.5204092092000889,0.47959079079991124,31.347428767326047,30.092956343725625,0.492590708637407,0.507409291362593,67.20829084473446,68.21171219200352,0.4973409367061213,0.5026590632938784,52.43861005305632,52.71823072557584,1.1684522272901992,2.8108205475837202,1.5923631298249399,2.3536068114649957,-1.4520011891490832,-1.904418787068856,-0.2291738591087049,0.011577047330753402,0.8532843982863532,0.5747171005968919,1.7292391122467212,6.225067318834492,1.227552403972962,1.323209808395862,1.265061385038139,1.6843082582894906,2.164323725179536,1.7944691786385418,2.426340223266648,0.8990328727189718,Stress
72.26380380182363,830.578947368421,73.43785604855195,,,,,,,62.40533255992547,62.73256342475753,0.08841767092848914,0.07513473915712464,832.0,78.5778,0.09444447115384615,105.0,1.1767881531282982,770.6,888.8,37.89473684210527,71.57894736842105,652.0,1022.0,15.833333333333334,117.1875,,,0.018219068695690423,0.01722701920988782,0.003593882822746077,0.03903997072832432,1.0575868334339116,0.466677314449729,0.44126619176456644,-4.061276243415037,44.358620998861234,94.28807525213234,0.4704584421756775,13139.676699851214,2.125586258746702,4.825554789554049,801.6697484784299,0.5894736842105263,0.5978260869565217,0.8545454545454545,0.11538461538461539,49.02046147148453,48.98465523852442,49.06130015396212,50.0,0.5329166621138779,0.46708333788612194,32.38611145311773,30.319800833459396,0.4903606719677821,0.5096393280322181,66.02593896941183,67.31134018840567,0.49807420795107177,0.5019257920489285,52.00136936584583,52.20204421543241,1.1358663049782636,2.8291420830932044,1.5569417436945887,2.3923805344193037,-1.4951916598870394,-2.117923147145998,-0.20470242702999944,0.013328266583345844,0.9283683300980012,0.5958940082776869,2.0314323224934756,6.1829620556765965,1.2497197627434105,1.3020293063809674,1.2728457075492385,1.7403629757775754,2.2374763105229523,1.8343530315736847,3.019972499123294,1.1065019971925807,Stress
72.03602588938097,833.1170212765958,69.48657430206286,,,,,,,58.8369352213094,59.142997128966286,0.0834055391109255,0.07062265410344494,832.0,78.5778,0.09444447115384615,106.25,1.1810026141010894,773.0,889.6,35.1063829787234,70.2127659574468,711.0,1022.0,15.666666666666666,101.5625,,,0.04175696203373129,0.04790999678567271,0.009663199482824965,0.09933015830222897,0.8715709629564938,0.42038553796198136,0.4823308208157523,-3.0384310951780558,41.82041432958857,88.75584711658131,0.4711848930319737,11660.983405478866,2.122309129151435,4.773705287277038,753.4693784043582,0.5957446808510638,0.6043956043956044,0.8727272727272727,0.07407407407407407,48.66197183098592,48.70864733595892,48.6202172375032,51.64835164835166,0.5204319979126936,0.47956800208730654,30.17620355295817,28.967279141637814,0.47000115465836584,0.5299988453416341,60.84801790285958,64.61516164705644,0.47916666439854533,0.5208333356014546,48.026474696651874,50.07106138052597,1.178057744282283,1.7329189873167223,1.4545540029715016,1.5347186202689063,-0.36433772811867193,-0.023300528288134004,-0.45374012410035813,0.000501493934588533,0.16210986168697866,0.5734364880223488,1.8562979903656263,6.1635794101652595,1.247224246881612,1.2296264847046452,1.1811775328235932,1.4532531940902786,2.212544014580915,1.8205179683868975,2.7865251778484588,0.9064856922532903,Stress
72.07194695676374,832.7052631578947,68.80497781414132,,,,,,,58.55094163168895,58.863335314418606,0.08262824898357195,0.0703141246035174,832.0,78.5778,0.09444447115384615,105.5,1.1751301669400085,773.0,888.8,35.78947368421053,69.47368421052632,711.0,1022.0,15.833333333333334,101.5625,,,0.036505584115945684,0.02626781891307761,0.0049628691040280335,0.06773627213305132,1.3897455375623569,0.5389370121260793,0.38779546151404537,-3.6394107044994053,41.62266356408297,88.34492700061759,0.4711381284382294,11552.111114817855,2.1225197869569357,4.769631467500389,750.0554225443075,0.5894736842105263,0.5978260869565217,0.8727272727272727,0.07142857142857142,49.533799533799524,49.53182316481434,49.53922457292958,51.08695652173913,0.5339951342427665,0.4660048657572333,30.41655251120131,28.414274013986972,0.47387152781486264,0.5261284721851373,60.815169826366095,64.08074005295741,0.48479345692036635,0.5152065430796335,48.08144937331037,49.56668343492752,1.1446701565603614,3.084273224778302,1.6756885812614437,2.248596756091483,-1.1246221842613604,-1.0298052051032114,-0.3142485658444804,0.011760809797994097,0.9348915872121132,0.5626217989948938,1.7635885922613586,6.169855608330949,1.2389700304196423,0.715550220232367,1.3070539706844728,1.7853504643113371,2.0925592151276518,1.8044866270615494,3.380330218629765,0.9681892475435081,Stress
71.94709122285259,833.531914893617,71.08040307757194,,,,,,,58.80905862487586,59.11135995031171,0.08527616256498574,0.0705540574680714,834.0,76.3539,0.09155143884892086,100.0,1.208664187790712,773.0,889.6,34.04255319148936,68.08510638297872,711.0,1022.0,13.428571428571429,140.625,,,0.03294041045157257,0.01846840342848056,0.004094305915450174,0.0555031197955033,1.7836089935513528,0.5934875475998252,0.3327453212815042,-3.991693929845612,41.79804346602431,90.08488542766312,0.46398508770472424,11829.264877318872,2.155241680173115,4.779927866454148,776.6187993092769,0.574468085106383,0.5824175824175823,0.8679245283018868,0.03571428571428571,51.530249110320284,51.36551360875804,51.703803601202715,49.45054945054945,0.5619059759172494,0.4380940240827507,31.340694479139778,27.673268375974235,0.5120751157035306,0.4879248842964694,64.46422508421843,62.925752016216826,0.5209064873091943,0.47909351269080563,50.684689237202385,48.6079214193279,1.1194177720568261,3.0391271174146084,1.6389763674692968,2.2385599660170827,-1.179896887827054,-1.196644047330392,-0.3027119052993568,0.011108676828433929,0.9151609451581442,0.5773529732424905,1.7525387560747736,6.192886724018063,1.2127047107665434,1.0009576386703172,1.33993357262334,1.6584796336745309,2.0411528508896315,1.79713371173117,3.4754176398499945,0.9762153608881589,Stress
72.55914401447933,830.4148936170212,77.64246836670368,,,,,,,73.35449352582367,73.69683644950302,0.09349840539169278,0.08833475180859895,834.0,77.09519999999999,0.09244028776978416,101.5,1.0584555169666665,772.2,889.6,36.17021276595745,67.02127659574468,528.0,1022.0,13.428571428571429,328.125,,,0.020006325200946574,0.011699472983579947,0.003052096693223383,0.034757894877749905,1.7100193512156643,0.5755908196199052,0.33659900936835235,-4.44821148233141,52.1115328054395,91.9302443287675,0.5668595051164502,15050.195269098715,1.7641055516826334,4.88451224469178,648.6986175516786,0.5851063829787234,0.5934065934065934,0.8703703703703703,0.03571428571428571,47.142857142857146,46.56626935530944,47.59153150773693,49.45054945054945,0.3603838360423802,0.6396161639576197,31.307034908828538,41.70796504057812,0.4909771958004385,0.5090228041995613,64.41530610506456,65.58839959731998,0.45918260301376185,0.5408173969862379,50.643173752203644,54.9608611175435,1.1081903020143562,3.044531652899621,1.6312952854550362,2.280616324247969,-1.273689081158773,-1.432451911161793,-0.28672547609267984,0.011506913022180626,0.9419344772240537,0.633481997054071,1.853891250335061,6.2141633197627435,1.1532129819690111,1.1034670475695145,1.200738221040417,1.6162016924190954,1.948012880457214,1.827430777071365,2.713483751713038,1.0459450295230273,Stress
