PPG_Rate_Mean,HRV_MeanNN,HRV_SDNN,HRV_SDANN1,HRV_SDNNI1,HRV_SDANN2,HRV_SDNNI2,HRV_SDANN5,HRV_SDNNI5,HRV_RMSSD,HRV_SDSD,HRV_CVNN,HRV_CVSD,HRV_MedianNN,HRV_MadNN,HRV_MCVNN,HRV_IQRNN,HRV_SDRMSSD,HRV_Prc20NN,HRV_Prc80NN,HRV_pNN50,HRV_pNN20,HRV_MinNN,HRV_MaxNN,HRV_HTI,HRV_TINN,HRV_ULF,HRV_VLF,HRV_LF,HRV_HF,HRV_VHF,HRV_TP,HRV_LFHF,HRV_LFn,HRV_HFn,HRV_LnHF,HRV_SD1,HRV_SD2,HRV_SD1SD2,HRV_S,HRV_CSI,HRV_CVI,HRV_CSI_Modified,HRV_PIP,HRV_IALS,HRV_PSS,HRV_PAS,HRV_GI,HRV_SI,HRV_AI,HRV_PI,HRV_C1d,HRV_C1a,HRV_SD1d,HRV_SD1a,HRV_C2d,HRV_C2a,HRV_SD2d,HRV_SD2a,HRV_Cd,HRV_Ca,HRV_SDNNd,HRV_SDNNa,HRV_DFA_alpha1,HRV_MFDFA_alpha1_Width,HRV_MFDFA_alpha1_Peak,HRV_MFDFA_alpha1_Mean,HRV_MFDFA_alpha1_Max,HRV_MFDFA_alpha1_Delta,HRV_MFDFA_alpha1_Asymmetry,HRV_MFDFA_alpha1_Fluctuation,HRV_MFDFA_alpha1_Increment,HRV_DFA_alpha2,HRV_MFDFA_alpha2_Width,HRV_MFDFA_alpha2_Peak,HRV_MFDFA_alpha2_Mean,HRV_MFDFA_alpha2_Max,HRV_MFDFA_alpha2_Delta,HRV_MFDFA_alpha2_Asymmetry,HRV_MFDFA_alpha2_Fluctuation,HRV_MFDFA_alpha2_Increment,HRV_ApEn,HRV_SampEn,HRV_ShanEn,HRV_FuzzyEn,HRV_MSEn,HRV_CMSEn,HRV_RCMSEn,HRV_CD,HRV_HFD,HRV_KFD,HRV_LZC,Labels
104.26297864648843,576.0948905109489,61.2375897645535,,,,,,,76.55591958515953,76.83879512153901,0.10629774846682077,0.13288769063245937,571.0,29.651999999999997,0.05192994746059544,40.0,0.7999066577266285,549.0,598.0,9.48905109489051,42.33576642335766,458.0,1125.0,7.2105263157894735,156.25,,,0.06642423689773558,0.0649836761790351,0.01509636159318728,0.14650427466995797,1.0221680397817388,0.4533945309607848,0.44356163890390965,-2.7336191763335047,54.333233088644036,67.72633883266953,0.8022467185607709,11560.404227945415,1.2464993335142562,4.769943130110041,337.683344865133,0.5255474452554745,0.5333333333333333,0.8611111111111112,0.06666666666666667,49.76122254059216,49.524370026168455,50.090987629119866,54.81481481481482,0.5581918777522675,0.4418081222477323,40.59365029711475,36.11463230695651,0.43749076013560134,0.5625092398643988,44.79628939066826,50.79517131091362,0.4847549356204621,0.5152450643795378,42.74664891904944,44.0704895319517,0.9195990552736868,2.256839089510564,1.2609825900969565,1.239079457028687,-1.314566178943684,-0.6877031733711227,-0.509705225848875,0.003045204981983034,0.2677927948189502,0.7064201620157958,0.4260413632231447,0.7332858603554837,0.8400568124550767,0.11555413948359394,-0.7592235525164677,-0.249388295794016,0.00045272157701289455,0.014372344078410065,0.7424853723519331,0.933630027950464,6.097603980581245,0.8007094155307346,1.2993846763333028,1.1746133467819013,1.317623729842294,1.068789948676378,1.8060415122047575,1.7537759275615648,0.9843986100456205,Relax
104.47954293964246,574.5942028985507,36.047745645855755,,,,,,,27.23016253761291,27.329971264637127,0.06273600649643218,0.04739024932769921,571.5,28.1694,0.04929028871391076,40.75,1.3238167637105784,551.0,598.6,5.797101449275362,41.30434782608695,468.0,684.0,6.9,148.4375,,,0.0546314655481611,0.021191623578069772,0.008959628270419552,0.08478271739665041,2.577974516530044,0.6443703059501071,0.24995216276126353,-3.8541492896243614,19.325208010858393,46.61929979475636,0.4145323523935049,2830.347736463463,2.4123569468728117,4.158809906175021,449.84956687290696,0.5,0.5073529411764706,0.855072463768116,0.045454545454545456,50.19400352733686,50.208495648881765,50.181553002362364,55.14705882352941,0.5608123406475493,0.43918765935245074,14.472209677211579,12.80710969827031,0.4607620557449722,0.5392379442550279,31.644927128068552,34.233867739602566,0.47543344301494184,0.5245665569850585,24.60534764926057,25.84550018123204,1.2210184203034413,1.1415683145880493,1.2701643670066627,1.6763179386658615,-1.12965480958988,-1.8414740623949841,-0.14421439657269658,0.0005243767752586031,0.07731314933259294,0.6369327322471768,1.5139406337118557,0.6099168408298801,1.300441259675359,-1.20530116811163,-2.018377589256138,-0.04388936826904374,0.0007106735697625052,0.15034797396656702,0.8234064012547653,1.6765242056504703,6.061838021914285,1.1411430364202513,1.4575889129332278,1.4316971655009494,1.6452324634155449,1.7277354546560666,1.7271525432853332,2.251584409690474,1.0302209357649519,Relax
103.60372708525556,579.3795620437957,33.37049845977496,,,,,,,27.849648851941932,27.94997086688455,0.05759695482191079,0.0480680553413045,574.0,28.1694,0.04907560975609756,39.0,1.1982376739176752,555.0,602.0,6.569343065693431,42.33576642335766,496.0,684.0,6.85,117.1875,,,0.04461117253348946,0.03686667726544515,0.009832201677039392,0.091310051475974,1.210067623189442,0.4885680361841412,0.4037526720171187,-3.3004471910725828,19.76361393394051,42.88761723875903,0.4608233146624766,2662.858888284847,2.170029093975932,4.132318262633179,372.26950871764325,0.49635036496350365,0.5037037037037037,0.8529411764705882,0.044444444444444446,50.90403337969403,50.871400892155485,50.93412317693622,54.81481481481482,0.5727043476612124,0.42729565233878786,14.957965795546556,12.920268315067352,0.44926022005667016,0.5507397799433298,28.746230327501703,31.82769162814862,0.470886206199004,0.529113793800996,22.913822234434388,24.289249553144444,1.205725802810552,1.0877889999982822,1.267706814879376,1.5789582365166077,-0.9414121598066476,-1.5499389078050871,-0.21386783499582798,0.00040367693690783035,0.06043946320868699,1.3315545647764027,0.5790284850035943,0.8223861178100014,1.0534730124000913,1.0228653802509715,1.9261154897451203,-0.10090582661290756,0.0018502781923724766,0.07222020074339848,0.7679361666083939,1.83258146374831,6.061438882461661,1.2031075415501935,1.537147535832456,1.3539948004593805,1.7863720734511244,1.7900240404913124,1.734192901228187,2.901006317464172,0.9843986100456205,Relax
102.69234496245261,584.0962962962963,36.57539219937934,,,,,,,27.45049818757883,27.51938238202963,0.0626187709651657,0.04699652841772846,578.0,29.651999999999997,0.051301038062283734,40.0,1.3324126924563235,557.0,607.2,5.9259259259259265,43.7037037037037,496.0,722.0,7.105263157894737,125.0,,,0.049077026857979954,0.031199687678037213,0.005971546443523545,0.08624826097954072,1.5729973762694862,0.5690204799563634,0.3617428029701168,-3.467347194536124,19.459141896398755,46.4490787561307,0.41893493730121373,2839.557468066399,2.3870055012408793,4.160220772490536,443.4968260738193,0.48148148148148145,0.4887218045112782,0.8153846153846154,0.046511627906976744,53.2229658330398,53.02135995826504,53.448067410540524,51.8796992481203,0.5847602824517444,0.41523971754825534,14.898781299506558,12.554842099778712,0.5468137278391078,0.45318627216089225,34.34763264653115,31.26910694075193,0.5524912113028756,0.4475087886971241,26.473888575647315,23.82625766903561,1.170780478828929,1.299865021887804,1.2191648240322461,1.6934704503005893,-0.9737811145500146,-1.6139130411511777,-0.1351116321450781,0.001523204266844603,0.13274586329199317,0.7236422741697551,0.7425708741615681,1.011626961963806,1.0761764908819085,0.7501486396752775,-0.21234891958746127,-0.4130729050058893,0.0026459861463293943,0.10447031955756188,0.8260604211775542,1.6766901394432676,6.108902334084917,1.1576834125508642,1.328246537352467,1.3888884638148868,1.6119242583658655,1.7103134427665772,1.7225809300080461,2.271600158725879,0.9959962692145613,Relax
102.13073392350138,587.4477611940298,37.08141158553199,,,,,,,33.84073711847608,33.956402227289374,0.06312290902285737,0.05760637686267175,581.5,32.6172,0.05609148753224419,44.75,1.0957625259671604,557.6,622.4,9.701492537313433,45.52238805970149,509.0,691.0,7.444444444444445,101.5625,,,0.057083236008739706,0.02903769974874557,0.005582928449297902,0.09170386420678318,1.9658318841596847,0.622473616597253,0.31664641397518883,-3.5391603019167404,24.0108022796143,46.23573102013752,0.5193126992878436,3487.661062267328,1.925622079666729,4.249504382684674,356.1301780876348,0.5,0.5075757575757576,0.8208955223880597,0.075,51.906712890009466,51.89911106344197,51.915199404276905,52.27272727272727,0.5824727038756229,0.41752729612437706,18.33164592785499,15.520514283887746,0.4557995289793516,0.5442004710206485,31.215095255134543,34.108073108567474,0.48272067888387,0.5172793211161301,25.597181624266426,26.497613239834898,1.119909393771691,1.4961364403253725,1.2047924148921645,1.6719591604923885,-1.5309771070639115,-2.0055899224340763,-0.18775124179274263,0.0007230181052369549,0.12564265454537904,1.2676092883624974,0.5873340431305658,0.8236008476478109,0.9739422667972145,0.9932274400342735,1.720339089520054,-0.24402740500437448,0.0013997829262980186,0.05903590671768599,0.7888092103933473,1.6179125394250728,6.1761012727997,1.1486814590314147,1.4271664446206003,1.412723679906086,1.6848764467563981,1.742597415994445,1.751241441029196,2.595503337661182,1.0019081687962512,Relax
101.6324880248339,590.6641791044776,36.29307273114846,,,,,,,29.575187730990116,29.685146220440938,0.06144451282990175,0.05007107046144203,586.0,37.065,0.06325085324232081,50.25,1.227145979976961,559.6,623.0,8.955223880597014,44.776119402985074,509.0,684.0,7.052631578947368,62.5,,,0.058243624497564914,0.02297875788648264,0.005958919849488495,0.08718130223353605,2.534672447714286,0.6680747248021758,0.26357438232487646,-3.773185059959608,20.990568192987993,46.96293980088341,0.4469602687136963,3096.915406090934,2.2373353293300378,4.197899452493369,420.28737754286493,0.48507462686567165,0.49242424242424243,0.7846153846153846,0.07317073170731707,50.72895957587805,50.71816557781999,50.7374940444783,53.78787878787878,0.5682517578695825,0.4317482421304176,15.824199917540948,13.79325153394905,0.44668549510408484,0.5533145048959154,31.387462024988437,34.93343587984594,0.4669295236667534,0.5330704763332466,24.855362353025495,26.557472867820984,1.1579769459659295,0.8431723667315909,1.2498485873122829,1.3596399473158294,0.1774883578433588,-0.20452766417290302,-0.36978776305355765,0.00021434983423404604,0.03863585921388808,0.9522149890474583,0.6106703806143039,0.5255213911162624,0.8308565814234143,1.0,-1.4519973258974765,0.0,0.00160140844156657,0.06786249435396127,0.789811997467535,1.6524039483175437,6.136958642218831,1.2105395748016843,1.2058584514331208,1.395673253069216,1.6429427519645818,1.7687256316952942,1.7367001797711838,3.1345765313198086,0.949176159912238,Relax
101.39032607465968,591.9774436090225,35.63907163140883,,,,,,,28.000811676547066,28.099514180871846,0.060203428384252786,0.04730047061563461,589.0,34.099799999999995,0.0578943972835314,45.0,1.2727870907134962,561.0,623.0,6.7669172932330826,45.11278195488722,509.0,684.0,7.823529411764706,54.6875,,,0.05239788809520173,0.008731178082077008,0.006792897454328283,0.06792196363160703,6.001239191623167,0.7714424803646095,0.12854719762568836,-4.740854971834499,19.869357025342033,46.15920262576069,0.43045277853767067,2881.3232538017505,2.3231351959143782,4.166562094193983,428.93627294099224,0.48120300751879697,0.48854961832061067,0.796875,0.075,51.536312849162,51.59784662109619,51.4759498857445,51.908396946564885,0.5683034765300405,0.4316965234699596,14.98294195471372,13.058587885267375,0.45398011202379285,0.546019887976207,31.101168906732674,34.10849277937853,0.47186018577376454,0.5281398142262355,24.410768699320343,25.825529977506456,1.1962621993941212,1.2639740190561968,1.340258063914317,1.5732153709247014,-0.6336486443421734,-1.0310142350264666,-0.31569454474678793,0.00023864628835220574,0.08082794706215132,1.584022444348411,1.1345070315666115,0.7037585585077588,1.2324025830614715,1.0,2.4476814577119663,-0.034031954104575504,0.0027383062002047597,0.21405207874787432,0.842301616108065,1.7643604950399405,6.19709472506948,1.1754905955121666,1.2502965794582135,1.4353790239734476,1.7082174563291341,1.7782704315956064,1.7281608216452762,2.499814993305639,0.9018030180715806,Relax
101.23059666179444,592.781954887218,35.05436002490311,,,,,,,27.247880095467423,27.346935916146997,0.05913533591212727,0.04596610924273424,590.0,35.5824,0.06030915254237288,47.0,1.2864986157486162,561.0,623.0,5.263157894736842,45.11278195488722,509.0,684.0,7.823529411764706,148.4375,,,0.03307733053136122,0.015624823651565046,0.0030714056510873318,0.0517735598340136,2.1169730467996715,0.6388846090052023,0.30179156507024707,-4.1588943697232,19.33720383098149,45.663338670057996,0.42347328062678713,2774.030357813674,2.3614240750204827,4.150081319459987,431.32202912515487,0.5112781954887218,0.5153846153846153,0.8208955223880597,0.1,51.19685602000714,51.203577446273044,51.18804684284884,52.307692307692314,0.5624419660622636,0.43755803393773657,14.50467152965575,12.793426269971262,0.43987667008763875,0.5601233299123611,30.285386891097858,34.17507628891167,0.458519513179074,0.5414804868209258,23.744369388622307,25.80317417565253,1.2152212847990085,0.9235040575021571,1.2382838406756225,1.5883034521961674,-0.7692682422103605,-1.5233697427761408,-0.12098746759461058,0.0004095885606191022,0.05326206358494236,1.101930155773515,1.129258331587931,1.1495517686153713,1.4118358292783728,-1.5687626257554683,-2.007146241790271,-0.26773776794350934,0.0007729088423652141,0.05370816930142714,0.835529885664831,1.892107443062337,6.184992165111307,1.1888421005585537,1.110484861903755,1.522219939871167,1.718127926012053,1.8578931222100457,1.713716486601644,2.7775248085661675,0.9018030180715806,Relax
101.51446196939577,591.2537313432836,34.513522808445465,,,,,,,26.339027334020056,26.438569352727882,0.05837345454046161,0.0445477566360212,588.0,31.875899999999998,0.05421071428571428,44.0,1.31035677099082,561.0,617.0,4.477611940298507,43.28358208955223,509.0,684.0,7.882352941176471,101.5625,,,0.05038938895377949,0.01905304867503626,0.0042377491465496716,0.07368018677536542,2.6446890370778733,0.6838933390248533,0.25859121032259036,-3.960528154778757,18.694891674184714,45.063449863016686,0.41485708997010246,2646.654565946219,2.410468626851881,4.129667372043986,434.49612845005765,0.5223880597014925,0.5303030303030303,0.8285714285714286,0.06976744186046512,49.89193083573487,49.87849783340861,49.905113453948594,52.27272727272727,0.530400572246066,0.46959942775393426,13.615248804190102,12.811127975318955,0.45711354671492976,0.5428864532850702,30.467476325704254,33.2031233455419,0.4678746841154655,0.5321253158845344,23.59705610513046,25.16517832143525,1.223979925041579,0.7409815277038847,1.2503860905503246,1.3300480604978762,0.06132471175456544,-0.20361364802518978,-0.39249128761090174,0.00020890630991067353,0.023179185956076338,1.242323965761662,1.189658246576296,0.3042058964735981,0.899035019761746,1.6232824447846745,-0.5868031529322328,0.0,0.00040971208560916105,0.08427251649174394,0.7416967879234493,1.7737409637253767,6.184647892409601,1.1674245832760912,1.463129290824936,1.2825204391973106,1.5677805304266106,1.8868266863771528,1.6902353491233932,2.720087385537961,0.8437121421442116,Relax
100.97365626131804,594.2406015037594,35.29661121512681,,,,,,,27.116471568089942,27.213955102146446,0.05939784512503309,0.04563214209778022,594.0,34.099799999999995,0.0574070707070707,46.0,1.3016668162926872,565.4,623.0,5.263157894736842,45.11278195488722,509.0,684.0,7.0,101.5625,,,0.05720172462925842,0.020623756852386474,0.005992173785936771,0.08381765526758167,2.773584126242224,0.6824543641389889,0.24605504397070826,-3.8813116224016184,19.243172195633992,46.023723126735945,0.4181142004232012,2782.3277493197193,2.391691071453286,4.151378397133667,440.2981107090099,0.5112781954887218,0.5190839694656488,0.7941176470588235,0.07142857142857142,51.298245614035075,51.29577792397697,51.29830929232651,51.908396946564885,0.5479703276323925,0.4520296723676078,14.247806848775006,12.940556992153605,0.4619246360607634,0.5380753639392367,31.280040811427,33.76006719901354,0.4747333596845646,0.5252666403154352,24.304741853849617,25.56560338178121,1.1835729979373468,0.4900075078781452,1.21541904297007,1.366215143914551,0.3292497520044062,-0.45882132676035425,-0.19225757050648942,0.00016064293751044226,0.016988690863423122,0.974414961919646,1.2592619781722831,0.6599831775253815,1.289614166611523,0.8651707089168585,-4.079704143267072,0.0,0.008343088832964307,0.3232701433247225,0.8119643051417005,1.742969305058623,6.220743198962163,1.1770669021615336,1.1322069820322296,1.4842858088445139,1.8872584308487714,1.8580056582298856,1.7030972468152512,2.874921476922866,0.9018030180715806,Relax
100.19948659183352,599.2651515151515,66.45665060699744,,,,,,,61.15884711268413,61.1868493579392,0.11089690504941231,0.10205640517899833,594.0,33.3585,0.05615909090909091,44.25,1.0866236651673993,566.2,622.4000000000001,6.0606060606060606,44.696969696969695,509.0,1244.0,6.947368421052632,101.5625,,,0.04708459374459964,0.02166876371958561,0.006128812446292729,0.07488216991047797,2.1729247849078526,0.6287824431488767,0.28937147181352696,-3.8318835153803774,43.265636100438556,61.69170837294902,0.7013201164552277,8385.322356394694,1.425882384572723,4.630489872778962,351.8604809727423,0.5,0.5076923076923077,0.7727272727272727,0.07317073170731707,59.64757709251099,56.65319623789213,63.96844128694361,51.53846153846153,0.9118395568916293,0.08816044310837097,41.45409880448865,12.88976934805871,0.6961192134675308,0.30388078653246914,51.471711263966746,34.00779060056427,0.7675623661846034,0.23243763381539656,46.73210549575885,25.71649252306758,1.2376769886483319,0.44648689623906623,1.2739252503326606,1.4047811179730005,0.1624500307486869,-0.5727150725178793,-0.20692114652727747,0.00034528103225348766,0.019227211746211937,0.9064505964988567,0.5660049032981533,0.3404456932007034,0.6234481448497801,0.9745020552427733,-0.4094617035671829,0.0,0.001516934404316904,0.059860997341321734,0.9142272450730125,1.090244038997593,6.198570327754328,0.7587708993994684,1.211995312960355,1.2306293080726807,1.4214215181793246,1.2337683810570033,1.7446505538295816,1.5094045685863366,0.7471327096289269,Relax
99.16787448884179,606.6923076923077,93.59626691636683,,,,,,,130.5330158123004,131.03738916620753,0.1542730404352439,0.2151552181513763,596.0,36.323699999999995,0.06094580536912751,48.0,0.7170313681479124,567.0,629.2,9.230769230769232,46.92307692307692,448.0,1331.0,7.222222222222222,164.0625,,,0.020062903696321386,0.01698709085482524,0.003864372477623859,0.04091436702877049,1.1810676629555112,0.49036329175551935,0.41518645132356863,-4.075301584867758,92.65742646840599,94.81908677865844,0.9772022660870111,27601.067206320236,1.0233295958310427,5.147895984521772,388.1247110010924,0.5,0.5078125,0.7692307692307693,0.075,51.22936424306287,50.864860959833194,51.5750957561507,51.5625,0.5552553350433618,0.44474466495663817,69.04649135727317,61.79461318553584,0.43859463759433726,0.5614053624056625,62.795341556922835,71.04508636273277,0.49558204741453094,0.5044179525854691,65.99497287672978,66.58069733428059,0.16022948599113657,2.2057465494281816,0.997552835373063,0.7417166381797373,-0.03226456244961717,0.010507682601363144,-0.6159862166664837,0.009904496608450686,0.5132156072380225,0.8989291954019973,2.1624844124186273,2.1739527880652307,1.2920050086225694,0.5950026214142552,0.8670836764917413,-0.9078400632059346,0.006773826157931291,0.509521775626591,0.8428415391583268,0.8756989134396211,6.329759351356858,0.6043526578558683,1.185527286424322,1.229807598503586,1.1694417591634823,0.9728806585386354,1.90229418967271,1.6936858213963084,0.7562549952492182,Relax
98.49982616235012,611.031007751938,93.75482804105478,,,,,,,131.15648454232067,131.67107722001643,0.15343710360295937,0.21464783763570744,599.0,35.5824,0.05940300500834725,46.0,0.7148318161181166,572.0,630.4,10.077519379844961,47.286821705426355,448.0,1331.0,7.166666666666667,179.6875,,,0.022494377308021722,0.036114285166288375,0.01576746286902057,0.07437612534333067,0.6228664697209503,0.3024408330520649,0.48556287383323277,-3.321066780938725,93.10551158841115,95.02706291250696,0.9797789043962664,27795.377056258196,1.0206384272135292,5.15094267976798,387.95308813496877,0.4806201550387597,0.48412698412698413,0.7049180327868853,0.07894736842105263,50.49556598852373,50.022586446269955,50.986103465976264,50.79365079365079,0.5538211120693922,0.4461788879306076,69.28873742433375,62.191696283460324,0.4415195109599405,0.5584804890400594,63.14257028758801,71.01519910029519,0.4965237268942491,0.5034762731057512,66.28692675174065,66.74940295563977,0.49350459468310603,2.004125095583621,1.2036549449070848,0.842996196367622,0.22267850055827942,0.49210577166392216,-0.6799582018778301,0.006676512558703139,0.41141602253712645,0.5271695194345868,0.5777467211774914,0.5641000596240713,0.4495051800061387,0.5141763108217781,0.44025337367616446,-0.698347953207557,0.000956575599055272,0.037666697946920874,0.8505744796332491,0.8785948671091183,6.29189401883821,0.6257387677014207,1.0153488378687519,1.2415395413337305,1.1760429542552575,0.9709975481856521,1.8241605068167237,1.7084660517713977,0.7609083843095005,Relax
98.66909141591215,609.8846153846154,92.87773363346935,,,,,,,130.4154661014161,130.92330881358626,0.15228738566375752,0.2138362942950633,599.0,31.1346,0.05197762938230384,40.75,0.7121680917909233,573.8,628.2,9.230769230769232,45.38461538461539,448.0,1331.0,6.5,164.0625,,,0.02826958270935439,0.05343620483808676,0.0288860108449085,0.11059179839234964,0.5290342529940523,0.25562096936937034,0.48318415664522996,-2.929266769526962,92.57675947746732,93.8257613774704,0.9866880707210227,27288.140648000528,1.0134915275394478,5.14294405479902,380.3664568840167,0.4846153846153846,0.4881889763779528,0.7096774193548387,0.07692307692307693,49.54731049174508,48.84115563021961,50.29033446517821,51.96850393700787,0.552831125171315,0.447168874828685,68.8335571778039,61.90699930137141,0.44180710489991987,0.5581928951000802,62.364643651839856,70.0993917251858,0.4965754799785783,0.5034245200214217,65.67879175034726,66.13017950505294,0.4759806865779633,2.0428909808428153,1.1971140250904635,0.8763491084796067,0.013489929518909705,0.20733181852564975,-0.6570151905406729,0.007245742912409693,0.4181584652909297,1.7327628696650195,2.114546294191802,2.5727967316970393,2.5606166991023604,-4.250700398154031,-5.250700398154031,-0.5057601163087015,0.006700344833711322,0.4679246726306885,0.8331430067448391,0.8309542892450471,6.227105674680345,0.6072417163730037,1.089326483848111,1.1748316347887622,1.1157693737112722,0.9024084119793688,1.828442003279059,1.7691491133095159,0.8642914231419636,Relax
98.6221164386062,610.2558139534884,92.91295313606771,,,,,,,130.91158753143284,131.4258636188203,0.15225246693536493,0.21451919758590038,599.0,28.1694,0.047027378964941566,37.0,0.7097381896293834,575.6,626.4,9.30232558139535,44.18604651162791,448.0,1331.0,5.863636363636363,164.0625,,,0.030900091453788397,0.06244029580060948,0.03388602935190848,0.12722641660630635,0.4948742003475067,0.24287480759130917,0.49078090436066285,-2.773544445988512,92.9321193881662,93.60663776075933,0.9927941181445159,27328.913155040722,1.0072581834680403,5.143592470518188,377.1442076458132,0.5038759689922481,0.5079365079365079,0.75,0.10256410256410256,50.196498749553406,49.62266387853173,50.78426694870858,50.79365079365079,0.5533669091247257,0.4466330908752742,69.13099513379636,62.10715910906266,0.44161842417073943,0.5583815758292607,62.205708090130486,69.94749826748266,0.4970886410216205,0.5029113589783796,65.75957955759564,66.14360031959976,0.4599113440980275,2.1632349535872066,1.1408685683646131,1.0216647715623282,-0.4005359488518607,-0.40205153961540663,-0.5551044150819652,0.005014316170265002,0.39447216459046824,1.3670930671059676,2.3586405108806185,0.28113849510234923,0.28964798102421324,1.0,5.079608938213087,-0.49639220734036876,0.02874355751341764,1.0366223342764342,0.8139201400391745,0.8436954330428371,6.16786301108627,0.6126610062437127,1.1082291223168386,1.1755269929266123,1.196712197836986,0.8770438231830522,1.8323947183033225,1.715397982982731,0.8696095820680005,Relax
98.74449936166147,609.4615384615385,92.84755813632556,,,,,,,130.37587283333625,130.8841440243116,0.15234358901580616,0.21391977115150462,599.0,28.9107,0.048264941569282134,38.75,0.7121529169359091,574.0,626.2,9.230769230769232,43.84615384615385,448.0,1331.0,5.909090909090909,164.0625,,,0.030416905090429068,0.059701283169434106,0.033024257691978705,0.12314244595184187,0.5094849469835504,0.24700585452334126,0.48481482325584047,-2.8184017651892033,92.54906578938748,93.58145055296428,0.9889680619665914,27208.94386199445,1.0111549992943871,5.141681794563682,378.50140627140127,0.5,0.504,0.7301587301587301,0.10256410256410256,49.919108394751035,49.2635186749303,50.58796670964782,51.2,0.5531067507325361,0.446893249267464,68.82981162802932,61.86912850929775,0.44237568068423866,0.5576243193157612,62.242265907979714,69.88124370843184,0.49712706559630926,0.502872934403691,65.61875735683225,65.99688358073146,0.44206584601168986,2.4496552022644416,1.2256274565284269,1.0251838531996,-0.5387095664533206,-0.2883050211287337,-0.5818252312176581,0.006806923223155268,0.5155015436255473,0.08890648016191946,0.9618379040420255,0.32356331702308916,0.2656362768050181,1.0444657500542651,0.6528440608100934,-0.5602253664309117,0.005312106277671761,0.19661238472823872,0.8017178555248425,0.8247828380195688,6.153953559262447,0.6089443365447819,0.8481017229808152,1.0661421867943308,1.0211858212101719,0.8775944193459917,1.8250453389562589,1.6823046374595483,0.9723278510347091,Relax
98.87409947635278,608.6307692307693,93.10660210743836,,,,,,,130.4289286406838,130.9373800900452,0.15297715267519763,0.21429893990658597,599.0,29.651999999999997,0.0495025041736227,38.75,0.7138493206820397,573.8,626.2,9.230769230769232,44.61538461538462,448.0,1331.0,6.5,164.0625,,,0.026791641957023504,0.052366238270016824,0.026790899050526406,0.10594877927756674,0.5116205181452477,0.2528735313394619,0.49425994926120576,-2.949493203134734,92.58670937247139,94.33238327530597,0.9814944365633179,27438.434474763395,1.0188544761409744,5.14532943863035,384.44388378036587,0.49230769230769234,0.5,0.71875,0.10256410256410256,49.875798438608925,49.22992568433959,50.54561963680797,51.5625,0.5529958851862146,0.44700411481378527,68.85092024621021,61.901982752978114,0.4416867187987619,0.5583132812012378,62.692844795608586,70.48550025241332,0.4963018738749373,0.5036981261250626,65.84391394546752,66.33272651784698,0.4934633103334978,3.7507988730018016,1.296346656429488,1.6745981971425545,-1.8964207225408138,-1.5318638742523731,-0.3991544058958437,0.0073670206148878465,1.034359732142978,0.22876959304186656,1.8111860674296287,1.0320567783827173,0.6171458540529442,0.725428246788113,0.7295325408967368,-0.7290824403914502,0.0058319909378668,0.40598063918430577,0.8355832466529951,0.8719733086895924,6.132762116938112,0.615721335099939,0.8502689495408942,1.091340433805513,0.9928514091275792,0.906592657896059,1.8474119867332583,1.730052922524688,0.9183096370883364,Relax
98.55457655700049,610.8294573643411,92.15171966916567,,,,,,,130.90651483024058,131.42070076875706,0.15086325415082263,0.21430943326650803,599.0,28.1694,0.047027378964941566,38.0,0.703950600080278,574.6,626.4,9.30232558139535,44.96124031007752,448.0,1331.0,6.45,164.0625,,,0.028578218690860854,0.05820898354217337,0.03151297467431515,0.11830017690734937,0.4909589027637884,0.24157376123995838,0.4920447717315049,-2.843715579761736,92.92846870187623,91.98171463270107,1.0102928508449283,26853.45400945058,0.9898120125898938,5.135970264458025,364.17842432825256,0.5116279069767442,0.5196850393700787,0.7424242424242424,0.0975609756097561,49.7508896797153,49.05900357181228,50.461054289968764,50.39370078740157,0.5523749084785141,0.44762509152148616,69.06632667454495,62.17368357379075,0.4452634665084575,0.5547365334915425,61.37761837261198,68.50856727211318,0.49936766653533804,0.5006323334646622,65.33517244719323,65.41785199321174,0.3687472883981438,2.3218970692520897,1.0514223962132836,0.9771027095160731,-0.6148851089076093,-0.5427140009377488,-0.532008174557518,0.004646854018566756,0.42148361406450763,0.0475404908336311,1.4426447034308525,0.6940177329931023,0.42732293388816933,0.9860271840102324,0.6691070013320084,-0.6848651982506072,0.010597707068732516,0.40943905752881976,0.8327441158647555,0.8733736980198512,6.103021708942079,0.6163225917244063,0.8783509114827974,1.0789621532378668,0.9939507214912875,0.8747369256311115,1.8788837679448072,1.717780010291712,1.1413625764642508,Relax
98.60547574971194,610.3461538461538,91.847338079142,,,,,,,130.25609837082754,130.76392134300653,0.15048401222872848,0.2134134827425494,599.0,29.651999999999997,0.0495025041736227,39.5,0.7051288901473218,574.8,626.2,9.230769230769232,43.84615384615385,448.0,1331.0,7.222222222222222,187.5,,,0.0307807108451329,0.06094784004236391,0.03520409667408006,0.12693264756157685,0.5050336619597626,0.24249640605818717,0.48015889696775793,-2.7977368618720755,92.46405551618422,91.94008959695927,1.0056989929150806,26707.161535497096,0.9943333015591854,5.133597843173121,365.6763713383673,0.5,0.5078125,0.7230769230769231,0.0975609756097561,50.000000000000014,49.37543463955672,50.641764958304925,50.0,0.552325172317058,0.44767482768294203,68.71797549586279,61.86631883545358,0.44739741307376163,0.5526025869262384,61.496678108353166,68.3457288843604,0.5001594320128397,0.49984056798716026,65.20736758454677,65.18657861471368,0.36658613012279323,2.1767858263590134,1.0797498102176735,0.9694710379668418,-0.2935902821924792,-0.3225742715215627,-0.5506612873510339,0.005202541148134704,0.4213704945589977,0.5626385950946987,0.9611012783267563,0.9642083153666459,0.8171928101026503,0.854189609747972,0.30618245805882516,-0.6529656744603902,0.0024248416503050174,0.1279265589531369,0.8020750999918076,0.824694576766202,6.153953559262447,0.6086190056121539,0.9677891038306363,1.0546989291614564,0.982589525671179,0.867294322240396,1.8717481224298123,1.7186005488390972,1.0263460649810818,Relax
98.96489206229845,608.2153846153847,91.73825122718995,,,,,,,130.0179474790564,130.52350197875649,0.15083184928839344,0.21376958026353685,596.5,27.428099999999997,0.04598172673931265,37.0,0.7055814447614424,574.0,619.2,7.6923076923076925,40.76923076923077,448.0,1331.0,7.222222222222222,171.875,,,0.02701498227458713,0.0539322186013835,0.029518151951800867,0.11046535282777149,0.5009061925350522,0.24455615795394844,0.4882274597490327,-2.9200272319406273,92.29405335339446,91.65464630049583,1.0069762644743867,26575.294022945203,0.9930720666211252,5.131448188118038,364.0786760682467,0.46923076923076923,0.4765625,0.6885245901639344,0.045454545454545456,50.698786318499444,50.279552624560296,51.14004954260708,49.21875,0.5529279103701468,0.4470720896298531,68.62975279534379,61.71162142376426,0.4497873953833026,0.5502126046166977,61.46928000192996,67.98604124754819,0.5017166951569693,0.4982833048430308,65.14796755350724,64.92467182536744,0.46213147334491983,2.2164135186689466,1.1469446330017805,0.9150009193241762,-0.23132947290599581,0.060426614134968304,-0.604648212855558,0.005254027334555551,0.4136525707740372,1.387083292562912,2.448608542329535,0.2079469271955392,0.3603037685301122,1.0,4.914261937571087,-0.4377781957790505,0.033846150711900884,1.193854741612523,0.7605549228970219,0.80661428375076,6.076262286415448,0.5963254942791835,0.7937246021554408,1.0160205205184454,0.9325582309557107,0.8312635418751877,1.8646645642120085,1.6525733815106705,1.0263460649810818,Relax
99.14228386849183,607.0,91.09684768922978,,,,,,,129.59343102310814,130.0986683922701,0.15007717905968662,0.21349823891780584,594.5,25.2042,0.04239562657695543,35.75,0.7029434051559763,574.8,618.0,5.384615384615385,40.0,448.0,1331.0,7.222222222222222,195.3125,,,0.023414148199067012,0.047991732678781415,0.023777445560272087,0.09518332643812051,0.48787878436860665,0.2459900181602578,0.5042031464405822,-3.0367265187672654,91.99365064351414,90.90587122117371,1.011965997440296,26272.39467434046,0.9881754945615138,5.126469769594223,359.32381701011445,0.47692307692307695,0.4803149606299213,0.7213114754098361,0.043478260869565216,50.028371477208246,49.375264707747476,50.688742167402346,49.60629921259843,0.5521639891344736,0.4478360108655264,68.35840177878649,61.56265862923725,0.4472283969137512,0.5527716030862487,60.793426058643455,67.58725301810149,0.5003202673453052,0.4996797326546946,64.6865973200699,64.6451765719333,0.4083790122313823,1.8295766345079718,1.047101941324716,0.8461859071241613,-0.15887505712098537,-0.20491221239857138,-0.6098155881590536,0.005560929114991922,0.319781390600773,0.033839631122987095,1.324932108003002,0.5718664697701907,0.3685827837010545,1.0265884698586532,0.6820342727055203,-0.6534295114755235,0.01074883678634305,0.3745191599031006,0.7277548154805689,0.7687737558908572,6.047727625303549,0.5829659103124105,0.6942442387088623,0.9696777332362296,0.9086333548564178,0.7746122819077412,1.8701647294188424,1.6940042540498843,0.9723278510347091,Relax
99.01332149229103,607.7538461538461,91.1421975754967,,,,,,,129.64982653046567,130.15477192945232,0.14996564505891266,0.21332621315513037,596.5,27.428099999999997,0.04598172673931265,36.75,0.7029874240061533,575.0,620.4,5.384615384615385,40.0,448.0,1331.0,7.222222222222222,195.3125,,,0.0271289707045227,0.056276739472907816,0.029862576573273347,0.11326828675070386,0.48206365469312334,0.2395107358181536,0.4968446251576954,-2.8774739824421243,92.03332183510423,90.91076137306426,1.012347938187795,26285.13823441419,0.987802673644104,5.126680375291333,359.20757258933605,0.45384615384615384,0.4609375,0.6779661016949152,0.044444444444444446,50.440487347703844,49.89354427773934,50.98706711964546,48.4375,0.5521808767964523,0.44781912320354783,68.38919528149165,61.58828774612913,0.44747944445836857,0.5525205555416313,60.81375779342596,67.5755384475237,0.5004728000185081,0.49952719998149203,64.7124221776912,64.65125901315749,0.4275514133557294,1.8427771410188827,1.062163835636522,0.7401658570361822,-0.024040017227951793,0.17464500958807228,-0.6747351708640715,0.006053677088043405,0.3343922036678865,0.5504197012831181,0.45456850149153455,0.3661771653549968,0.5853373022497772,1.0354569036389587,0.42019020319717504,-0.01787214429580999,0.0016237520927228522,0.057960598619150344,0.7273718581265443,0.7731898882334816,6.110802478689855,0.5919784455775233,0.8028146156451625,0.9993359787070282,0.9244906032896476,0.7901548937025321,1.8769935822955102,1.6793683980229936,1.0263460649810818,Relax
98.90420262803072,608.4384615384615,91.1817338438027,,,,,,,129.65359333071294,130.15904850211814,0.14986188350625626,0.21309236928066402,598.5,28.9107,0.04830526315789473,38.5,0.703271937949468,575.0,625.2,5.384615384615385,40.0,448.0,1331.0,7.222222222222222,195.3125,,,0.03008368118723252,0.06227769769592824,0.03511300248778578,0.12747438137094655,0.4830570541338334,0.23599785983420407,0.4885506956468535,-2.7761518996885846,92.03634582863647,91.03350791853234,1.011016140463373,26321.492923868263,0.9891038925863992,5.127280628270357,360.16638815206056,0.43846153846153846,0.4453125,0.6491228070175439,0.044444444444444446,49.91565135895032,49.24235926185957,50.600426497402005,50.0,0.5519468092416083,0.4480531907583917,68.37668530829788,61.60617105858795,0.4473454479148517,0.5526545520851486,60.8867495137632,67.67498280459141,0.5002191145006242,0.4997808854993758,64.74012418933772,64.71175940314767,0.4412723510776032,3.5168442999211145,1.1631692279671995,1.613330563406052,-1.753696339713196,-1.6062942842064396,-0.37199850290530345,0.00763539203403165,0.9514504326055456,0.4875558203902643,1.4179824435480297,0.8464596913817053,0.88870808043889,-0.049154289399134576,-0.24896551629194263,-0.47020528057352234,0.001149310232788765,0.14508040170343944,0.7123582514143836,0.7598104062640879,6.101992886168881,0.5950172741752876,0.7084887751768738,1.0051603603510222,0.9629258151013916,0.8135097952325415,1.877325162025971,1.7034973752488218,1.0263460649810818,Relax
98.97745137961218,607.9923076923077,91.46825570018719,,,,,,,129.6474348544586,130.15227971763565,0.1504431134126739,0.2132386104464836,598.5,30.3933,0.05078245614035088,39.75,0.7055153524855227,574.0,625.2,5.384615384615385,38.46153846153847,448.0,1331.0,7.222222222222222,164.0625,,,0.02691144644271315,0.057088756039207815,0.030847013935871616,0.11484721641779258,0.4713966165987348,0.234323889442948,0.49708436843196663,-2.8631480987124855,92.03155957522851,91.45943861792615,1.0062554610650127,26443.271601757915,0.9937834264686702,5.129285295672998,363.5634971704947,0.4230769230769231,0.4296875,0.6363636363636364,0.045454545454545456,49.52309706377406,48.72175547446992,50.3302977800018,50.78125,0.5518917894323224,0.44810821056767736,68.37002952683288,61.607027044404596,0.44350056080397005,0.55649943919603,60.90817936564073,68.22772602592833,0.4980343853073471,0.5019656146926529,64.74668814363041,65.00172451527396,0.46953150123921783,3.3584948117797127,1.1164929122801632,1.6975594593860126,-1.8041960601823916,-1.9318640291567477,-0.3269860221109188,0.007847428815701078,0.9165824766339248,1.8093924488964863,1.8533799908745912,2.5107868912289106,1.5862442432608932,2.3797669893235396,1.357927084065456,-0.9988413884471339,0.010140874274571275,0.5407289723071224,0.7042090118513316,0.7615425019843004,6.05303497865657,0.5890753740993976,0.6660202577015392,1.0095379289395705,0.9449591453352646,0.8321468542322037,1.882539365149693,1.6925465981988397,0.9183096370883364,Relax
98.62705384485497,610.2558139534884,91.42878709938745,,,,,,,130.22630542636153,130.73799364486004,0.14982042777613885,0.2133962552240214,600.0,31.1346,0.051891,42.0,0.7020761803849781,577.2,628.4,5.426356589147287,40.310077519379846,448.0,1331.0,7.166666666666667,203.125,,,0.01858482524323323,0.041438385231840985,0.018527203733316774,0.07855041420839098,0.4484929887893598,0.23659741874725781,0.5275387233720585,-3.1835476482032234,92.44572186500429,91.05025598082209,1.0153263257653677,26443.434544412685,0.9849050247428436,5.129287971774461,358.70341847853524,0.4263565891472868,0.4330708661417323,0.6545454545454545,0.045454545454545456,49.94413407821228,49.278223564748934,50.62003081079436,50.39370078740157,0.5522619496226628,0.44773805037733705,68.70042235311266,61.85842357293898,0.43835358776800726,0.5616464122319927,60.28280523772597,68.23585939111213,0.49617398232627985,0.5038260176737204,64.62880410012885,65.12525268193882,0.37706339350920204,1.973291687129705,1.0438847110918332,0.9031745752381072,-0.29238662930404224,-0.3713173056321475,-0.5713073169929577,0.005108078816660148,0.35234005267100194,1.4637688144908954,2.675865919896454,1.0838580897146401,0.4688568619902663,1.0,4.935368802295228,-0.7298326022808242,0.041113697516129026,1.2678256141111899,0.7014495466862658,0.7524637577163651,6.046083895237072,0.6038144943116164,0.5157347304886675,1.0407712771491147,0.9710343937969288,0.8397954447504179,1.9026087023625415,1.6850180944562607,1.0326613787057506,Relax
98.73271372741604,609.4263565891473,91.25845638845257,,,,,,,130.15978761699023,130.67121705273624,0.1497448467755976,0.21357754913238702,600.0,31.1346,0.051891,40.0,0.7011263467714838,577.2,625.4,4.651162790697675,39.53488372093023,448.0,1331.0,7.166666666666667,203.125,,,0.008250162984063197,0.016176156368831227,0.0037883257601548275,0.02821464511304925,0.510019982247445,0.29240711520583695,0.5733248213478244,-4.12421695003269,92.39850368388902,90.82392960951738,1.0173365552574223,26364.230452348464,0.9829588790771058,5.12798520915758,357.10475216939665,0.43410852713178294,0.4409448818897638,0.6607142857142857,0.045454545454545456,50.0469483568075,49.40225057932983,50.69899541460816,48.818897637795274,0.5522801024292594,0.44771989757074065,68.66645962306018,61.82557379275302,0.440688528231246,0.559311471768754,60.29289828284246,67.92460972555808,0.49744324094334785,0.5025567590566521,64.61546355366701,64.94672501817367,0.23371103307432095,2.233099196859674,1.0050406464458947,0.8401222526035605,-0.5197272256292855,-0.49945046782809066,-0.5738517993621837,0.007571567121675953,0.45732277145499134,0.22880471010674336,1.2558187492894823,0.852892128536511,0.5172284714002845,0.902481995494703,0.5814532221971032,-0.7672867062433479,0.004684255382131906,0.23632843975260573,0.6776389244107133,0.7401041636477166,6.002598310163917,0.5950116564235322,0.5419480918821892,0.9723088573616369,0.9074895027297865,0.8247502607192838,2.0169220847418083,1.7042977647315056,1.0326613787057506,Relax
98.9291797245026,606.0381679389313,70.24237211039114,,,,,,,65.29100538830279,65.30668395798818,0.11590420509202856,0.1077341475213521,600.0,29.651999999999997,0.04942,39.0,1.0758353572998496,578.0,625.0,1.5267175572519083,37.404580152671755,539.0,1329.0,7.277777777777778,117.1875,,,0.02503202222765437,0.0546980490609183,0.005034712620617098,0.08476478390918976,0.45764012898843454,0.2953115795643588,0.6452921430144555,-2.905927236352625,46.17879908350015,61.06606220715701,0.7562105270001829,8859.157506206373,1.3223830722998626,4.654362532999756,323.0109078190193,0.42748091603053434,0.434108527131783,0.6607142857142857,0.044444444444444446,38.299253489126905,42.21855046075558,32.70330378834344,49.6124031007752,0.05267251195010997,0.9473274880498899,10.636706956747512,45.10921286468339,0.2008270203102905,0.7991729796897094,27.36597892138305,54.59090722055084,0.1466785433405165,0.8533214566594836,20.760977062861254,50.074984954736166,1.0326856678084646,2.487803425297893,1.2251285766675424,2.0986348253024447,-1.6698393213469167,-2.1561669320039085,-0.14888453816229177,0.010703589780762359,0.6760052207983872,0.3127123888724263,0.8142191236033296,0.5078065241062832,0.7198219506740912,-1.0340694699209179,-2.0483625012521456,-0.23960888362639673,0.0002531597004882136,0.04476282750899648,0.7699446648849717,0.8367032939558076,5.912293066876244,0.6961908865925108,0.7402034697882546,1.1131385991131357,1.0607163581820207,1.092117133996982,1.8631472045511033,1.3881232231116956,0.9127342826422644,Relax
100.32127668895187,598.1287878787879,25.44666786417773,,,,,,,21.10352526536631,21.18433760395034,0.04254379387827518,0.03528257741983652,599.5,27.428099999999997,0.045751626355296074,38.0,1.2058017579621683,578.0,621.8,0.0,34.090909090909086,539.0,658.0,6.285714285714286,109.375,,,0.02592977519763423,0.056142026510377294,0.00640176298182241,0.08847356468983393,0.46186033546262123,0.293079354138578,0.6345627273773485,-2.879870611258193,14.979588774698463,32.81918559382135,0.45642780293483487,1544.4631959438857,2.190927006571447,3.8957476736261785,287.6177602047351,0.44696969696969696,0.45384615384615384,0.6949152542372882,0.044444444444444446,49.740259740259745,49.74717186347208,49.733530475092806,50.0,0.4682904254225087,0.5317095745774914,10.250891143250387,10.922982123098913,0.4658487068224136,0.5341512931775865,22.400114949163996,23.986116678318954,0.4662696876558243,0.5337303123441758,17.41904014242073,18.63659480387269,1.0910041174447622,0.6671452769813291,1.1280995469595538,1.4245767559354268,-0.20512099818690466,-1.1951232132994942,-0.0556032258560526,0.0001822665383393891,0.03215749836977305,0.0855040990782824,1.1587832225411456,0.2893090777527827,-0.002962237149895186,0.8736539235836704,1.592699212931322,-0.7522225979952865,0.0005395558797331781,0.090624863500968,0.7285341956892681,1.6397432619294294,5.871151532687103,1.3048993504796425,1.5559446780592048,1.285571658694258,1.6891320398977823,1.8556048279727495,1.8594558689216458,3.2509066252936796,1.0139658202106865,Relax
100.4533716812774,597.3939393939394,25.501311918282767,,,,,,,20.923707289043143,21.003754942096556,0.042687597306651684,0.0350249741573716,597.5,27.428099999999997,0.04590476987447698,37.25,1.2187759829557891,576.4,621.8,0.0,34.84848484848485,539.0,658.0,6.285714285714286,109.375,,,0.027169039471438342,0.06017624057994776,0.007783948950443979,0.09512922900183007,0.4514911401841834,0.2856013841015748,0.6325736181336034,-2.8104776793236383,14.851897549936933,32.99494614230559,0.4501264371180188,1539.4983977603006,2.221598016776361,3.8943493512073593,293.20602765355574,0.44696969696969696,0.45384615384615384,0.6949152542372882,0.044444444444444446,50.30728709394205,50.31342663348182,50.30070315747916,49.23076923076923,0.47325289440647217,0.5267471055935278,10.217255389404126,10.779253577697656,0.468718017581381,0.5312819824186192,22.589324692503244,24.049716856343853,0.4694820605298517,0.5305179394701481,17.53097113333492,18.63573433705548,1.0498128589609195,1.0349772615505834,1.2047299622249885,1.285513241167708,0.004802447604054905,-0.26709292950627894,-0.4219468079697795,0.00011946783940486261,0.05378746520120026,1.4919799240977811,1.0256601283901696,2.2501815638311538,1.7373514996360688,2.9886178256787055,2.0162192741697904,-1.0,0.0012504699996337772,0.13402447222203753,0.7500883317612375,1.7011051009599243,5.872664645870586,1.3020634028992466,1.4739722882365116,1.2057866606146095,1.6690151381518412,1.8726591119348528,1.8453056587578764,3.3663624561165544,1.0139658202106865,Relax
100.76650676206194,595.4586466165414,26.276937485350583,,,,,,,20.80355447484585,20.878463724931986,0.0441289040551496,0.03493702643005326,593.0,26.686799999999998,0.04500303541315345,35.0,1.2630984535418095,574.4,620.2,0.0,33.08270676691729,539.0,658.0,6.333333333333333,109.375,,,0.03453824369297285,0.0736129764638835,0.011244222607294494,0.11939544276415084,0.46918689274734376,0.2892760635864332,0.6165476232564063,-2.6089339581376114,14.763303280656752,34.01099786749327,0.4340743937644679,1577.4397786239492,2.3037525695252317,3.9049228982833273,313.4116949174192,0.43609022556390975,0.446969696969697,0.6779661016949152,0.02127659574468085,48.77942458587621,48.81106636208917,48.74798053813949,50.75757575757576,0.4579365635065117,0.5420634364934883,9.992554480120083,10.871736590285362,0.45266758266189916,0.5473324173381006,22.882795065703757,25.161988512906447,0.4535032564700884,0.5464967435299116,17.656067725532264,19.38195452492067,1.0724694078761783,0.7741443217156663,1.1680744504806704,1.373617702124887,-0.1199484270771336,-0.9094976077066583,-0.23448975096957422,0.00012445230922060005,0.035216263139776736,0.8050215878583313,0.9814327394624525,0.9709671428054065,1.2957379575895576,-1.280849539821741,-2.2755668011781482,-0.16908500019875677,0.00024395301242362172,0.05754539901267841,0.73359279198095,1.768769951003356,5.953752409455942,1.2641421849427916,1.2473661968830732,1.233415230922828,1.5954014303926343,1.912109688513191,1.8470742252921035,2.759077817651583,1.0078974907858844,Relax
100.81003262309078,595.2575757575758,26.34261088572391,,,,,,,21.05771784681404,21.137819156861053,0.04425413797077349,0.03537580822892373,592.5,26.686799999999998,0.045041012658227846,39.0,1.2509717851362254,573.4,620.6,0.0,34.84848484848485,539.0,658.0,6.0,54.6875,,,0.04900978767822711,0.11689737243611038,0.00974398136431274,0.1756511414786502,0.41925482717768653,0.2790177579585162,0.6655087547513538,-2.146458887778879,14.946695265311359,34.219078476304254,0.43679420752553355,1606.8056961001164,2.2894076495772744,3.912933472591044,313.36568010054407,0.4318181818181818,0.4427480916030534,0.6896551724137931,0.0,50.49292756108016,50.50593242548439,50.479400562414135,49.61832061068702,0.48126151250667076,0.5187384874933292,10.36933348499685,10.765507598165255,0.46389467621456043,0.5361053237854396,23.306550700290703,25.054940156030067,0.46667736684621247,0.5333226331537876,18.037715798685515,19.282714799379285,1.080098958052783,2.185228461724578,1.2289308986306553,2.1727131889150724,-1.5735282809424405,-2.5798040827897633,-0.06810818327911321,0.01101368146154899,0.6330919641400018,0.612522936173538,1.0989116236426217,-0.22893934926752335,0.2765388851761646,1.0,2.2887233586274283,-0.04001921212904093,0.0016169232524699479,0.17627756027648261,0.7156157694538106,1.6847873496758874,6.015678589496175,1.2786479564367739,1.5133896360321923,1.2606571370355302,1.610235211634153,1.9042209473860683,1.8498370382826048,3.0960821673603687,0.9605991980943345,Relax
100.79438869775319,595.5187969924812,26.20912445318262,,,,,,,21.016768197193056,21.09652398099032,0.04401057462089401,0.035291527829739364,593.0,26.686799999999998,0.04500303541315345,39.0,1.2470577877279458,573.8,620.2,0.0,35.338345864661655,544.0,658.0,6.333333333333333,101.5625,,,0.034397402949819175,0.07341771058540877,0.010542882087181968,0.11835799562240992,0.468516420296214,0.29062170890047045,0.6203020776021646,-2.611590083837539,14.917495166422873,33.63212961235606,0.44354893188037536,1576.159436779622,2.2545426854273183,3.9045702564981717,303.3002872515234,0.44360902255639095,0.45454545454545453,0.7333333333333333,0.0,49.68152866242037,49.656010342933406,49.70525024222819,49.24242424242424,0.47100591715976325,0.5289940828402367,10.23800732042763,10.849948112585679,0.4746083965385232,0.5253916034614766,23.1697888857785,24.37787983502201,0.4740161575998299,0.52598384240017,17.911670928540904,18.867994054702454,1.0287680214826582,0.6435322962688579,1.0888792746102918,1.2459527380790134,-0.010481634330458789,-0.7262470954416091,-0.25591984368240817,4.7518163230962257e-05,0.019829419029088274,0.9589547658789882,1.7832860600073683,2.137156326396025,1.2455132963923408,4.243916291952833,2.921466543160511,-1.0,0.0004231231687720312,0.1701743719092541,0.7301300597876512,1.60171586634019,6.054090589666067,1.2671998296694338,1.7231258712556896,1.2244489891980006,1.6773708834296155,1.9377747891578108,1.8295655067747552,2.8493980533529,1.0078974907858844,Relax
101.02685929859739,594.1052631578947,27.937230280141907,,,,,,,20.65811162128755,20.73600629278269,0.047024041045596765,0.03477180375659669,593.0,29.651999999999997,0.05000337268128161,41.0,1.3523612802708187,569.8,620.2,0.0,33.83458646616541,532.0,658.0,7.0,109.375,,,0.038054087784013646,0.0566921033009362,0.014782512017142061,0.10952870310209191,0.6712414175570944,0.34743484316200984,0.5176004252336794,-2.870120349536046,14.662570664353561,36.59000513249009,0.40072611663379987,1685.4755668959046,2.495469994319939,3.933692571215581,365.23703960056645,0.45112781954887216,0.4621212121212121,0.7540983606557377,0.0,50.52128583840138,50.555946058410626,50.48777558160936,50.0,0.487875452673436,0.512124547326564,10.241921038793723,10.493363951703037,0.4645101628774748,0.5354898371225253,24.937911565805525,26.775530663867595,0.4677432681177452,0.5322567318822549,19.063005794323498,20.335187844652612,1.0719654438479198,0.6879433572956277,1.196853173885836,1.1190404274176702,0.7170985048780931,0.5036018936124846,-0.6131092344201928,7.519930271694103e-05,0.025846887404745243,0.6213497292392401,6.980278811845215,1.3900899118242265,3.2123408305073182,-10.926147526509304,-9.821896192370282,-0.2389429609042528,0.003491318272797198,2.3024669515981957,0.6843147816444919,1.5851452198650557,6.066193149624238,1.2351561390611696,1.337275702151292,1.0926702452909325,1.7395863448956266,1.9153283745612943,1.8028378914783614,2.6643886926234703,1.0078974907858844,Relax
100.6909619783552,595.8496240601504,28.713711285145454,,,,,,,21.04648534683512,21.12173499276961,0.04818952656122988,0.035321806873726415,595.0,31.1346,0.05232705882352941,42.0,1.3642995878864543,572.0,622.6,0.0,34.58646616541353,532.0,672.0,7.388888888888889,117.1875,,,0.04053222399255211,0.03770687040018106,0.011775581829344718,0.09001467622207787,1.0749294110698056,0.4502846168390792,0.4188969175110214,-3.2779129624000394,14.935322043812587,37.73660801592756,0.39577807410535704,1770.6279887064916,2.526668518109464,3.9550974348881556,381.3915978163256,0.45864661654135336,0.4696969696969697,0.7419354838709677,0.0,48.70466321243524,48.70808552178097,48.7024097156938,52.27272727272727,0.4794595519069609,0.5205404480930391,10.344080432788601,10.778123163672687,0.4409339107776854,0.5590660892223144,25.058184976645993,28.215934331933088,0.4461534263336135,0.5538465736663865,19.1691501418791,21.35774905222058,1.1221383024062077,1.8212959218871867,1.2335404497994231,2.0327862633498013,-2.1595852762472703,-3.1826966452721157,-0.06116641785360336,0.00419878153205249,0.3341820846729459,0.17843404051541523,2.312811109492318,0.4121625146645298,-0.49450226830324406,0.7534310818468852,5.163681364860597,-0.8920185177451845,0.0008244263211967998,0.26291412712509177,0.7219472829317652,1.7165360479904674,6.086906589490129,1.236713865311888,1.3660790667006277,1.1474898851332225,1.7231369080184706,1.8555150914508673,1.7870517615687591,2.8056029105255105,1.060944727143036,Relax
101.21239282465783,593.1203007518797,29.16905728574659,,,,,,,20.257621087413302,20.33049139610562,0.049178989909416194,0.03415432090544425,591.0,29.651999999999997,0.050172588832487305,40.0,1.439905364992252,569.8,619.0,0.0,31.57894736842105,532.0,672.0,7.823529411764706,117.1875,,,0.04514136982257948,0.0293421491629363,0.008929816990417797,0.08341333597593358,1.5384479702529783,0.541176890894325,0.35176808144206223,-3.5287302586794773,14.375828331041044,38.50796810334884,0.3733208745903904,1739.135235376605,2.6786608198569266,3.9473034640716085,412.5991416429631,0.45112781954887216,0.4621212121212121,0.7377049180327869,0.0,48.758465011286695,48.679238227065404,48.83428476162648,53.03030303030303,0.49445254665952854,0.5055474533404715,10.110836149082221,10.223644201719795,0.416044105550545,0.5839558944494551,24.838209742539384,29.426636644954044,0.4256386521688033,0.5743613478311967,18.962669522616878,22.027821555904147,1.1629162336156513,2.186640548362358,1.2688744845279945,2.1534012795941906,-2.573356050159573,-3.267781865449165,-0.09548596328342793,0.003764558161215467,0.3875457989890122,0.05500049884215372,0.7879135435363989,0.38222679288837913,0.12403301794658284,0.7583895937508307,0.5364007850084251,-0.8276930280737947,0.0002549433473501126,0.04067823461052949,0.703482974138701,1.5218398531161144,6.121906755144668,1.1841298786427834,1.3526099156576552,1.1286139457613222,1.6257229272761773,1.8194957107707916,1.7401670116392765,3.101681695968027,1.0078974907858844,Relax
101.52429019337114,591.0746268656717,29.12834623474189,,,,,,,19.915988967193,19.990596445059097,0.04928031911842095,0.033694542215088406,588.5,29.651999999999997,0.050385726423109595,39.5,1.4625608742163958,567.0,618.0,0.0,32.08955223880597,532.0,672.0,8.375,117.1875,,,0.04972184656261894,0.02733729297952769,0.006911385181719989,0.08397052472386662,1.8188284626372684,0.5921345225140255,0.3255582011595756,-3.599503465773258,14.135486306264976,38.79553418007228,0.364358594488069,1722.82975160252,2.7445489556930025,3.94321247296252,425.90497127787825,0.44776119402985076,0.4586466165413534,0.7213114754098361,0.0,49.49771689497717,49.47989503516089,49.51586324317383,51.8796992481203,0.5062364939151534,0.4937635060848467,10.057787575261813,9.93310961716756,0.4352560308472041,0.5647439691527959,25.59494111762716,29.154630189771822,0.44357532513220194,0.5564246748677981,19.44556635487756,21.779108431809384,1.2247590963105117,1.730188960960021,1.3086878453617836,2.0221799358720833,-1.6842995772209104,-2.4876963700575763,-0.08762186870363103,0.0029876848249453356,0.263621932158004,1.4563507244249527,1.5262178166139735,2.5997105164841505,2.2194596327319394,-1.7798756022348918,-2.7326961908484773,-0.7491458818085518,0.0021785360594779027,0.22591049768629054,0.6941519839790455,1.6094379124341003,6.14136230241124,1.1706834058395095,0.9581801225849567,1.0867305313630513,1.7011841742028049,1.8459462637291535,1.73050996619656,3.0011180148999688,0.949176159912238,Relax
101.87605023135637,589.0223880597015,28.69844941395912,,,,,,,19.871769373790368,19.94661935277419,0.04872217083037315,0.03373686599460159,586.0,28.1694,0.04807064846416382,37.75,1.444181888091485,564.0,614.2,0.0,32.08955223880597,532.0,672.0,7.444444444444445,109.375,,,0.05004461301228,0.024782274654205003,0.006895658497910203,0.0817225461643952,2.019371252662174,0.6123721709748122,0.3032489296693269,-3.6976266130389437,14.104389806093451,38.17627537912439,0.36945431857938754,1691.6002067904296,2.7066945755165728,3.9352678395271816,413.3260699284115,0.4552238805970149,0.4661654135338346,0.7580645161290323,0.0,49.677716390423576,49.68093499179817,49.67501478574274,52.63157894736842,0.5109482102056361,0.489051789794364,10.08204975551734,9.863653819283535,0.42467266806868037,0.5753273319313196,24.87830054589879,28.956832764835845,0.4350348643473755,0.5649651356526243,18.98127452681715,21.630878743561684,1.2285916971555395,0.9993223294644977,1.32052440246208,1.5105293538174465,-0.37587954056196793,-0.7600861441848066,-0.3098662005709573,0.00012578050606049272,0.04593023774777574,0.6897871069000509,1.046493824244486,0.7552233469380889,1.1063496560333226,-2.3984693094835983,-3.3974135750100394,-0.16447359653677018,0.0008649127906420203,0.06593271322729295,0.7056841326318182,1.5824092400461809,6.086064470066336,1.1670251724904521,1.4356065843160954,1.0749437874086356,1.7489335093683105,1.8325458041348515,1.7362724869568096,3.1535362809805405,0.949176159912238,Relax
102.1673892392588,587.4402985074627,28.468822464966873,,,,,,,19.43197117534396,19.5052615717284,0.04846249489062796,0.03307905709689255,584.0,28.1694,0.04823527397260274,37.75,1.4650506738652032,563.2,613.0,0.0,29.850746268656714,532.0,672.0,7.444444444444445,109.375,,,0.05348207593929688,0.02385545623068584,0.008291326567693233,0.08562885873767595,2.241922159111827,0.6245800391097031,0.2785913135169422,-3.7357423150372,13.792302726186529,37.916025260036264,0.36375919236248916,1642.89367455652,2.7490714214130194,3.9225795674640507,416.9354458237593,0.48507462686567165,0.48854961832061067,0.796875,0.021739130434782608,49.7389653535833,49.72684941953688,49.75112737203013,52.67175572519084,0.5181099540033054,0.4818900459966946,9.927769440342884,9.574468891038006,0.4328225553669009,0.5671774446330993,24.944669046359948,28.555007576382817,0.4427892305388743,0.5572107694611257,18.98416603242073,21.29623103078024,1.2199460688064867,1.2213035409798332,1.360104650933868,1.5577525195913942,-0.57826023234772,-0.8525712596215067,-0.33816646556272456,0.00012934704248356534,0.06895661438625453,1.0961908523437986,2.4830669326769863,1.3599553974808103,2.2236310910610766,-3.4853545728625654,-4.215295415259301,-0.15217381689782306,0.0011619197411830817,0.363220411275269,0.7323939404105064,1.5905099025485814,6.007779208904599,1.1627240390641571,1.3981515210233366,1.3317563376411623,1.8854625752967342,1.831532067421254,1.7248204866147379,2.6988090533153133,0.7909801332601983,Relax
102.31705650752134,586.6444444444444,31.312213693192618,,,,,,,33.97628672620792,34.1032218203122,0.05337511330708239,0.05791631890144916,581.0,26.686799999999998,0.04593253012048192,37.0,0.9215902239558056,561.6,613.0,3.7037037037037033,33.33333333333333,497.0,702.0,7.5,132.8125,,,0.05034827751111804,0.019996478767553328,0.008170000428674913,0.07851475670734628,2.517857173574686,0.6412587852597545,0.25468433713789174,-3.9121990825511466,24.114619409451787,36.9377758099558,0.6528443816845139,2798.3435141390155,1.5317586059632335,4.153871135749437,226.31902392816139,0.5037037037037037,0.5112781954887218,0.8235294117647058,0.043478260869565216,49.523110785033026,49.52306827847138,49.52429161837605,54.88721804511278,0.5389041166735622,0.4610958833264378,17.702852240348417,16.375068156891963,0.39284507720428796,0.6071549227957123,23.15162070333121,28.78196901873882,0.4364941998714109,0.5635058001285891,20.60811149322668,23.41521511473361,0.9685872826646724,1.6867759006908152,1.2424473658837552,1.1604636310062864,-0.4459092591776077,0.08663142235271604,-0.5486038096962925,0.00028848466825932053,0.1314004596424354,1.1998716935827336,1.5702972848559864,-0.3704255912732528,0.4147230511547404,1.0364610994223997,-2.774600681916969,0.0,0.0010455649795484895,0.17647298624839025,0.734890288762891,1.3862943611198904,6.060826593376229,1.1257435440195336,1.3696649398109557,1.5419686493705298,1.801015242129721,1.699927076898161,1.8204428004805244,2.493830126957418,0.8387337003912095,Relax
102.40389586146834,586.0298507462686,29.588389385766188,,,,,,,29.35740354420232,29.46692597793669,0.050489560127504454,0.050095406414566925,582.5,24.462899999999998,0.0419963948497854,34.5,1.0078680609889796,562.6,607.0,3.731343283582089,32.83582089552239,497.0,678.0,6.7,132.8125,,,0.04333942933622711,0.017589353442129602,0.00560670995428074,0.06653549273263745,2.4639580686588247,0.6513730875997248,0.26436045965436356,-4.040461478035597,20.83626317972107,36.27460314037315,0.5744036150882265,2374.5011090743824,1.7409361183188297,4.0825424867287525,252.60706713902906,0.5074626865671642,0.5151515151515151,0.8088235294117647,0.02127659574468085,49.227110582639696,49.27577542259925,49.18066525389407,52.27272727272727,0.45647186090537134,0.5435281390946287,14.078244553102836,15.36216821028894,0.4531974340280777,0.5468025659719223,24.42004111965727,26.82365420120491,0.45400983478031853,0.5459901652196815,19.93157517587009,21.857546029083753,0.9005385732845759,2.6899293141132827,1.166518673990169,1.5771042783343494,-2.261793309540286,-1.6867660123711743,-0.3473619354270923,0.0016967561547577886,0.35734070631138054,1.1228437454254774,0.7914433884659964,0.6826453969853752,1.0783670912183734,0.9866436316564631,-2.4854465576117697,0.0,0.0013064256232384376,0.08178507850477743,0.7459569039651095,1.621860432432657,5.995021701855743,1.1215886205356855,1.3300515945134566,1.5218882578074702,1.7392705023301276,1.7575469700825816,1.7685746190730915,2.520867255998303,0.8964441510282248,Relax
103.12178825872843,581.9632352941177,30.182999406272423,,,,,,,29.159840471036468,29.266777728458,0.05186409995644875,0.050105983853601016,579.0,26.686799999999998,0.046091191709844555,35.5,1.0350879469403211,557.0,603.0,3.6764705882352944,32.35294117647059,497.0,678.0,6.8,132.8125,,,0.04612094663878046,0.02053532566022862,0.007612627180632202,0.07426889947964128,2.245932078306617,0.6209994622503221,0.2764996627674252,-3.885608672910535,20.694736995272073,37.42543498851552,0.5529591573651054,2433.193462215571,1.80845182990563,4.093146750841812,270.7283855599803,0.5147058823529411,0.5223880597014925,0.8,0.02127659574468085,49.17711598746081,49.18960471604747,49.16718951866637,54.47761194029851,0.460536632110811,0.5394633678891889,14.044837581352343,15.200770797424086,0.4396318580351873,0.5603681419648128,24.81483745863343,28.015835271881596,0.4445274455105649,0.5554725544894352,20.162262035607068,22.538305823830523,0.8404284857352068,2.856133621579469,1.2040001964589195,1.4517499040851447,-1.8857582080727848,-0.974836879989776,-0.413256961875188,0.0013291597225732466,0.400971442605433,1.3903910980123986,2.8999609506691346,2.9916354109903898,1.5416549356558225,5.594082421215443,1.4764558471083546,-1.0,0.001095733806068428,0.268148974182069,0.7933558453784757,1.3732789930078204,5.971186830014127,1.10149928969551,1.2368320321788704,1.3490919472894147,1.8115328920886526,1.7705151370748018,1.7697713441661473,2.876938266396175,0.9901602498805621,Relax
103.54948044425872,579.5441176470588,28.61361179502558,,,,,,,28.674934208326473,28.778274005338957,0.04937262051972239,0.04947843198675938,578.0,24.462899999999998,0.04232335640138408,34.25,0.9978614628073641,557.0,598.0,3.6764705882352944,30.88235294117647,497.0,678.0,6.8,125.0,,,0.049063372221006867,0.022464001907995402,0.009940211771176018,0.08146758590017829,2.184088677607537,0.6022440910563363,0.27574159292654626,-3.795841166203047,20.349312700019723,34.730851730308295,0.5859145885058054,2220.31734757365,1.7067334038399553,4.053385162092707,237.10521916771953,0.5220588235294118,0.5263157894736842,0.8,0.021739130434782608,48.79711307137129,48.873712331577835,48.72138470171554,54.13533834586466,0.4525872941515622,0.5474127058484379,13.69156511228284,15.057724749339313,0.4407572983842083,0.5592427016157917,23.057657834937107,25.97261013220701,0.4437811410913233,0.5562188589086767,18.96199541262624,21.228654593573374,0.9476372067706491,2.446157911918563,1.221905349497285,1.5104870061777735,-1.7362112861814705,-1.1975340052757573,-0.38202656285008635,0.0011986570190984957,0.2915117499370415,0.7464159904531114,0.8287159151064261,0.5990575315004703,0.6101622361068424,-0.4338885873351641,0.21979140134365593,-0.4866001069800306,0.0007351249907911998,0.03529952015673784,0.8193806668814374,1.6041608553332565,5.9894973079234894,1.1205428067162402,1.5597213569244062,1.6363566707405086,1.9145662723088241,1.744251528204354,1.7505396063767906,2.3807790556225363,0.8338191577941575,Relax
103.93855134193157,577.4598540145986,28.78163594421954,,,,,,,29.484791692946903,29.593778419338374,0.04984179548435227,0.05105946584505164,577.0,26.686799999999998,0.04625095320623916,34.0,0.9761519173664176,555.0,596.8,4.37956204379562,32.11678832116788,497.0,678.0,6.523809523809524,117.1875,,,0.04297864382521049,0.017960048176292917,0.008888623767826186,0.06982731576932959,2.3930138384562833,0.6154990114067667,0.25720662434773917,-4.019605533690027,20.92596140124627,34.88785644365551,0.5998064522835348,2293.5572189254017,1.6672044726976187,4.067479689203538,232.66076122277957,0.48905109489051096,0.49629629629629635,0.7611940298507462,0.021739130434782608,49.92307692307692,49.9458332209205,49.90011004227465,54.81481481481482,0.48325326476757563,0.5167467352324242,14.546986451317498,15.042655399944568,0.42910679243480754,0.5708932075651925,22.853724158938434,26.36038351959753,0.44343289332919533,0.5565671066708046,19.15603720433406,21.46102631261784,0.8860598553851214,2.422596134046737,1.1755347632533617,1.314651499457228,-1.2670918060192253,-0.39678528155243953,-0.4425753495397997,0.0012030453386365626,0.282518059591535,1.268166995189759,0.9307681769501439,0.6418778781058707,1.1072619665809427,1.0061881620130073,-2.845092568431956,0.0,0.001315655055540788,0.09921948436161525,0.7840310054110011,1.5353299402803786,5.938666480502287,1.155134967049183,1.5290602547493002,1.6660190542920954,2.105804734987478,1.7387020448370072,1.7481859809922533,2.7649264396982387,0.9843986100456205,Relax
103.62563119236803,579.1970802919708,33.154903686656176,,,,,,,32.3769162503527,32.486467770985726,0.057242870889374874,0.05589965376557429,576.0,26.686799999999998,0.04633125,34.0,1.0240290777011538,555.0,597.0,6.569343065693431,35.03649635036496,497.0,696.0,6.523809523809524,117.1875,,,0.04102503558274957,0.014480768801484984,0.0036191586397733453,0.059124963024007895,2.8330702703120645,0.693869957535385,0.24491801873271393,-4.2349337994087985,22.97140165766223,39.81140589348342,0.5770055375367272,2873.061236958839,1.7330856204068033,4.165314992685338,275.9863003286991,0.48905109489051096,0.49629629629629635,0.7611940298507462,0.022727272727272728,51.91504178272981,51.78525306471015,52.05537501204408,52.59259259259259,0.47893577621278877,0.5210642237872113,15.902364138240111,16.587031971682865,0.5825233732578536,0.4174766267421463,30.38534643939974,25.723117248369096,0.5566375486365032,0.4433624513634967,24.250303744773255,21.642647603781906,0.9329779218805103,2.409154601607073,1.220386117864671,1.5988401683935087,-1.747397699563555,-1.4716393091135114,-0.34291001902643253,0.0012430464034878872,0.3069426753843171,1.5030731219683344,1.9639996380162268,0.3941468423093166,1.37614666131743,3.7063249399743317,-0.7650892141389889,0.0,0.0012879276238147942,0.12244012011342938,0.7794315051969578,1.3247364681204574,6.011659181232214,1.0712020861111062,1.4442095212011794,1.5212016657497953,1.9965178494094304,1.7233135926651622,1.7467935055853936,2.976696711917347,0.9325881568853247,Relax
103.41758134669168,580.4117647058823,34.1069061298681,,,,,,,32.75475651068214,32.87653335663643,0.05876329220713061,0.05643365366186241,576.5,27.428099999999997,0.04757692974848222,36.25,1.041281015743316,555.0,598.0,6.61764705882353,36.76470588235294,497.0,686.0,6.8,117.1875,,,0.04848519401934344,0.023997314260522977,0.006506276744324763,0.07898878502419117,2.0204425167321536,0.6138237726342332,0.30380660055947867,-3.7298133607076567,23.247219678383345,42.40847915780065,0.5481738590974026,3097.23095008834,1.8242387582044741,4.197943700403931,309.4527654246663,0.5,0.5074626865671642,0.7794117647058824,0.022222222222222223,50.27434842249656,50.31229212816304,50.23535925922291,53.73134328358209,0.47070520167359403,0.5292947983264061,15.949547319641788,16.913078927444587,0.44004188539994493,0.5599581146000551,28.131941560914928,31.73441300057209,0.44712707686871045,0.5528729231312898,22.86694334282815,25.42759531785152,1.0696101460626133,1.2380936449760758,1.296146892236878,1.2296086215184967,0.0946662337694626,0.2044907986585316,-0.5537425185795756,0.00017012553681154154,0.07748512508266824,1.1543741322435601,1.9975669977885655,2.0569050371516635,1.0581215382573808,3.670842517533356,1.3292012991092372,-1.0,0.0002987670211339753,0.16043313463076553,0.7919449254116615,1.3732789930078204,6.007807785832848,1.0736332387094163,1.4542474357775916,1.4046604164420868,2.036632123852551,1.7689374604370645,1.718953411856911,2.7329854886273433,1.042273947242697,Relax
103.5514400356035,579.6691176470588,34.35674609416103,,,,,,,32.6632651290236,32.781675570027716,0.059269581642746254,0.05634812022004452,575.5,27.428099999999997,0.04765960034752389,36.5,1.0518466527595447,552.0,598.0,6.61764705882353,37.5,497.0,686.0,6.8,117.1875,,,0.055549970345635316,0.03268721353444112,0.008438423281732128,0.09667560716180856,1.6994403725207314,0.5746017219489487,0.338112316995658,-3.420771300960105,23.180145094223974,42.73803176050281,0.5423774595920059,3112.2934607126745,1.8437344368112805,4.200050650194409,315.190323673493,0.5073529411764706,0.5112781954887218,0.7647058823529411,0.023809523809523808,48.92584892584894,48.937327626980284,48.91665446895232,55.639097744360896,0.4631951676734013,0.5368048323265985,15.777605516075484,16.985068069143345,0.43728573145813215,0.5627142685418678,28.261627687258176,32.05962818294293,0.4431760005631718,0.5568239994368281,22.887250111733536,25.654554142900064,1.0343140111141955,2.337134793810713,1.2947245701308687,1.5164114162613163,-1.4466489783496126,-0.7198756300624227,-0.4051458877264902,0.0009410060836566183,0.2570625057102024,1.3594437175975633,1.3073758516878025,0.41784526636694963,1.0715331922108509,1.9996176355567536,-1.6582799410844382,0.0,0.00037531504989283523,0.05756767207542378,0.7788036717769464,1.3662536102364444,6.013645929358373,1.0475138661448091,1.3200494563959964,1.413808718405996,1.946089581875614,1.70951231372052,1.6943689605850014,2.9004043846776737,0.8859328551562924,Relax
104.11635117812271,576.5693430656934,34.035188456092534,,,,,,,32.34237795470064,32.45912126624666,0.05903052055304061,0.05609451550568411,573.0,25.2042,0.04398638743455498,32.0,1.052340322772892,552.0,593.6,6.569343065693431,35.03649635036496,497.0,686.0,6.523809523809524,101.5625,,,0.04872334711675636,0.03417169587484618,0.014340836207512017,0.09723587919911456,1.4258393055821872,0.5010840393285614,0.3514309343043134,-3.3763575835671404,22.952064758719487,42.30832852180961,0.5424951909146655,3050.6859454093897,1.8433343129069326,4.191367611214174,311.95357474396275,0.5036496350364964,0.5037593984962406,0.7313432835820896,0.024390243902439025,48.9795918367347,48.953023625275144,49.00578140256605,55.639097744360896,0.46406579502319695,0.5359342049768031,15.636851061230683,16.804100028795883,0.4328627334178051,0.567137266582195,27.83562433879495,31.86177458929201,0.4399587078575621,0.5600412921424379,22.575795594415105,25.47106650453247,0.9310597889164999,2.4128860860697894,1.2562285807239997,1.4541187146533974,-1.4485531761014006,-0.7632505797432256,-0.4179861266257582,0.0006465708900979515,0.27833109045716853,0.8416553996693323,0.8313091250114861,0.988986928556463,1.2539203121226905,-0.45427549996298033,-1.4474961998582105,-0.1813058156163425,0.00027502635946280305,0.04935964538616018,0.8626142387471378,1.3969516555938786,5.953738973686743,1.0296976566586402,1.0936805329555637,1.2561675195897695,1.679872619661162,1.7183276684173905,1.7181647196113814,3.178973111432129,1.0362090632059162,Relax
104.09987353878347,576.5474452554745,34.86654616131927,,,,,,,32.63028185777204,32.745044029543344,0.060474721461768896,0.05659600458954979,573.0,25.2042,0.04398638743455498,34.0,1.0685334044399186,552.0,594.8,6.569343065693431,35.76642335766424,497.0,686.0,6.2272727272727275,93.75,,,0.04069700318369391,0.01514320037040476,0.005660035481997117,0.061500239036095784,2.6874770318188776,0.6617373171477916,0.24622994329366585,-4.190203668212127,23.154242683542165,43.43355805298033,0.5330956919370635,3159.409077190124,1.8758358304611071,4.206575971531462,325.8968977607723,0.49635036496350365,0.4962406015037594,0.7121212121212122,0.025,51.45127850725639,51.49119564023744,51.4072354457118,53.383458646616546,0.4788610811856027,0.5211389188143973,16.025558290384723,16.71803195931245,0.4539466268559707,0.5460533731440295,29.26360355676728,32.09541200878981,0.4594617254981163,0.5405382745018837,23.592128047784932,25.589138951971023,1.0632686132130447,1.4074801134517432,1.3087383121286469,1.2790189203077766,-0.11841911883942302,0.06435964320057641,-0.5211153191699353,0.0001879807785355243,0.09807494361933947,1.3820454237241606,0.8320918993463984,0.6185510009184587,1.034596950591658,1.137194953081393,-0.21848534740970482,0.0,0.001886610212256368,0.10361598163152365,0.847637580373994,1.4754221410158979,6.032241802169691,1.0484187511298613,1.302982473761315,1.330700774330646,1.7959413217762024,1.7266724536503442,1.717487498593879,2.5508801518707385,1.0362090632059162,Relax
103.84251502895283,578.051094890511,34.577560125514594,,,,,,,33.00367626581656,33.12566602281889,0.05981748054999178,0.05709473878268115,575.0,26.686799999999998,0.04641182608695652,34.0,1.0476881377402245,553.2,596.8,6.569343065693431,37.95620437956204,497.0,686.0,6.2272727272727275,101.5625,,,0.028118930852523257,0.01141550006166347,0.005513596173908686,0.04504802708809542,2.463223748467639,0.6241989421098108,0.2534073254604346,-4.472783192543034,23.423383076056044,43.12621915803775,0.5431355572863952,3173.5173672155515,1.8411609893415621,4.208510989314221,317.60924932629524,0.5036496350364964,0.5037593984962406,0.7313432835820896,0.025,50.0835840855901,50.11021725023009,50.05584269498635,52.63157894736842,0.4694978297116858,0.5305021702883143,16.04969135505704,17.060567486545192,0.4502090379962679,0.5497909620037323,28.936665912836734,31.977181625590067,0.4546029707440094,0.5453970292559905,23.397897627177105,25.62813988254842,1.0020562398976387,1.4137531660900158,1.24784494091167,1.1342472879837466,-0.00035341253067855405,0.4555301227070738,-0.580351829196675,0.0001594016913699021,0.09509122030504331,1.0351287402248417,0.6258642765537829,1.2847770664424445,1.3059290395918202,-0.16263175396341456,-1.0783680761435888,-0.4662035780890938,0.00039388131239390497,0.024108524511032247,0.8489988843890224,1.5602476682433286,6.1134054188030005,1.0762183241067762,1.3948545362168745,1.3359956225043264,1.6805783637456293,1.7413968301016018,1.7366602360262082,2.969764081515904,1.0362090632059162,Relax
103.99442437979086,577.0948905109489,33.267384489316,,,,,,,32.54137637640099,32.658872619616155,0.05764629879128143,0.056388259385886215,575.0,26.686799999999998,0.04641182608695652,34.0,1.0223103074841515,553.2,595.8,6.569343065693431,36.496350364963504,497.0,686.0,6.85,101.5625,,,0.029427737930687953,0.015426838676914363,0.00692140360172951,0.05177598020933183,1.9075676194582476,0.5683666018820065,0.29795358030003866,-4.171646515198017,23.093310295238247,40.949002504337244,0.563952938604359,2970.8408760107914,1.7731976048830371,4.1798495007351075,290.44269265216116,0.5182481751824818,0.518796992481203,0.7681159420289855,0.025,50.99383139136394,50.99863141000508,50.9854480284326,51.8796992481203,0.46957282524164,0.5304271747583602,15.826138716271467,16.82040207384847,0.4573468902389404,0.5426531097610595,27.692756835640033,30.165079561345927,0.4602973850517108,0.5397026149482895,22.553884896227462,24.421895410351095,0.9954337149709981,0.9869539148998823,1.202914583365385,0.8177750864530455,0.8976199455581346,1.584656036638361,-0.8902304769229356,0.00044635720611208273,0.0705647169874747,1.236142152292031,0.8462776041083742,1.9590167487088124,1.6592809543462181,-0.1845809012318238,-1.2598117051012412,-0.8541814091587494,0.0022072259473799004,0.13678616127504006,0.8779773976423808,1.6341305250244718,6.100738721770086,1.093226378116048,1.310173047785819,1.3245832340943875,1.8188418183334676,1.724600109447179,1.7292982346236465,2.911045314529319,1.0362090632059162,Relax
103.60065619762428,579.3235294117648,33.662570125452106,,,,,,,32.701115622604725,32.822786648654386,0.05810668549857194,0.05644706966383513,576.0,26.686799999999998,0.04633125,36.25,1.0294012752941912,555.0,598.0,6.61764705882353,36.029411764705884,497.0,686.0,6.476190476190476,117.1875,,,0.0424538820883647,0.016755958040751515,0.006889740202076325,0.06609958033119254,2.5336588922647256,0.6422715829003626,0.2534956796517563,-4.089001380033242,23.20921501670279,41.75928677625986,0.5557857139911024,3044.832434688368,1.7992545954788774,4.19053350719584,300.5423545444235,0.5294117647058824,0.5303030303030303,0.7714285714285715,0.024390243902439025,50.20547945205479,50.23316724660019,50.176171896493926,51.515151515151516,0.46319026904214344,0.5368097309578566,15.795805224380526,17.004828111582828,0.4592096879573305,0.5407903120426695,28.29818578197684,30.70913078402963,0.46014910397505937,0.5398508960249405,22.916094576059894,24.821511765151552,1.0290693214636872,1.2128855686834537,1.252365450099636,1.0275361463815786,0.26753217068850965,0.7333517977693185,-0.6853672840399131,0.00035923345926527716,0.07735851158739154,1.2919845103168448,2.108016068554604,-0.7506089260879215,0.3033991081893804,1.3751330384990448,-3.287370727017966,0.0,0.0036726125218557396,0.37051293258494783,0.8511870116565463,1.583574401844181,6.1175113486162624,1.0830201350298287,1.531764831119666,1.1696033286232845,1.8643920952346325,1.6951124613650734,1.717738017637902,3.033032843935898,0.9901602498805621,Relax
103.56083596138744,579.625,33.911636263590616,,,,,,,32.75068560209706,32.87263223790812,0.05850616564777333,0.05650323157575511,576.0,28.1694,0.04890520833333333,37.5,1.0354481330741736,554.0,602.0,6.61764705882353,37.5,497.0,686.0,6.181818181818182,101.5625,,,0.043798677394083524,0.011628196879646547,0.004949564119200133,0.0603764383929302,3.766592348530552,0.7254266492011583,0.19259494579607656,-4.4543223649146935,23.244461170876345,42.1346541084418,0.551670867192885,3076.8674611836636,1.8126750195970782,4.1950788989891326,305.5057398469434,0.5294117647058824,0.5303030303030303,0.7571428571428571,0.024390243902439025,49.89768076398362,49.92028033302299,49.8744819910731,52.27272727272727,0.46201709921133677,0.5379829007886633,15.799702434379116,17.049204472183693,0.45931016328332874,0.5406898367166711,28.555676986618927,30.98229153361504,0.45994177129281066,0.5400582287071893,23.076582125382465,25.005776950619257,0.9494511001548702,1.456766347378407,1.261947886591149,0.9957520220412377,0.4003493717500479,1.0530590641638424,-0.6827306520561495,0.00048416343358721287,0.12718195209428007,1.2894460905179936,2.8243253480423958,1.924985753755938,2.7016087645391917,-4.220513690136663,-5.2373824372743885,-0.2250235312579875,0.004877430357685379,0.6314572899930724,0.852155093637089,1.7001922757025645,6.158758705045942,1.0851551426154646,1.5104089270735468,1.1662913379133901,1.4978108675195207,1.70600096452774,1.7115034417856512,2.9742952675478382,1.042273947242697,Relax
103.37894080194823,580.5985401459855,34.205576569345986,,,,,,,32.7048970968821,32.825735659214516,0.05891433443967212,0.05632962337221653,577.0,29.651999999999997,0.051389948006932404,40.0,1.0458854668772817,554.2,602.8,6.569343065693431,37.22627737226277,497.0,686.0,6.85,125.0,,,0.03206328096019612,0.009720644131103882,0.003552377630402782,0.045336302721702776,3.2984728715251292,0.7072319319247712,0.21441192923856464,-4.633503394073371,23.211300282067647,42.627156632489644,0.5445190839770067,3108.391462890836,1.8364829248890508,4.199505817474061,313.13618116855315,0.5109489051094891,0.5112781954887218,0.7205882352941176,0.024390243902439025,50.1528013582343,50.183020034366244,50.12136979081533,51.8796992481203,0.4645520977266322,0.5354479022733678,15.820404077809934,16.98474260863206,0.463411205446629,0.5365887945533709,29.018143916426613,31.225339168956342,0.46367212063224006,0.5363278793677603,23.370257396310723,25.13467015596028,1.0131214122333143,1.2910892691182285,1.3092756418043905,0.9371956805577075,0.8502466043210362,1.6476718421114889,-0.7881907317693078,0.0005320030861249583,0.1150686217446607,1.0781919645677167,1.7814665996199956,-0.4868813405438517,0.40385195926614614,1.056768079222418,-5.117604360756174,0.0,0.003456062288856681,0.23913906271910126,0.8264036910101273,1.6773491180503108,6.17803865217726,1.0828733885199455,1.1533003804380138,1.2828996802964556,1.2942246427601611,1.7227488976865957,1.706851046531274,2.883158463683439,0.9325881568853247,Relax
103.60686344661609,579.1459854014598,33.67830951159231,,,,,,,26.13229914920479,26.22857046231708,0.058151675675083454,0.04512212776730218,576.0,31.1346,0.054053125,42.0,1.2887618237990799,550.4,602.0,4.37956204379562,35.03649635036496,522.0,686.0,8.058823529411764,101.5625,,,0.033191202798747856,0.014776560423470083,0.003593190137819265,0.0515609533600372,2.2462062785619046,0.6437274843810977,0.2865843135267315,-4.214713108848971,18.546400034733587,43.72986371339563,0.4241129164336345,2547.930746407071,2.357862638112982,4.113157729519138,412.4360472783527,0.48905109489051096,0.49253731343283585,0.696969696969697,0.023809523809523808,49.65250965250965,49.62352793774175,49.67767199595276,51.49253731343284,0.48226629627236894,0.5177337037276311,12.879786057574439,13.344994900294601,0.4498243673499988,0.550175632650001,29.329159188215478,32.43611261702721,0.45477025560832435,0.5452297443916759,22.650479769494655,24.801111775416047,1.2210155602223667,0.5720962088178396,1.312790353867352,1.0692425074088279,1.0123875067085661,1.1564905611191776,-0.9257113448833776,0.00020167586985990514,0.025095892354342213,1.5996341475232883,4.654705044203057,2.0955282852173065,3.9269866696248164,-7.836549337205252,-8.853740061353491,-0.10653610335881582,0.014450549884084287,1.7684973719627433,0.8382450230036915,1.644706051271558,6.194283633850125,1.0815468265925547,1.272011645276458,1.254244487715105,1.5043988203694458,1.7345620924075738,1.6627687498898522,2.4538715819071073,0.9843986100456205,Relax
103.77925121423021,578.1532846715329,33.02358571379413,,,,,,,23.684507222083834,23.771992454826567,0.05711908344956626,0.040965792031329114,576.0,31.1346,0.054053125,41.0,1.3943117078240235,550.0,602.8,2.9197080291970803,34.306569343065696,522.0,686.0,8.058823529411764,101.5625,,,0.03591350804326745,0.014098419442501734,0.0033920248101310703,0.05340395229590025,2.547342855682174,0.6724878309432629,0.26399580623518853,-4.261692584157744,16.809337067123305,43.602566083467835,0.38551256444277626,2302.568227068319,2.593949178920822,4.069182617538731,452.4113619642091,0.4744525547445255,0.47761194029850745,0.6875,0.0,50.1648804616653,50.16249150583892,50.16530793167505,51.49253731343284,0.49273823567964353,0.5072617643203566,11.799403625858636,11.972035316922083,0.4563866961699489,0.5436133038300509,29.45632324603117,32.148231520388556,0.4610902472420327,0.5389097527579674,22.437701587959076,24.257353725397724,1.2442139823794687,1.1091100355890529,1.3939761474886279,1.371165762002879,0.09613591180307424,0.22348782564316405,-0.5205663863402283,5.779296973905688e-05,0.05305592530376854,1.1478612456415298,0.5975889161738448,0.7486975221554264,1.0474919802423488,1.0074451825081367,-1.7493269845313546,0.0,0.000628522565092441,0.0411533027262721,0.838292029878275,1.6447060512715583,6.187127064570226,1.064513417444868,1.1612308474512258,1.2157448195208271,1.5907088036647146,1.751467689047677,1.626728708742441,3.2206209919861832,0.9325881568853247,Relax
103.66027747033296,579.2116788321168,33.79010267922492,,,,,,,25.084855989221865,25.161487152587927,0.058338089362004915,0.043308615668456944,576.0,31.1346,0.054053125,42.0,1.3470319579966261,550.0,606.4000000000001,3.64963503649635,34.306569343065696,522.0,686.0,8.058823529411764,109.375,,,0.05078328892563526,0.013671238424169523,0.003673457711390818,0.06812798506119559,3.7146078028933327,0.7454101112783454,0.20066993632483637,-4.2924610380432195,17.79185819033312,43.82494390254256,0.405975606720649,2449.585202839507,2.4632021812288296,4.096062659889883,431.79878965189573,0.48175182481751827,0.4850746268656717,0.7076923076923077,0.0,52.455716586151354,52.39984444014769,52.51226707725913,51.49253731343284,0.5537988735422655,0.44620112645773446,13.248759550600562,11.892263280213987,0.45511275093879605,0.544887249061204,29.565203356638957,32.35003027110773,0.46909173589188363,0.5309082641081163,22.908850682094958,24.371606271104824,1.2797213956932187,0.9776885817981817,1.4616729681060139,1.4979054942654502,0.29911257896221244,0.006281687927806701,-0.46294062666376157,0.00024087632849518017,0.05748938198425267,1.3152560142894314,0.472380135478909,1.4866788540950417,1.3346289063368024,1.0049721694339686,0.4324326280854538,-0.8218804863673781,0.0005899026526289943,0.0292748865160163,0.826848713193967,1.7972996496036702,6.21081401710918,1.0695788438323826,1.2103418716075922,1.1793889054042073,1.5171629892324334,1.7812369104734767,1.6304544904526639,2.3712434515005656,0.9325881568853247,Relax
102.6756084530609,584.5441176470588,34.82567542554366,,,,,,,24.108397184690954,24.196866245389945,0.059577497017207194,0.041243075512817556,580.5,33.3585,0.057465116279069764,48.0,1.4445454485733407,555.0,612.0,2.941176470588235,35.294117647058826,522.0,686.0,8.0,109.375,,,0.040954089203289724,0.010120715711493256,0.003135396460616835,0.054210201375399815,4.046560576420655,0.7554683097317249,0.18669393314753413,-4.593170895143963,17.109768205579105,46.29336715996348,0.36959437723459393,2488.357465295332,2.7056688672654414,4.102882879089019,501.01808914240627,0.47794117647058826,0.48120300751879697,0.703125,0.0,50.695012264922326,50.68809864725091,50.698414430518376,50.37593984962406,0.494239396411093,0.505760603588907,12.029193345246115,12.16859181933849,0.4688835537469429,0.5311164462530574,31.69941667000253,33.73755808870511,0.4719311877304369,0.5280688122695629,23.97451260980865,25.360377093553076,1.3050080325176425,1.2581048621556379,1.496164310015783,1.4947263778506366,0.17773658181529228,0.35302525794380646,-0.5011429350671793,0.0002603913005739121,0.08276817750331032,1.242829533460785,1.5753071532037435,-0.3273140576522615,0.4603395189496102,1.0103271241813938,-4.002568501827234,0.0,0.0008607895207461574,0.15382012785185215,0.7898566810760532,1.8044984950054848,6.239784808050753,1.053867227671552,1.1725584610002944,1.2310277885978447,1.58145778141097,1.8276651499157754,1.628399749870193,2.8227013714137597,0.8859328551562924,Relax
103.00145859285792,582.5588235294117,35.43335208651795,,,,,,,24.00462918318511,24.091389019224728,0.06082364673810321,0.04120550271259119,578.5,34.8411,0.06022662057044079,47.25,1.4761049552616499,553.0,611.0,2.941176470588235,33.82352941176471,522.0,686.0,8.5,109.375,,,0.03736971998641843,0.011301902525859173,0.002886806135777185,0.05155842864805479,3.3064981670931175,0.7248033147307394,0.21920572100844224,-4.482784202315377,17.035184543696932,47.23172882554311,0.360672475204512,2527.7292719598527,2.772598600525228,4.1097006677089745,523.8185009683516,0.4632352941176471,0.4661654135338346,0.7096774193548387,0.0,49.00332225913621,48.998783225417526,49.00903816350201,52.63157894736842,0.4837896901915414,0.5162103098084586,11.850121228676455,12.240744294997848,0.4712263654386634,0.5287736345613364,32.422659331306505,34.345412644714045,0.47267281714696974,0.5273271828530302,24.409569959836297,25.78219531606265,1.3484480519222608,0.8570697283444975,1.7642491452099662,1.3840664255466044,0.8360392232207379,0.8857491019308399,-0.9435843515296205,0.0003025312870413227,0.04999844833254984,1.1792813520943564,0.6309241296388879,1.4729003203774056,1.2930449647477082,0.9830427543770335,0.3577879006258837,-0.7850665352308499,0.0013305517597388692,0.061277566861005175,0.8292771377012884,1.4737062988999754,6.23783876020891,1.0187421126690204,1.3099821212380576,1.2507020606744685,1.6536298675140324,1.8369209924513779,1.58274722518952,3.0955310717664033,0.9901602498805621,Relax
102.83755402131784,583.4296296296296,35.75174366705681,,,,,,,24.2869967051347,24.34901857201368,0.061278587598906455,0.041627979574079,579.0,34.099799999999995,0.058894300518134705,45.0,1.4720528890876925,554.8,610.2,1.4814814814814816,31.11111111111111,522.0,721.0,7.5,101.5625,,,0.03860461358111873,0.015123008040460097,0.0043436679591238375,0.05807128958070267,2.552707336915774,0.6647796847609048,0.26042142596891005,-4.191537983542704,17.21735614750806,46.177045388558234,0.3728553007805515,2497.7126718439263,2.6820055874398365,4.1045125871504995,495.3883749743045,0.45925925925925926,0.4621212121212121,0.6885245901639344,0.0,46.547980894485455,46.83314799629352,46.23191893437748,51.515151515151516,0.34708568970534287,0.6529143102946573,10.155557018000769,13.928793134923382,0.47080134699410386,0.529198653005896,31.684363692876186,33.591972526103866,0.4556697555669776,0.5443302444330224,23.526944563290783,25.71411962706487,1.3708608714242168,1.181378509320015,1.500174993666815,1.4406350938383512,0.16157758022123403,0.6691907832132484,-0.5503986650838384,0.00010829365324965043,0.05625173601788946,1.40508702350846,1.9680016036095003,-0.359698962438185,0.6243018393665651,1.5871495949543304,-3.775399156811698,0.0,0.0009850062877997025,0.19558466238563152,0.8694807832795202,1.5192128208413747,6.184936871170031,0.9987215172261544,1.12389368260456,1.2780740710491167,1.79704493845371,1.8293762099970423,1.6007387457856581,1.9997902765638293,0.9435754129401108,Relax
103.75882299438281,578.2794117647059,29.5609079138049,,,,,,,18.164678790321496,18.225726718785747,0.05111872792357484,0.03141159519217409,575.5,28.1694,0.04894769765421372,37.5,1.6273840157061046,555.0,602.0,0.0,27.205882352941174,522.0,666.0,6.8,101.5625,,,0.05850008068804571,0.017656937811321778,0.004868578510049496,0.08102559700941699,3.3131498402024704,0.7219950589348535,0.21791802174897454,-4.036626495708695,12.887534954906245,39.536632047151414,0.325964410411503,1600.7348487213815,3.0678195780256594,3.9112895097924714,485.1650153737913,0.4632352941176471,0.4661654135338346,0.7258064516129032,0.0,48.36309523809524,48.436349096855686,48.288484268438694,50.37593984962406,0.46751526580459785,0.5324847341954022,8.815056657821152,9.407642177681057,0.5031381440098461,0.4968618559901539,28.044215300002374,27.86875063290339,0.4997144143483529,0.5002855856516468,20.786813556597416,20.798689780635662,1.375744902418571,0.6074697678679168,1.4440889155893641,1.6554016024426712,-0.005410716404727012,-0.9499301630624615,-0.15214287520024677,0.00010539358035998389,0.024345901035750715,1.040566524511244,2.448945185433517,-0.9223098340747683,0.3021627586419903,2.6374962388004466,-2.0867323116225966,0.0,0.003805553858111431,0.3592493632433164,0.7456014333732055,1.6550484236861527,6.0992008707069,1.0900929512655262,1.356021631672331,1.1640307335797773,1.5839163449640354,1.8605475294365004,1.5939394183090194,2.3445594191244177,0.8338191577941575,Relax
104.47347030381175,574.2898550724638,31.13901087894393,,,,,,,17.76899620905391,17.83333701172634,0.05422176729034299,0.030940815081631247,572.0,28.9107,0.050543181818181813,38.75,1.7524350004125469,547.8,599.8000000000001,0.0,25.36231884057971,518.0,666.0,7.666666666666667,39.0625,,,0.06435354425110229,0.011504373695720353,0.0026092693748363495,0.078467187321659,5.593832915479956,0.8201331849362596,0.14661381512963756,-4.465027994549785,12.610073532176735,42.175793443605556,0.298988412607768,1670.8241863863493,3.3446112218130124,3.9299008633265418,564.2465281614033,0.463768115942029,0.47058823529411764,0.734375,0.022727272727272728,49.40179461615154,49.36314203564191,49.439193274097626,50.73529411764706,0.48633715553911594,0.5136628444608842,8.794425038892872,9.03811374126261,0.5038370295626349,0.49616297043736507,29.937001771956062,29.70813823691381,0.5024008875731294,0.4975991124268704,22.063159189685486,21.957469998881706,1.41726729628964,0.3726318557106225,1.4291879110778165,1.5993155103513548,0.3683272388164234,-0.6231373335963837,-0.043443222402178315,5.448793302043059e-05,0.009953639025756923,1.6436789618498706,5.215618082450176,1.7814606307545562,3.3763463800915625,-9.39122622765688,-7.814802540434254,-0.19420963649474768,0.006526738862972618,1.2501215917123114,0.8412010278324353,1.4480717208161338,6.189727445767507,1.0524818864662153,1.3968703383639152,1.243985034094324,1.6635500883657248,1.8572713132157554,1.5859370396211736,2.4397849893788903,0.9271988421884568,Relax
103.83990230771263,577.956204379562,32.296846643819464,,,,,,,18.244459271725404,18.306003098856333,0.05588113147516124,0.03156720030596591,576.0,31.1346,0.054053125,45.0,1.7702276709220939,550.0,606.8,0.0,26.277372262773724,518.0,666.0,7.611111111111111,109.375,,,0.06739789003259175,0.015610185456108006,0.003228749393152584,0.08623682488185234,4.317558572388394,0.7815441967503948,0.18101530845430058,-4.1598316639290855,12.944298927623267,43.79969726370442,0.2955339816549336,1781.1459804721073,3.383705638181409,3.9576696251102677,592.8211303273418,0.45255474452554745,0.4592592592592593,0.7096774193548387,0.022727272727272728,51.54639175257733,51.53503593306572,51.55483082050802,49.629629629629626,0.5237579800746647,0.47624201992533527,9.370955917878112,8.935779101351384,0.49786428915952696,0.502135710840473,30.904846929397582,31.037137700868318,0.49994542715171697,0.5000545728482828,22.835546616452056,22.838039154126275,1.4679037130553667,0.2244113044747067,1.5087392152156447,1.4945560578215256,0.9836645665286632,0.20369308469221625,-0.563201617348638,0.00011209558754716168,0.0062872041603753885,1.3116836936641123,4.402509939047299,1.7973881106646958,3.5129386631877617,-4.161769547989417,-5.141386977189348,-0.11032443395362096,0.034683443033352676,2.2121550344888328,0.7923428117659874,1.4772661393256175,6.20723573246923,1.044125767214666,1.248672755224153,1.2698059476468966,1.8468719515136234,1.8757510972678966,1.5441209458691982,2.4417740534260086,0.828967250564733,Relax
103.2601047155494,581.2058823529412,31.91797766893989,,,,,,,18.7342032221915,18.793848304890663,0.05491681801244655,0.03223333381683675,580.0,33.3585,0.05751465517241379,46.5,1.7037275239510385,555.0,610.0,0.0,28.676470588235293,518.0,666.0,8.0,117.1875,,,0.054694426489262794,0.01461097247985308,0.0027394646333480477,0.07204486360246393,3.74338029619044,0.7591717681785194,0.2028038051466779,-4.225982492816441,13.289257580979488,42.96537680739243,0.3093015485597463,1793.780162792682,3.2330908288576987,3.9607393268547906,555.643862857583,0.45588235294117646,0.4666666666666667,0.7301587301587301,0.022222222222222223,51.988500239578336,52.05987396576904,51.91808986616605,48.888888888888886,0.5333572529072835,0.4666427470927166,9.710549733120313,9.082951062292475,0.5175586123202484,0.4824413876797519,30.909956565818792,29.842891771750462,0.5189394170196464,0.4810605829803537,22.90982530509789,22.057857888974752,1.439883465509516,0.16259444023097824,1.463206956925003,1.447787727700335,0.7681444686987549,-0.01658843307296376,-0.5948324506223199,1.826637099427885e-05,0.0010381012813223468,1.3501733998214516,0.34624806311004996,1.0039253367114016,1.1770493682664265,0.9767205208459955,-0.33810069852948255,0.0,0.000594182085017716,0.026771186856186187,0.8335325859592602,1.6497892079576677,6.257360981032835,1.0800215830494562,1.1766013146220233,1.1745544801041992,1.9086536775561351,1.9334693793964508,1.5615518986326071,2.2049781053506314,0.8338191577941575,Relax
103.45974828976624,580.0220588235294,31.957719037819608,,,,,,,20.073383888640716,20.146826993884265,0.05509742009233253,0.034607966340721545,577.5,32.6172,0.056479999999999995,44.5,1.592044431327998,550.0,608.0,2.941176470588235,29.411764705882355,518.0,666.0,7.157894736842105,109.375,,,0.06428328079735594,0.012356889723639845,0.0019411109862431121,0.07858128150723889,5.20222177546638,0.8180482624406448,0.1572497862929549,-4.393541499101584,14.245957986767747,42.9667470122128,0.3315577505255052,1922.9766316797243,3.0160658238724376,3.9909441166161774,518.3621489060328,0.4632352941176471,0.4740740740740741,0.71875,0.06976744186046512,49.282739472466446,49.30091112675754,49.265487207522504,51.85185185185185,0.4986488225453609,0.5013511774546389,10.06045160850964,10.087675353115342,0.4836693237014381,0.5163306762985618,29.8817994377333,30.874251588898147,0.48515310897915886,0.5148468910208411,22.295006438708224,22.96715704222478,1.379574412012151,0.1628709829084385,1.3332987924423074,1.4147342838965267,0.9903449523174483,-0.4627214217143356,0.0,0.00013859183271594506,0.005664668422180803,1.3070147334847362,4.374802374545595,1.8232842792599984,3.4944159207575343,-4.011240499038074,-4.952609866528826,-0.11800979828920533,0.03179629272039475,2.1414934874255676,0.7934116054357236,1.6451559950361796,6.251810337634574,1.066596636262708,1.2085151460394772,1.3976247584088852,1.9441109729433468,1.9419342852890387,1.5618652266889852,2.7383933748021723,0.8859328551562924,Relax
103.74093608371652,578.4963503649635,32.46154378364526,,,,,,,20.689404790574216,20.76582657581697,0.0561136535488354,0.035764105992235944,576.0,34.099799999999995,0.059201041666666655,47.0,1.5689936038389203,549.2,607.0,3.64963503649635,30.656934306569344,518.0,666.0,8.5625,117.1875,,,0.06153296421603757,0.009176819972724992,0.0014970300910520675,0.07220681427981462,6.7052600354941685,0.8521766931523398,0.12709077480088146,-4.69107454256281,14.683656788704003,43.5824510339467,0.33691672772756154,2010.461442669321,2.9680924623268408,4.010265858429558,517.4269776143433,0.4744525547445255,0.4852941176470588,0.7424242424242424,0.06976744186046512,49.8442367601246,49.83748807749579,49.85091591674826,50.73529411764706,0.4972601563171003,0.5027398436828996,10.354458692506084,10.411354200885507,0.5059750768644337,0.4940249231355663,31.001036426861603,30.632756627289705,0.5050866621387283,0.4949133378612716,23.111459001482523,22.87752253723136,1.3731122595129894,0.4610718304108907,1.4481592737638642,1.5693249825579327,0.5061614651438333,-0.37599636675770576,-0.2372086065503287,0.00016451080475147283,0.018190046037975024,1.3633363171969544,0.26320379281589457,1.1368052790409369,1.2684071754488841,1.0,-0.6055098004409896,0.0,0.0001630384196816875,0.007967887028966425,0.8390992549259493,1.8437192081587659,6.317784980846796,1.063576133243175,1.3409183582832294,1.4322519741263857,2.1648663159126937,1.9543350178613244,1.5912084815692193,2.629714446083451,0.8807777037250288,Relax
104.39853489986928,574.8102189781022,31.895401855291297,,,,,,,20.174969932188397,20.248903249032303,0.05548857832067592,0.03509848862474203,571.0,32.6172,0.05712294220665499,45.0,1.580939251086734,546.0,602.8,3.64963503649635,29.1970802919708,518.0,666.0,8.5625,109.375,,,0.05168452524079947,0.007944320114929454,0.0014728499309151666,0.061101695286644095,6.505846251546528,0.8458771069826098,0.13001799831674984,-4.835298056609875,14.318136798981056,42.922232966012736,0.3335832227162701,1930.717297829251,2.9977526802975705,3.992688797526282,514.6809556728856,0.46715328467153283,0.4779411764705882,0.7538461538461538,0.06976744186046512,49.49074074074075,49.494886330956035,49.48769489541979,50.73529411764706,0.49759736975214974,0.5024026302478503,10.10042170003404,10.149074031836781,0.5101351469795227,0.48986485302047755,30.656666582432454,30.041419354654998,0.5088796043896601,0.4911203956103399,22.8237784389981,22.421982300255518,1.3845934368849062,0.4941130999169143,1.4022342212120718,1.5825249920264284,0.08953225864935987,-0.6928830008249243,-0.13512246316749602,0.00014745015146811217,0.016055493803562883,1.5261836316454667,2.57731117413363,-1.0511275424881632,0.23752804457865173,0.9803125942941535,-3.21861051795415,0.0,0.011417721341576712,0.7789533535268898,0.8254318666875142,1.690878244374275,6.277567645048791,1.0499337731813971,1.3157022737591637,1.521473359030597,2.2712457224487186,1.8972702816250668,1.5814174740897784,3.192406150367199,0.8807777037250288,Relax
104.58388942575438,573.768115942029,31.478944383351056,,,,,,,20.025166647747852,20.097884659768003,0.0548635302463052,0.034901149247148315,571.0,31.1346,0.05452644483362522,41.0,1.5719691594622192,545.4,601.6,3.6231884057971016,26.811594202898554,518.0,666.0,8.625,117.1875,,,0.03783070510384724,0.006397943371351446,0.0015364353827505197,0.04576508385794921,5.9129477877601495,0.8266281172185856,0.13979966454797937,-5.0517786884862526,14.211350530427042,42.33187834247043,0.3357127320327097,1889.9606573604285,2.9787371898143156,3.9834228736751895,504.38216133364745,0.47101449275362317,0.48175182481751827,0.7424242424242424,0.06818181818181818,49.444958371877895,49.43799406146982,49.45304556926956,51.82481751824818,0.5058247478976301,0.49417525210237007,10.107692178557407,9.990620601344043,0.5032214677881981,0.49677853221180185,30.02943211875426,29.836573707898282,0.5034851659617682,0.49651483403823177,22.404600359650924,22.24897335414431,1.3438793058364464,0.2460751781644035,1.372562456470809,1.4233083008811374,0.6787170374854536,-0.15834632071245025,-0.2937791012126183,2.61856544679733e-05,0.0033317582855118696,1.4287035670721744,3.1860330650294664,1.7742799652070653,3.021720099586908,-4.4479027085910126,-5.445327464947799,-0.10846604259321924,0.006878403710122125,0.8477620740215689,0.8799947401500665,1.7414976344471669,6.292370902552871,1.0510889845394074,1.161902865086594,1.489551192047282,2.146151374400383,1.8269984930869254,1.5742021319026893,2.921875963408942,0.8756877954002092,Relax
104.91092628615733,572.0072463768116,32.101457860068834,,,,,,,19.666192414587815,19.73679045287886,0.05612071886047733,0.03438101971462202,566.0,31.875899999999998,0.056317844522968195,43.75,1.6323168808343855,542.4,600.0,3.6231884057971016,25.36231884057971,518.0,666.0,8.625,117.1875,,,0.040985729240397485,0.0061232897213654046,0.0012189238336279236,0.04832794279539081,6.693416628220274,0.848075189418293,0.1267028838220981,-5.0956557907079,13.956018368088554,43.31175802742672,0.3222223941879951,1898.966123332914,3.103446619593321,3.9854873271575704,537.6629161554454,0.4492753623188406,0.4598540145985402,0.6984126984126984,0.07142857142857142,49.190476190476204,49.17307109372434,49.20924244585897,50.36496350364964,0.49652738459215645,0.5034726154078435,9.834849500926913,9.903393654821206,0.5127080631488248,0.48729193685117494,31.01279339097292,30.234335274902094,0.5111858701811123,0.4888141298188878,23.005625601329083,22.496580133406297,1.373269490710451,0.3109675517654473,1.447947773867058,1.5048162751330416,0.7242896189963801,-0.22783639808335376,-0.3171240023496806,8.281915867263018e-05,0.008966868408726639,1.3956569031433583,1.284993606635685,0.11066329650767326,0.7531600998255158,0.903685818523724,-2.3774795594922926,0.0,0.0031067191939904613,0.23524445617522705,0.8423181014325696,1.5811341362712488,6.2641090581333785,1.0131499759452454,1.5331938936418792,1.6387356974058918,2.0681749917958077,1.794622626237365,1.5593124502114162,2.8527654946226293,0.7211546550354664,Relax
105.47099078862841,568.9856115107914,31.58471140234974,,,,,,,19.28335619354049,19.352882556878722,0.05551056259311173,0.03389076244360313,562.0,32.6172,0.05803772241992882,42.0,1.6379260480045448,540.0,594.0,3.597122302158273,24.46043165467626,518.0,666.0,7.722222222222222,70.3125,,,0.05026168632532096,0.007146280706492445,0.001237399275054168,0.05864536630686757,7.033265049280512,0.8570444604663531,0.12185584567924493,-4.941163238527395,13.684554491475792,42.65537401054251,0.32081665696082234,1833.809804023844,3.11704513560254,3.9703244002127422,531.8349042674741,0.45323741007194246,0.463768115942029,0.71875,0.06976744186046512,49.445248432223835,49.43359905506759,49.45790148554858,51.449275362318836,0.5056806002143623,0.49431939978563777,9.731617520332568,9.621675651141356,0.5019428927714247,0.4980571072285754,30.220448744850238,30.103245832287673,0.5022917142487883,0.49770828575121173,22.449720509420203,22.34705855336348,1.4038585422674783,0.5029718152565712,1.473329531041548,1.6490043783579043,0.025412283738216246,-0.9745877162617838,-0.1507262594291835,0.00033473876195256816,0.02488525634199895,0.9758630714104628,4.4546938831768434,1.874405000675254,3.2032100129988845,-6.238346551693912,-7.162888452495705,-0.2017067733112113,0.011945881340174339,1.610935246347063,0.8355882069227127,1.3903843463714158,6.16006184599585,0.9996590325434852,1.02762162381149,1.2977128754648921,1.7049281525163649,1.7679203938801271,1.5818965232693907,2.68691431943665,0.7170156476124396,Relax
104.98464271891454,571.8992805755396,47.64714736112322,,,,,,,44.381335024430314,44.54288260751642,0.0833138788235103,0.07760341118066537,565.0,42.9954,0.07609805309734513,56.5,1.073585265853206,535.6,608.4,20.863309352517987,49.64028776978417,449.0,715.0,8.176470588235293,125.0,,,0.057225201574442816,0.02066681938546055,0.003318995423805262,0.08121101638370862,2.768940905086813,0.7046482623005629,0.25448295447766894,-3.8792257930133993,31.49657434537118,59.8024315634692,0.5266771521145156,5917.415115046769,1.8986963759205744,4.479102146680157,454.18664032318856,0.5107913669064749,0.5217391304347826,0.7638888888888888,0.20689655172413793,50.17717930545713,50.21242138555293,50.144865253820214,50.0,0.4801136050092158,0.5198863949907843,21.824114433417904,22.710089722026236,0.5587412741309374,0.4412587258690625,44.70171853055894,39.72514545370602,0.541666959256039,0.4583330407439612,35.17481777058864,32.356107279002075,1.2718666518241628,0.3965385656253342,1.2521008512813614,1.378626310827497,0.990641202054281,0.1736604496729468,-0.1809252100193402,0.0009898039120951618,0.037037961660112306,0.7239068475614483,0.6324632179185701,0.24945149949883927,0.5656831084581243,1.0,-1.6830465573933506,0.0,0.0009314503717253076,0.06429161909026647,0.7621474978650076,1.595049174982001,6.341681360368775,1.032287064760564,1.1594215294663563,1.2055547123099202,1.6107956488327222,1.6800586245166285,1.6807892566139457,2.8974446850027396,0.9218772612159938,Stress
104.45598069774482,574.6861313868613,46.20745289784041,,,,,,,40.98044727456656,41.131922836803085,0.08040467722151268,0.07130926785316793,573.0,40.0302,0.0698607329842932,52.0,1.1275487694961752,536.4,608.2,18.97810218978102,48.175182481751825,476.0,715.0,6.85,101.5625,,,0.05160294249701143,0.020539831910795312,0.0036518914988799096,0.07579466590668665,2.5123351895538146,0.6808255156179663,0.2709931057164707,-3.8853892580207936,29.084661561145275,58.77535609130863,0.49484449768303745,5370.4311875015865,2.0208368582094036,4.436979266207871,475.1016237747963,0.49635036496350365,0.5073529411764706,0.7536231884057971,0.16666666666666666,49.923469387755105,49.937066699466676,49.91214956854895,50.73529411764706,0.49126962582859734,0.5087303741714025,20.385634012070216,20.74474498383734,0.5584289611936877,0.44157103880631243,43.92170955859742,39.056701257407056,0.5452184413336205,0.45478155866637954,34.239528652011714,31.271155699420405,1.2923310311981269,0.4012962161193616,1.163903246629645,1.3467829568923766,1.0174372801621816,0.3092229335930936,-0.04427751143226362,0.000934340586601318,0.03919668628505345,1.4190697935071561,4.599359111213003,1.5391780173074738,3.1157316920121128,-8.404923344276188,-7.621332975893331,-0.15722318336459498,0.005797217184132724,1.0653258069724976,0.7519744776201547,1.4728623774283496,6.289316845592124,1.031226041614632,1.054416435065314,1.2297433961529338,1.5666328824942326,1.7078259874526953,1.6554659796983122,3.2952300458505124,0.8807777037250288,Stress
103.80419190667006,578.2773722627737,45.88872890049417,,,,,,,41.297610670095956,41.449067756282815,0.07935418382520072,0.07141488263409,574.0,40.0302,0.0697390243902439,54.0,1.111171521933173,541.8,613.0,18.97810218978102,51.09489051094891,476.0,715.0,7.2105263157894735,101.5625,,,0.05102435425195235,0.023037853707867668,0.002699268035061637,0.07676147599488166,2.2148050291042085,0.664713042455757,0.3001225993804991,-3.770616602534113,29.308916884328255,57.585877661977314,0.5089601491596313,5302.316313014142,1.9647903704271312,4.431435742242113,452.5767116113915,0.5036496350364964,0.5147058823529412,0.7714285714285715,0.16129032258064516,50.535491905354924,50.620717843609896,50.45800578675546,49.26470588235294,0.4922719414348968,0.5077280585651034,20.564352471998543,20.884692249836252,0.5883015682461906,0.41169843175380955,44.16883997222683,36.949247375393654,0.5685430969254526,0.43145690307454765,34.45126280040236,30.011808109295956,1.2849809765530278,1.363048599057894,1.4770725438519305,1.9080976833232821,-0.819000809959876,-1.6514176201048247,-0.18377859764555302,0.0011107108128242114,0.1487305779153561,0.6491672542770969,2.062797093705443,0.9612629530578993,0.8510938926414616,-0.7491660707008645,0.4540711395595276,-0.5534076088979449,0.0001377781003254239,0.17722712630554532,0.7423895663989595,1.4894785973551214,6.356799418569035,1.0891140267722508,1.4758412576017637,1.1859558606007377,1.6021869806391549,1.7664109238864691,1.6952399851838058,2.434973165011616,0.9325881568853247,Stress
104.1604742301091,576.2335766423357,43.25680204479961,,,,,,,38.25206645705947,38.387211355381126,0.0750681733904736,0.06638291832966593,573.0,38.547599999999996,0.06727329842931937,54.0,1.130835692062762,541.8,608.6,16.05839416058394,48.175182481751825,476.0,715.0,6.85,101.5625,,,0.045227314978373595,0.02035907221521219,0.002079388353214116,0.0676657755467999,2.22148212356062,0.6683927674351842,0.30087695072867643,-3.89422865733555,27.14385746023123,54.55884073545288,0.49751528981063703,4652.502044072561,2.009988477702097,4.3746566825715245,438.65056494017637,0.5036496350364964,0.5147058823529412,0.7714285714285715,0.15625,48.735879505110276,48.83302536785653,48.64011260344004,50.73529411764706,0.4510296585895337,0.5489703414104665,18.232449704365628,20.114855391163204,0.5696548042799314,0.4303451957200687,41.178546788615506,35.79098191967241,0.5461121583662317,0.4538878416337683,31.844111997702328,29.031033345212887,1.2862056372386985,1.3153007471703533,1.260997104497303,1.863260724744605,-0.8289201957444217,-1.6677296235858812,-0.04210957338618555,0.0005503694236612735,0.11733153721183844,1.3845296124587243,4.824685023180437,1.6764746646765434,2.647431722037266,-6.547828472655578,-4.172754077277709,-0.2987522392247967,0.0029236361697507775,0.9532580576911662,0.7669696328834732,1.575536360758419,6.327602338277062,1.0863129807020182,1.325557624460849,1.4402744490671944,1.9115065239220914,1.716574832496214,1.6796064279382952,2.554918776466607,1.0362090632059162,Stress
104.22205559047993,575.992700729927,42.94875474986662,,,,,,,40.115000128307585,40.263266937594835,0.07456475523984904,0.06964498001011442,574.0,38.547599999999996,0.0671560975609756,52.0,1.0706407730897491,541.8,606.6,18.97810218978102,50.36496350364964,476.0,715.0,6.523809523809524,101.5625,,,0.04264695659505986,0.016513667970843932,0.0006202790420791781,0.059780903607982966,2.582524771017325,0.7133876208148334,0.2762365065461932,-4.103566879108614,28.47042908429742,53.8899121424312,0.5283072091312747,4820.04797401808,1.8928380735980421,4.390021470762392,408.0195099441888,0.5182481751824818,0.5294117647058824,0.7916666666666666,0.15625,49.91136996708028,49.934242787063994,49.889291040647514,51.470588235294116,0.4693515738874952,0.5306484261125048,19.504890175049454,20.73947747475635,0.5804705257961614,0.4195294742038385,41.05797840164519,34.905086166474234,0.5562237284891858,0.44377627151081417,32.14186002062345,28.709675775031986,1.2302695400362376,0.7172445558607505,1.4272497974590133,1.4267059001997389,0.5032697850343233,-0.16912445052209524,-0.500758314935722,0.0003309536426980292,0.041067592683684505,0.4977645079263548,1.4120724651327554,0.9101314755287095,0.5376309560706959,0.9539840055386302,1.38225044281891,-0.7637970278834049,0.0022180398505566865,0.20700224343670326,0.7361968755491102,1.559427491859439,6.347711006176066,1.101021223694533,1.346953627476797,1.3791215517340165,1.9097261214821246,1.721828232766772,1.6852700851498845,3.3654061647891345,0.9843986100456205,Stress
104.59240348780166,573.963768115942,42.663410094367094,,,,,,,38.359517133881205,38.50028020396213,0.07433119033699874,0.06683264565601028,572.0,39.2889,0.06868688811188811,52.75,1.1121988304874793,540.0,604.6,17.391304347826086,48.55072463768116,476.0,715.0,6.9,101.5625,,,0.044748990761370594,0.017180088414154155,0.00033721775786545454,0.0622662969333902,2.604700842197253,0.7186711425804096,0.2759131225120497,-4.064004216097352,27.223809209803814,54.063224322366565,0.5035550422866847,4623.8177577969345,1.9858802236572157,4.371970818518105,429.4523520357261,0.4855072463768116,0.49635036496350365,0.75,0.12121212121212122,50.039714058776795,50.05872399841823,50.02101609291301,51.82481751824818,0.4791432072186479,0.5208567927813522,18.844370356094338,19.64753763946306,0.5813689057389947,0.41863109426100537,41.221884622145026,34.979829220982346,0.5606910114281018,0.43930898857189815,32.049602695814215,28.3691221896555,1.303990076375159,1.1852473016838971,1.489494341061842,1.8146349454441428,-0.6634749559895674,-1.5082181225367077,-0.22567699253955775,0.0003994913477827292,0.09305710246607085,1.5869052817667046,1.156330387134504,0.6939360909903307,1.2721012845575828,1.027857631944057,-3.4989230277760175,0.0,0.001972535617376001,0.11409170816030755,0.7676471108320699,1.6247053845648889,6.35461793491362,1.0968746027777225,1.5114239111774086,1.499564187311984,2.0989277350417828,1.7478562388735475,1.6716058855715703,2.828320672269879,0.8756877954002092,Stress
104.6991682299153,573.304347826087,40.325248596742505,,,,,,,32.358394481658955,32.47712806183295,0.07033829195548896,0.05644191362643379,572.0,37.065,0.06479895104895105,48.75,1.246206718309193,540.4,601.0,13.768115942028986,44.20289855072464,476.0,715.0,6.2727272727272725,101.5625,,,0.05520816126139895,0.02149821311617651,0.0008984766211851526,0.07760485099876062,2.5680348856462447,0.7114009053671225,0.27702151140680426,-3.839785458177931,22.964797485985994,52.42515776004623,0.4380491822475298,3782.267480172398,2.2828486857782258,4.284722348657809,478.7148099769508,0.463768115942029,0.4744525547445255,0.7384615384615385,0.08571428571428572,50.060350030175,50.06321548403657,50.05870316343093,52.55474452554745,0.5094877586303052,0.49051224136969485,16.391914254936076,16.08376510646683,0.5766125045265248,0.4233874954734754,39.80904637662686,34.11212383815039,0.5658057923455481,0.4341942076544522,30.44219954567676,26.667625435622387,1.3750340745694105,1.6139778524714092,1.5530328115911463,1.9095947966168572,-1.0631284288870688,-1.2911670006056175,-0.2790787621529477,0.0006650024283835334,0.14733524078076576,0.7684769671026908,1.4784429268202612,0.9954586345640601,0.9138500610845866,0.9038772898744396,1.3850235306500744,-0.555199001597574,0.0031897348303009895,0.23265884340133877,0.7801560958030027,1.499953679592412,6.302117119711905,1.08360132276135,1.3701415928971568,1.4775788895748494,1.9951570165010064,1.6808713175809666,1.6377678801163607,2.8137592647199225,0.8756877954002092,Stress
104.05400959380732,576.6204379562043,43.7237537048465,,,,,,,33.021606117635095,33.137319101148314,0.07582761696727687,0.05726749165305022,573.0,38.547599999999996,0.06727329842931937,52.0,1.3240953074507165,540.0,613.0,14.5985401459854,45.25547445255474,476.0,715.0,7.2105263157894735,101.5625,,,0.05327881749433942,0.022058683309160724,0.0009317591116381456,0.07626925991513829,2.4153217464350343,0.6985621409414566,0.28922115323663194,-3.8140489537395266,23.431623046764482,57.0896430366133,0.41043562020062163,4202.517903373828,2.4364357058268924,4.3304796822386535,556.3809789092651,0.45985401459854014,0.47058823529411764,0.734375,0.08823529411764706,51.30254588513914,51.23576140980071,51.36904768012741,52.20588235294118,0.5248014133703759,0.47519858662962416,16.977872309219084,16.155609047748825,0.5695452678318241,0.4304547321681759,43.0845390999079,37.455971921663405,0.5630923915862864,0.4369076084137134,32.745424547558095,28.844007491159587,1.3571845831572869,1.6536934642320729,1.548342391587009,1.8092663136080263,-0.6752672932046853,-0.6487858807540272,-0.34221748004417324,0.0008689030719732302,0.1580029668589413,1.0792522159632874,2.486684314026075,1.5359638133050346,0.9829574660135183,0.16009313984698892,2.699561049801585,-0.7223870332765198,0.0007587021358222159,0.32712111526836674,0.7385595530204485,1.4900911548015339,6.3788399295811065,1.0644000037368022,1.5500184865701867,1.4046839320822966,2.0151222279479866,1.719787260356407,1.6254817279891842,2.7218498494821963,0.8807777037250288,Stress
104.00873267661264,577.1751824817518,43.55623441061718,,,,,,,33.14318313371988,33.26554872576347,0.07546449627881266,0.05742309118560854,573.0,38.547599999999996,0.06727329842931937,52.0,1.314183801685091,545.0,613.0,14.5985401459854,45.25547445255474,476.0,715.0,7.611111111111111,101.5625,,,0.06357296707763406,0.023036853933560295,0.0014660607561986492,0.088075881767393,2.759620183423588,0.7217976794774448,0.26155689243509656,-3.7706600005005333,23.522295083878866,57.09949177343274,0.4119527924559098,4219.5079478577445,2.4274626081264574,4.332231919219765,554.427524892129,0.46715328467153283,0.4740740740740741,0.734375,0.11764705882352941,50.205640423031724,50.21647198050838,50.19562199895219,52.59259259259259,0.5117877798007925,0.48821222019920746,16.82777686071675,16.435620755834858,0.5674802224807349,0.43251977751926507,43.01377983938848,37.55218641721053,0.5594000921506531,0.440599907849347,32.660062233142305,28.985309506218496,1.3916603624808437,0.3480708083803714,1.4501720646133336,1.3694028153575277,1.0035582150782103,0.4627753182786334,-0.7320483284181112,0.00018069105896853163,0.012891111896928794,1.324904450171742,3.939317639200728,1.6169073960127671,2.2920252647377697,-4.374624889824073,-2.27280354319012,-0.32862060626774403,0.00261264796847641,0.666790651282768,0.7716086333912959,1.579732758020184,6.419057265379113,1.0752573645495367,1.6413141113572152,1.427004622111903,2.0692980406805326,1.7447174948929423,1.6057181958549243,2.580294633877319,0.828967250564733,Stress
103.86591665419873,577.978102189781,42.58235397322751,,,,,,,32.451547592934155,32.570178963803755,0.07367468388836201,0.05614667315246934,573.0,38.547599999999996,0.06727329842931937,52.0,1.312182534632006,543.4,613.0,13.138686131386862,43.06569343065693,491.0,715.0,8.058823529411764,85.9375,,,0.0654372379104787,0.018682811160744762,0.0016774134926480335,0.0857974625638715,3.502537029757686,0.7626943263242112,0.21775482167478363,-3.98015136710009,23.030594409765076,55.626203445893374,0.414024200522089,4024.7085802975744,2.4153177489117525,4.3117045495599395,537.4198259497695,0.46715328467153283,0.4779411764705882,0.7384615384615385,0.08571428571428572,49.39393939393939,49.42856104509407,49.36062849282048,55.14705882352941,0.5245702475876609,0.4754297524123389,16.68110485727067,15.880572804297476,0.5282518843532209,0.4717481156467791,40.429646801698134,38.20625824775126,0.5277131040853373,0.47228689591466255,30.92584355979089,29.256715142736493,1.4097208712041713,0.30620568608942245,1.4120831655887827,1.3827037305757683,1.0089945469410795,0.40544948592537544,-0.59594673236876,0.0001685619585325536,0.011614634432026032,1.7891875729168936,0.8790521794460164,2.623656873928983,2.1841307842059745,3.62254503184527,2.62254503184527,-1.0,0.00035147856931099143,0.05090422644572508,0.7495295103221493,1.4678743481123133,6.387928341974073,1.0462863424610922,1.4950665997976647,1.39903049217021,1.924790717940339,1.7517150035051363,1.6034293286329842,2.737489882201948,0.9325881568853247,Stress
