PPG_Rate_Mean,HRV_MeanNN,HRV_SDNN,HRV_SDANN1,HRV_SDNNI1,HRV_SDANN2,HRV_SDNNI2,HRV_SDANN5,HRV_SDNNI5,HRV_RMSSD,HRV_SDSD,HRV_CVNN,HRV_CVSD,HRV_MedianNN,HRV_MadNN,HRV_MCVNN,HRV_IQRNN,HRV_SDRMSSD,HRV_Prc20NN,HRV_Prc80NN,HRV_pNN50,HRV_pNN20,HRV_MinNN,HRV_MaxNN,HRV_HTI,HRV_TINN,HRV_ULF,HRV_VLF,HRV_LF,HRV_HF,HRV_VHF,HRV_TP,HRV_LFHF,HRV_LFn,HRV_HFn,HRV_LnHF,HRV_SD1,HRV_SD2,HRV_SD1SD2,HRV_S,HRV_CSI,HRV_CVI,HRV_CSI_Modified,HRV_PIP,HRV_IALS,HRV_PSS,HRV_PAS,HRV_GI,HRV_SI,HRV_AI,HRV_PI,HRV_C1d,HRV_C1a,HRV_SD1d,HRV_SD1a,HRV_C2d,HRV_C2a,HRV_SD2d,HRV_SD2a,HRV_Cd,HRV_Ca,HRV_SDNNd,HRV_SDNNa,HRV_DFA_alpha1,HRV_MFDFA_alpha1_Width,HRV_MFDFA_alpha1_Peak,HRV_MFDFA_alpha1_Mean,HRV_MFDFA_alpha1_Max,HRV_MFDFA_alpha1_Delta,HRV_MFDFA_alpha1_Asymmetry,HRV_MFDFA_alpha1_Fluctuation,HRV_MFDFA_alpha1_Increment,HRV_ApEn,HRV_SampEn,HRV_ShanEn,HRV_FuzzyEn,HRV_MSEn,HRV_CMSEn,HRV_RCMSEn,HRV_CD,HRV_HFD,HRV_KFD,HRV_LZC,Labels
74.85096142916233,802.0204081632653,55.040187677964,,,,,,,36.65371530091902,36.839716796916015,0.0686269166192584,0.04570172395595389,805.5,63.751799999999996,0.07914562383612662,84.0,1.5016264306659244,757.4,851.6,16.3265306122449,57.14285714285714,676.0,931.0,14.0,93.75,,,0.05718192943858674,0.03522716953783952,0.0004503557674248742,0.09285945474385114,1.6232337195630877,0.6157900624801284,0.3793600730804652,-3.345937632239823,26.04961356409127,72.69200712241022,0.35835595404904474,5948.915748232844,2.790521515551935,4.481407928216615,811.394439534961,0.35714285714285715,0.3645833333333333,0.6571428571428571,0.0,49.02998236331569,48.91312925289524,49.13780776761839,46.875,0.49015109078492003,0.50984890921508,18.239723133863627,18.602615183534457,0.5166476397415771,0.483352360258423,52.24971011748584,50.53806181605338,0.513631577596202,0.48636842240379796,39.132593239915124,38.07986990386061,1.2307351375046491,1.595368204942039,1.4648873473021764,1.6121331305495081,-0.5373068618121639,-0.4558298884692542,-0.407704200954236,0.0003348332020806793,0.13121384303976513,0.658041090891174,1.7047480922384253,6.313589691009829,1.1429572533138632,1.1340866723772467,1.1562327895248283,1.5136907454719226,1.9326540489615962,1.7752014365437017,2.4864593157740544,0.8099644707079847,Relax
74.43146126107195,806.6224489795918,54.82239652688469,,,,,,,38.311259145577395,38.48813803965385,0.06796537413040898,0.047495899964156214,809.5,62.2692,0.0769230389129092,83.75,1.4309734983798703,760.0,856.6,18.367346938775512,59.183673469387756,665.0,931.0,14.0,101.5625,,,0.051878026637813025,0.024467900861480766,0.00030361615400718584,0.07664954365330098,2.1202483585129843,0.6768210763584742,0.3192178282515715,-3.7103931893722977,27.215223403083154,72.44851827806615,0.3756491374830862,6194.286435142235,2.6620585546932753,4.498961394018638,771.4487914279124,0.3673469387755102,0.375,0.6666666666666666,0.0,52.139945652173914,52.12541354827014,52.150128995748645,46.875,0.5438639620150029,0.456136037984997,20.081993385451888,18.39114936593143,0.48356909960314154,0.5164309003968585,50.3800713654348,52.06377060779387,0.4910328046228534,0.5089671953771469,38.3499546878457,39.04401737078922,1.2713290549533336,2.283705704739292,1.5659775115128718,1.9530869933306283,-1.4219531753355117,-1.2452511145589984,-0.33049064465075245,0.0014240686638620486,0.30673202844751885,0.564267815061883,1.8505999692509885,6.293181527744524,1.1640026733509112,1.487734805538229,1.1333830270664005,1.4147536561086282,1.926730081237223,1.8061988126511956,2.5540019998654455,0.9449585491593154,Relax
74.51956581290304,805.2857142857143,54.37934720150524,,,,,,,38.90790076922734,39.107482519377754,0.06752801674836556,0.048315647575765716,808.0,61.527899999999995,0.07614839108910891,80.25,1.3976427955865054,760.8,855.2,20.408163265306122,61.224489795918366,665.0,931.0,10.88888888888889,101.5625,,,0.04762445583173691,0.016258491007897887,0.0002566460132482994,0.0641395928528831,2.929205164772203,0.7425125996819634,0.2534860338946954,-4.119139983111344,27.653166084586374,71.58973984109359,0.38627275564861097,6219.357461725305,2.588844243806031,4.500715628858179,741.3387436127457,0.37755102040816324,0.37894736842105264,0.6388888888888888,0.0,49.282615949282615,49.32684343276064,49.23771218571739,49.473684210526315,0.5157619465952971,0.484238053404703,19.860844015298042,19.24431734304961,0.45951317766798555,0.5404868223320142,48.528824244540274,52.631208117978666,0.46681703212209424,0.5331829678779058,37.07762065962081,39.6256723473431,1.412789966545616,1.5788607400215584,1.645279742739162,1.8096052928679458,-0.26789584968018687,-0.23582092832065893,-0.3959214413510973,0.0008242590062552663,0.15363042852180958,0.5474131163318057,1.6514021115331323,6.280476298174764,1.1610203763418154,1.4382203285998287,1.1146302590691506,1.370727056531188,1.8073787521979616,1.7847279882802485,2.319808104813662,0.9449585491593154,Relax
73.8561311671127,812.1546391752578,57.65799673617586,,,,,,,37.605684410737695,37.7814989997309,0.07099386490573704,0.04630360105918527,814.0,62.2692,0.0764977886977887,82.0,1.5332255652210003,765.2,859.8,18.556701030927837,59.79381443298969,665.0,938.0,13.857142857142858,101.5625,,,0.04752403238772259,0.01301995215951379,0.0001981716543252568,0.06074215620156164,3.6500927042958735,0.782389618011301,0.21434787590202561,-4.341272316592966,26.715554146102477,76.62251970743189,0.3486645211892091,6430.8812352525065,2.8680864820694847,4.515240599119935,879.0400519799524,0.38144329896907214,0.3829787234042553,0.6666666666666666,0.0,52.11511789181693,51.98276250368083,52.249332186718355,48.93617021276596,0.5610480104889438,0.4389519895110561,20.022224493902034,17.71009227590451,0.47597254171253583,0.5240274582874642,52.86246118590752,55.46684346241645,0.4852032940554036,0.5147967059445964,39.97079731701502,41.17170200577858,1.4675362111064283,1.1931567339804046,1.6318847005440573,1.779520672276647,0.018775395295453023,-0.2201780280023513,-0.3762643938319219,0.0005973086276989946,0.09107934198382489,0.5949939092580885,1.4929040961781486,6.262233589587504,1.1171092565704244,1.6023531320562547,1.166583394724525,1.4854447194468694,1.7866786089380822,1.7464609220481648,3.008014610456935,1.020605078688731,Relax
73.54630724969891,815.7708333333334,58.983580082072386,,,,,,,38.662235075751006,38.860482061722145,0.07230410511375934,0.047393500105627304,819.0,60.0453,0.07331538461538462,85.5,1.5256122665051755,767.0,862.0,20.833333333333336,60.416666666666664,665.0,938.0,10.666666666666666,156.25,,,0.04753146388354074,0.01089495141108932,0.00020280314750350254,0.05862921844213356,4.362705448613685,0.8107129029948404,0.18582801716592087,-4.51945577033948,27.478510386021917,78.90219469056409,0.34826040636494576,6811.333453315141,2.871414555670418,4.540202251937231,906.2436412353076,0.375,0.3763440860215054,0.6571428571428571,0.0,51.17627003068531,51.11999277731657,51.22952305960348,50.53763440860215,0.5621641796300079,0.4378358203699921,20.60636650226167,18.18550977997171,0.45269616252842027,0.54730383747158,53.08752639586675,58.37183283190473,0.4645406435853383,0.5354593564146618,40.26728075781491,43.23183800229455,1.3889847027654665,1.559645123638095,1.602823790697486,1.9686467544968842,-0.8924232162263603,-1.3589230781707933,-0.26544474236160603,0.0008307558063759005,0.15849512450571535,0.6247303622450251,2.0149030205422647,6.243765755906953,1.1210212992955018,1.1796293558079534,0.8986029991542738,0.9944218800937948,1.8237324922026474,1.758393337224402,2.8688085674771977,1.0289003907376806,Relax
73.14811753828164,820.5833333333334,61.64100936136363,,,,,,,38.93408735150648,39.12772320751944,0.07511852466094887,0.047446841496707394,824.0,65.2344,0.07916796116504854,89.5,1.58321444149579,767.0,872.0,20.833333333333336,61.458333333333336,665.0,938.0,13.714285714285714,101.5625,,,0.044814349290066176,0.010121619692657962,0.00018822963085547584,0.05512419861357962,4.4275867549710135,0.8129705359385733,0.18361481794248785,-4.593081579247625,27.667478412427247,82.82888363467016,0.3340317676435073,7199.482169286089,2.9937272345522596,4.564271370405672,991.868338978688,0.375,0.3763440860215054,0.6571428571428571,0.0,51.59663865546219,51.556967805771215,51.63060343256205,48.38709677419355,0.5587020075413003,0.4412979924586999,20.68726095831555,18.385644261042824,0.4692364558082277,0.5307635441917723,56.73847789267987,60.34375767705895,0.4782221072399689,0.5217778927600312,42.70373308936567,44.60605903619613,1.321610369246145,2.121537704352763,1.5949989095112493,2.0687172936487697,-1.5819338505864486,-1.779789170064003,-0.27670989152557063,0.0012832890530783223,0.2771895459183848,0.6757421727422241,2.184802057337662,6.222932422573621,1.105977118080626,1.184494335124206,0.9066615545319562,1.016137510460968,1.8235399054914196,1.770629769576418,2.9194814563723748,0.8917136719726565,Relax
73.25212549269185,819.2395833333334,61.24046560235302,,,,,,,38.9090707865619,39.10962283101593,0.07475281571866556,0.04749412940747825,821.0,62.2692,0.07584555420219244,89.25,1.5739380140505375,767.0,870.0,21.875,61.458333333333336,665.0,938.0,13.714285714285714,101.5625,,,0.04366700932194471,0.00916138476257265,0.00022877072984720656,0.053057164814364566,4.766420192320617,0.8230181441983573,0.17267007754044786,-4.692757936768534,27.654679513459584,82.42147642475129,0.33552759199488014,7160.75627709716,2.980380820708358,4.561929002329025,982.5895502031793,0.3958333333333333,0.3978494623655914,0.7027027027027027,0.0,48.91891891891892,48.91905501923456,48.92318885164722,49.46236559139785,0.5304751706971117,0.4695248293028882,20.144953435939488,18.95234785881955,0.4659398259029307,0.5340601740970692,56.26072266646204,60.23313756632041,0.4724717388050714,0.5275282611949286,42.25569821863512,44.649873182602555,1.3439247641312613,1.8111174083228905,1.578491820729967,1.849309041186936,-0.8600288801186249,-0.7727438649526883,-0.35046953929522,0.000801972607623777,0.18481106382471627,0.6873096468607014,2.056452023455137,6.173402344426084,1.1042430610337592,1.033882515234666,0.9131937075827471,1.0143763440899445,1.8142456673754666,1.7387676988098777,2.5115058429088726,1.0289003907376806,Relax
73.3199730677586,818.4270833333334,60.689502220932425,,,,,,,37.83370816724433,38.01909993261874,0.07415382928648083,0.04622734136943904,820.0,62.2692,0.07593804878048781,85.25,1.6041119192613582,767.0,870.0,20.833333333333336,60.416666666666664,665.0,938.0,13.714285714285714,101.5625,,,0.04580365199813303,0.009157172860410907,0.00023542648183763666,0.05519625134038157,5.001942487746998,0.8298326586650474,0.16590207918180705,-4.693217787628263,26.88356337696372,81.56033291947163,0.3296156650501553,6888.35777416244,3.033836391992586,4.545085805798406,989.7628246164958,0.3958333333333333,0.3978494623655914,0.7027027027027027,0.0,48.23162274618585,48.27743821916522,48.190442300565564,50.53763440860215,0.5259004868291391,0.47409951317086074,19.503545776918116,18.51810499932316,0.4577600248535484,0.5422399751464514,55.18206162466946,60.058537950787915,0.46444259122449183,0.535557408775508,41.38507111882954,44.44068065158425,1.4511923505916575,1.417408997663805,1.6016713546044927,1.8938776718542685,-0.6274018644740504,-0.8651453957702087,-0.29384474225054685,0.0007053736495149934,0.11990589264194709,0.723935785497924,2.2216160304603783,6.173402344426084,1.0836449197768707,1.1946295845502348,0.897960395316351,1.078814199898744,1.877548268206477,1.7186875974461708,2.2488028834617806,1.0974937501201927,Relax
74.08151341104657,810.1752577319587,63.231883161186694,,,,,,,37.65896860864178,37.84850775755478,0.0780471664096493,0.046482496532992135,814.0,69.6822,0.0856046683046683,91.0,1.6790657178719595,760.4,867.8000000000001,19.587628865979383,60.824742268041234,665.0,938.0,13.857142857142858,109.375,,,0.04528467114001608,0.010209726765138993,0.00021709840516990098,0.05571149631032498,4.435443982168076,0.8128424856473205,0.1832606812114438,-4.58441440865837,26.762936493158634,85.50102306508056,0.3130130556775627,7188.775937262635,3.1947549211177573,4.563625057514499,1092.619256791076,0.38144329896907214,0.3894736842105263,0.6756756756756757,0.0,48.713550600343055,48.64652900626292,48.78351729652685,51.578947368421055,0.5374338031686339,0.46256619683136607,19.624099040666675,18.205985135027493,0.47661954327836675,0.5233804567216334,59.027886617600466,61.85574788679822,0.4820483862705885,0.5179516137294115,43.98520581796902,45.593812307000526,1.468075384479589,1.021538620000089,1.5524045764952,1.771208709344354,-0.2694661526707005,-0.6266357437007075,-0.2858092405266724,0.00035590622691902216,0.05777444799546012,0.6946771262405735,2.090741096933769,6.200377919484411,1.0603007955537875,1.0612345359916375,1.5169539512606915,1.7450084301644366,1.8221385122290554,1.7223010455625622,2.869451185395725,0.8845244015302336,Relax
73.96380824969334,811.4639175257732,63.319142355687305,,,,,,,38.801175884243506,39.00478912340641,0.07803075526605432,0.04781626766911805,816.0,68.19959999999999,0.08357794117647058,92.0,1.631887202196883,759.2,867.8000000000001,21.649484536082475,62.88659793814433,665.0,938.0,10.777777777777779,101.5625,,,0.04373488371778442,0.01118270680015344,0.00018972233235811325,0.05510731285029598,3.910938961324133,0.7936312161798599,0.20292600422256624,-4.493386729633237,27.58055088791197,85.38786859425743,0.3230031542181724,7398.590358624504,3.095944999114623,4.576119092153872,1057.4245790377913,0.38144329896907214,0.3894736842105263,0.6486486486486487,0.0,49.88452655889146,49.86891556929055,49.90017042121476,51.578947368421055,0.5474119739017929,0.4525880260982072,20.406139427039832,18.554755384224848,0.47569505352838254,0.5243049464716174,58.89256782880265,61.828420306522915,0.4824704898706135,0.5175295101293864,44.07235568803822,45.64555019368523,1.4126367151666204,1.1366754250488889,1.5651469349717482,1.76440602696775,-0.21723666846568612,-0.6301527088008338,-0.3247000967867045,0.00035003118938645253,0.07663584207679333,0.7048182147133635,2.423537703411708,6.184813228718153,1.092939680237377,1.2733198765537783,0.8180740588666181,1.402500375086615,1.9103298968426679,1.730789263110737,2.6925213639746812,0.8845244015302336,Relax
74.27340079947739,808.030612244898,64.32591853598035,,,,,,,38.19847786679734,38.39691145493802,0.07960826924275544,0.04727355286784623,808.0,66.717,0.08257054455445545,89.25,1.6839916700422597,758.4,866.6,20.408163265306122,62.244897959183675,665.0,938.0,12.25,109.375,,,0.043601840317047405,0.010877780211962222,0.0001692570285562608,0.05464887755756589,4.008339888049838,0.7978542701287545,0.19904855686201084,-4.521033083006023,27.150716466406095,87.31916327916336,0.3109365166453097,7448.018258872132,3.216090573050048,4.579010842612533,1123.3053514749408,0.3877551020408163,0.39583333333333337,0.631578947368421,0.0,49.98336106489184,49.9766218006301,49.990193243768324,48.95833333333333,0.5341858904157981,0.4658141095842016,19.843922243346952,18.530520994654555,0.49737682782437076,0.5026231721756296,61.58179442139288,61.90572567714961,0.5006218503808363,0.49937814961916366,45.74985603342755,45.69299224141396,1.363398746963773,1.0505053994310765,1.5513727266694795,1.5021655157592468,0.44494345074371644,0.47500268537956014,-0.5468414640580447,0.00019854246692736736,0.06145095262194673,0.6942947765964385,2.1162555148025524,6.2523652012139115,1.0600739841589366,0.9770037460076518,0.8037169508676656,1.1285376969002305,1.8768882957779194,1.7293196233754882,3.0047260338741193,0.8099644707079847,Relax
73.75679231606432,813.7628865979382,62.521625124811194,,,,,,,38.05711168756768,38.25344698377325,0.07683027347952981,0.04676683136370513,820.0,63.751799999999996,0.0777460975609756,88.0,1.6428368405381504,765.0,869.8,18.556701030927837,61.855670103092784,665.0,938.0,12.125,156.25,,,0.047456051150942695,0.01094384619591883,0.0001987307131729673,0.05859862806003449,4.336322925356898,0.8098491845632259,0.1867594269392591,-4.514977971936184,27.04927176598615,84.57853683141994,0.31981248173990234,7187.29743443026,3.1268323067305475,4.563535727750072,1057.8516056819335,0.3917525773195876,0.4,0.631578947368421,0.0,50.82910321489001,50.83400533090776,50.82034521756813,49.473684210526315,0.540315446522968,0.459684553477032,19.884667460131183,18.341066949392697,0.4921884512725837,0.5078115487274165,59.33703992241981,60.271424288704324,0.4966548604498819,0.5033451395501181,44.25090002900982,44.54794789118306,1.503489492535174,1.5198689086704857,1.759357060318032,1.9650765099554388,-0.11543101210406803,-0.3596692901779708,-0.3646465833574021,0.0013724265334443212,0.1759024166438732,0.7666638240232091,2.3978952727983707,6.086774311147773,1.0746424106864525,0.0,0.7658533083557651,1.4377343793982587,1.9104583422684944,1.7159379843150988,2.7797518036476814,0.8845244015302336,Relax
73.9491421809157,811.6701030927835,63.15799000151072,,,,,,,37.99808109190077,38.19718001899497,0.07781238924638698,0.04681468609859238,814.0,65.2344,0.08014054054054054,84.0,1.6621363023242965,762.4,869.8,17.525773195876287,60.824742268041234,665.0,938.0,13.857142857142858,101.5625,,,0.043371701216393624,0.009731437931081683,0.00019943360679748243,0.05330257275427278,4.456864599409998,0.8136887016005604,0.1825697602992644,-4.632393610447011,27.00948501363464,85.4446111755877,0.3161051895728153,7250.214477191428,3.16350389992458,4.567320964102851,1081.2174427260443,0.38144329896907214,0.3894736842105263,0.6216216216216216,0.0,50.27303754266212,50.282706002913436,50.262669886556765,48.421052631578945,0.51813721953683,0.48186278046316994,19.442086740936666,18.749175420464987,0.4985437921300423,0.5014562078699576,60.33041798198964,60.50638185403081,0.5003237887499891,0.4996762112500109,44.82049793745985,44.79148258326106,1.5245748236074228,1.704414096169586,1.7523332612939018,2.0984524074456097,-0.7424802735781171,-1.0121214352866765,-0.2969277847856583,0.0012493160684595099,0.19769010732738176,0.7197331230312236,2.1517622032594623,6.192595574101283,1.0712840771544958,0.0,0.9362496843431982,1.4179783106592254,1.945171376243311,1.7045029193880497,2.639747774404418,0.816484062950985,Relax
73.9628301486881,811.2268041237113,63.29009025159454,,,,,,,38.25476549834456,38.44755912449553,0.07801775031331788,0.04715668331456014,814.0,65.2344,0.08014054054054054,88.0,1.6544367591100084,759.2,870.0000000000001,19.587628865979383,60.824742268041234,665.0,938.0,13.857142857142858,109.375,,,0.03911400297665413,0.011164235697333706,0.0002706445070582952,0.05054888318104613,3.503509244792773,0.7737857003994177,0.22086018512709418,-4.495039851265273,27.186529777001503,85.1724408598083,0.3191939728691097,7274.493190821268,3.132891235418361,4.568772851661414,1067.3439738755285,0.38144329896907214,0.3894736842105263,0.6216216216216216,0.0,48.72492349540972,48.80299497062694,48.647323040559804,50.526315789473685,0.5151791243442548,0.4848208756557454,19.517468558892784,18.933679265433746,0.48310473490520756,0.5168952650947926,59.19973196321996,61.23509138966363,0.48607158762409264,0.5139284123759075,44.076863791928616,45.322293785877456,1.5074060643648748,1.9361616271887572,1.8128207903381868,2.1820379539468946,-0.8125690053191068,-1.1006286863575614,-0.30930457539084744,0.0017489614401156605,0.27414586966854393,0.7055555245250047,1.957744606702316,6.2132141308023145,1.070018006100268,1.1106628141225792,0.9039134182503404,1.3924457103197436,1.9590841009213673,1.7149980396129816,2.2084334226457387,0.816484062950985,Relax
74.33414859468752,807.3163265306123,62.858144489274785,,,,,,,37.619500317305004,37.812540647787074,0.07786061352110075,0.046598215694425855,805.5,67.4583,0.08374711359404097,89.25,1.67089259450796,756.8,860.6,18.367346938775512,60.204081632653065,665.0,938.0,12.25,109.375,,,0.030250257322634637,0.009951675887051722,0.00020994461883053694,0.0404118778285169,3.0397148848058557,0.7485486680672966,0.2462562103468812,-4.610014311135051,26.73750390594221,84.78240163588057,0.3153662008865138,7121.581494285219,3.1709168490121593,4.559546558370097,1075.3517833877193,0.41836734693877553,0.42105263157894735,0.65,0.0,50.70860698237124,50.76172530815663,50.65682397167489,46.31578947368421,0.5300742294776256,0.46992577052237444,19.46778856641572,18.3300186397432,0.5129674393507717,0.4870325606492282,60.722635721523936,59.16770350604179,0.5145150827441725,0.4854849172558276,45.09009470291431,43.79958174179408,1.3985197582773128,1.8344711858418439,1.7094183535236478,1.8862576313375143,-0.36784846632886925,-0.29536133110576657,-0.4036020411883905,0.0011756231133613422,0.2217263069036566,0.6793707262285595,1.7462970951512977,6.163029614457141,1.0503475390922539,1.0903479401246732,0.8141816522689638,1.2430630621036987,1.924426657023958,1.7014370423446026,2.343879065493134,0.8099644707079847,Relax
74.41506682058461,806.4183673469388,60.49826162099729,,,,,,,35.50911020029219,35.692477693731576,0.07502093710989301,0.044033111890934146,805.5,64.4931,0.0800659217877095,86.5,1.703739161013938,758.4,853.6,15.306122448979592,59.183673469387756,665.0,938.0,10.88888888888889,109.375,,,0.024279843940866415,0.008835428550550221,0.000168428759285414,0.03328370125070205,2.748009765678474,0.7294814887918838,0.26545811368751715,-4.728985668382303,25.238393014587174,82.0430926445809,0.30762361828463103,6505.094268735791,3.250725693872902,4.520223704494311,1066.798357058136,0.4387755102040816,0.4421052631578947,0.6666666666666666,0.0,49.51175406871609,49.530550750003286,49.494429811936854,45.26315789473684,0.4878461576197601,0.5121538423802401,17.628545742630045,18.062391868188442,0.5289838773214444,0.4710161226785557,59.670989642798226,56.3066785180617,0.5254272718560763,0.4745727281439236,43.99654889847005,41.81322784560139,1.337693475302047,1.7483630123464104,1.6577103363041634,1.8139909491384354,-0.24595229981402866,-0.2746729874144851,-0.41061317830984434,0.0011042727431554726,0.20811709829780273,0.7143829184671606,1.8123787564307907,6.203845940987754,1.061955090254113,1.085951355463421,0.7035634672135429,1.4330404103913765,1.877890367917494,1.6950621778769346,2.4183552801644086,0.8774615099336501,Relax
73.83731818414003,812.9690721649484,56.76384809164915,,,,,,,35.92164505327301,36.08942201780111,0.06982288753062425,0.04418574615343379,810.0,62.2692,0.07687555555555556,82.0,1.5802129331066674,762.0,860.8,16.49484536082474,57.73195876288659,692.0,938.0,10.777777777777779,85.9375,,,0.01475127232382776,0.007386100052748076,0.0002119825455486067,0.02234935492212444,1.997166599217593,0.6600312346923686,0.33048381389461523,-4.9081554163738055,25.51907503789026,75.54937062157293,0.33778011422114157,6056.8337385666755,2.960505837668434,4.489215762308587,894.657411029371,0.4639175257731959,0.4623655913978495,0.6744186046511628,0.0,52.11879753712424,52.304086284901445,51.94407688755241,41.935483870967744,0.50856912209889,0.4914308779011101,18.209164841104773,17.899720668211557,0.6080260063968501,0.3919739936031499,58.91039413298627,47.29981886235936,0.5978300122261024,0.4021699877738977,43.60050585207876,35.76082258849764,1.336369600427435,2.5820783777875405,1.7300827373583005,2.4325033589050644,-0.9759062516669275,-1.5664541121634432,-0.2279630906678229,0.012673204270061252,0.7882566223412576,0.6730958686743089,1.9218125974762528,6.171977017400252,1.0928087159437319,0.0,1.0469219081196914,1.5840461766055727,1.8666124315526216,1.695472641327685,2.130624689684232,0.9525647401094823,Relax
74.09552171000843,810.1546391752578,55.376615891808214,,,,,,,33.844928226643745,34.022361067856224,0.0683531429853712,0.04177588646668503,803.0,60.7866,0.07569937733499377,84.0,1.6361865364575978,761.2,853.0,12.371134020618557,57.73195876288659,692.0,938.0,10.777777777777779,85.9375,,,0.03811229850851584,0.01500365844484029,0.0002718952860566457,0.05338785223941278,2.5402003550422427,0.713875852087191,0.28103131734084,-4.199461211295114,24.057442223058324,74.58222237729873,0.32256268928747966,5636.826198584218,3.100172565552873,4.4580047542977725,924.8710387682604,0.4639175257731959,0.46808510638297873,0.7045454545454546,0.0,49.77341389728097,49.75959581823651,49.7870591454859,43.61702127659575,0.46263390502518964,0.5373660949748105,16.36330940662194,17.635490532326838,0.5964330683386376,0.40356693166136237,57.59916363382189,47.37978728762986,0.5838235183840151,0.4161764816159849,42.34041536199564,35.74811022793262,1.4142949046952453,2.705479704625318,1.7905624082131442,2.5608408634074227,-1.2955823542256173,-1.8286879239781886,-0.2152895089630864,0.012013687330008058,0.8253879608233834,0.7301874881557571,1.9252908618525775,6.151358460699221,1.1145252823798995,0.8573611144534631,1.047356691166732,1.6202095226279205,1.8672222630968907,1.652775022136982,2.485920285254628,0.8845244015302336,Relax
73.99387502429049,810.7731958762887,54.90019451138872,,,,,,,33.52346814795072,33.6941594579676,0.06771338123980807,0.04134752890013631,810.0,59.303999999999995,0.0732148148148148,80.0,1.6376645241206866,761.2,852.8,12.371134020618557,56.70103092783505,692.0,938.0,12.125,109.375,,,0.04392586542697902,0.016233686980891,0.000192678016333976,0.060352230424204,2.7058465201826944,0.7278250549852545,0.2689823866787954,-4.120666752528505,23.825368639109737,73.67594073658681,0.32338058260148245,5514.614921098768,3.0923316173016744,4.448485301537499,911.3217638967674,0.4845360824742268,0.49473684210526314,0.723404255319149,0.0,48.912628767645934,48.987433461578405,48.837135876947706,44.21052631578947,0.451527987616673,0.5484720123833269,16.01216642694581,17.647573263915444,0.5894757583617029,0.41052424163829737,56.566416223651075,47.205770823424935,0.5764119226306889,0.42358807736931114,41.57011497501268,35.63580812286274,1.335118665231464,2.483341206402094,1.6896065540557688,2.301509483464351,-0.8787064377304166,-1.2126136975166864,-0.2535969169959059,0.010349777755308815,0.6663830742078245,0.6793173614190056,2.0088239744658827,6.102339001914031,1.0966976022418213,0.5658530559309622,1.2673276976352366,1.7221135400227914,1.8504181692197275,1.6605808899086807,2.2478106147093526,0.8845244015302336,Relax
74.68420613563622,803.5,49.37991786809486,,,,,,,32.99640717711458,33.164683970853666,0.06145602721604836,0.04106584589559997,801.5,52.632299999999994,0.06566724890829694,67.75,1.4965240792137953,761.4,844.8000000000001,11.224489795918368,55.10204081632652,692.0,924.0,10.88888888888889,78.125,,,0.05124029132457557,0.019838813301924427,0.00020568702693216814,0.07128479165343217,2.582830461921082,0.7188109852897141,0.27830358820960716,-3.920114992325371,23.450972931699418,66.06536955261592,0.35496619621604547,4867.260680073749,2.8171696647738345,4.394254716711939,744.4694199828099,0.5,0.5104166666666666,0.7551020408163265,0.0,49.15837796480489,49.14312796165411,49.176131384745865,43.75,0.46074235394375535,0.5392576460562446,15.919556892912148,17.222653444422164,0.6021657864347028,0.39783421356529747,51.266292001034195,41.67013749183471,0.586337660827851,0.41366233917214873,37.95829940343725,31.882755137025683,1.3368294849967948,2.3791396078611564,1.6267675919282756,2.289346812608638,-0.9784804033905541,-1.363573256668122,-0.22150469081718993,0.010214724625666262,0.6295481277796697,0.6815127000150589,2.120263536200091,6.101805124661224,1.1636798816621456,1.5243003084731017,1.354025100551105,1.6925364267837084,1.9257636185260916,1.6483585916455938,3.029419068038344,0.8774615099336501,Relax
75.34042425141153,796.3877551020408,45.6728917892552,,,,,,,32.39893087201311,32.555041944585874,0.05735006784905069,0.040682356885135496,795.0,48.925799999999995,0.06154188679245282,68.25,1.4097036710772584,759.4,834.2,10.204081632653061,54.08163265306123,692.0,917.0,9.8,78.125,,,0.04997559852737452,0.017808551558290617,0.0002447406851325648,0.06802889077079771,2.8062696937364797,0.7346231573251992,0.26177924344365716,-4.02807651242799,23.01989092082916,59.88450008571052,0.38440482742415183,4330.794360013942,2.601424146259748,4.343537672488333,623.1399380386453,0.5,0.5052631578947369,0.75,0.0,48.322932917316685,48.423684833711164,48.22003700022607,44.21052631578947,0.43626988803771366,0.5637301119622864,15.210502128463741,17.29026098704123,0.5969067896976256,0.4030932103023744,46.26661089619132,38.02044274723657,0.5762123979535875,0.42378760204641264,34.43805060408885,29.533939727844423,1.3449895156698308,2.4533429942580303,1.6740474842990023,2.208528898479707,-0.8529959027158185,-0.9257512507829739,-0.2821415858150934,0.008381222371180037,0.5884532372102049,0.6791914464317883,2.0541237336955462,6.0813969613959165,1.2022325367140403,0.788184005590914,1.1686196186243765,1.8876800942839473,1.9999701407901722,1.6544689453753119,2.2550051087036147,0.8099644707079847,Relax
75.61823575525779,793.6161616161617,42.55793340049012,,,,,,,32.026615207240575,32.19100141763448,0.0536253360992837,0.04035529611949924,793.0,45.9606,0.057957881462799496,60.0,1.3288301971689043,759.6,832.4,10.1010101010101,51.515151515151516,692.0,917.0,9.9,78.125,,,0.043792734427536666,0.012931645749346687,0.00022202060129993253,0.05694640077818328,3.3864780459013963,0.7690167214977718,0.22708451408049174,-4.348077812832642,22.762475395595104,56.04119049958684,0.4061740158029462,4007.5293770491216,2.461998948955775,4.309846824579631,551.8934084328528,0.494949494949495,0.5,0.7291666666666666,0.0,49.745197961583685,49.74842526263304,49.742548063758534,43.75,0.45055163700394957,0.5494483629960505,15.279020047380245,16.87278049550472,0.6217010619428344,0.37829893805716536,44.18737037806026,34.4687007542075,0.5974635163616225,0.40253648363837746,33.06033994483514,27.136525692621273,1.337401026100916,1.5997476593907587,1.5663146931422514,1.7936581245101375,-0.4823546615689853,-0.6219482916577732,-0.35788794249308875,0.0007469084933906257,0.1569436984053517,0.6075809995747843,2.197224577336219,6.050728210835727,1.2534188275941816,0.9678002527269727,0.7225929394740411,1.0357836815978831,1.9555806026438396,1.6605564126855872,3.086150874168696,0.9374847745567124,Relax
75.75801036542232,792.03,42.60920728498179,,,,,,,31.76094418869779,31.91250148420176,0.053797466364887435,0.04010068329318055,792.0,44.477999999999994,0.0561590909090909,60.25,1.3415598425485218,757.8,832.0,10.0,50.0,692.0,917.0,8.333333333333334,78.125,,,0.045349532844391964,0.0162681568881844,0.00018870299955532548,0.06180639273213169,2.7876257375738387,0.7337353118299008,0.2632115573981228,-4.118545647008717,22.565546204104827,55.840270847110915,0.40410882436241496,3958.6147541853366,2.4745809537264023,4.304513348952593,552.7250827567373,0.49,0.49484536082474223,0.7291666666666666,0.0,48.44549390003935,48.47865334063021,48.41487744487377,45.36082474226804,0.4397348473469715,0.5602651526530286,14.968504349098462,16.895839362254307,0.6087600106395429,0.3912399893604572,43.56829595214489,34.92763141275143,0.5850194725756495,0.4149805274243505,32.57493311292184,27.435459025320885,1.3553141813164646,1.5450364275051887,1.602261780826821,1.820298313402476,-0.3641632162046875,-0.6175754128497353,-0.35887935799175663,0.0007747305872576274,0.15582137532078844,0.6150760271304088,2.05127066471314,6.10611181466655,1.2174866399582935,0.8745474119123663,1.1725819985820995,1.2966912201605725,1.915517277317238,1.6514728543234534,2.5110209606100238,0.9301398665684615,Relax
75.93815495136236,790.4747474747475,43.063394994542506,,,,,,,32.12173909440427,32.28675855571329,0.05447788829701762,0.04063600917931971,790.0,44.477999999999994,0.0563012658227848,60.5,1.3406308689570396,754.2,829.0,9.090909090909092,51.515151515151516,692.0,917.0,8.25,78.125,,,0.04637318508718371,0.0171604045665156,0.00013075668733508142,0.06366434634103439,2.702336352702886,0.7284011813892481,0.26954497380042974,-4.065150609062961,22.83018591727765,56.593824597188565,0.40340418905725967,4059.0870513446557,2.478903360763214,4.31539847527593,561.1624879696583,0.48484848484848486,0.48958333333333337,0.723404255319149,0.0,49.82442450253609,49.81935111785217,49.82945106511952,43.75,0.45728215829187974,0.5427178417081203,15.438437771508562,16.818926501408875,0.6120256352229817,0.3879743647770182,44.274518939998906,35.250928429887104,0.5903677779027721,0.40963222209722805,33.15553036970653,27.617967374779926,1.3615226931880777,2.5919371180853137,1.6835029543672881,2.4338313675941246,-1.4071982564379333,-1.8493603031578276,-0.21051442259482342,0.009710487887221775,0.7025286490159284,0.6338967267744033,2.12525107771113,6.058353337120208,1.2415576536097601,1.4225963207583479,1.1525394318747826,1.2674225142193927,1.8828270807543146,1.6832240109662904,2.5766077305655943,0.8705215763740901,Relax
75.52088410750862,794.54,40.359100209208954,,,,,,,31.66204112947945,31.82083359094468,0.05079555492386659,0.039849524415988435,792.0,44.477999999999994,0.0561590909090909,58.75,1.2746840939332862,759.6,832.0,8.0,53.0,718.0,917.0,7.6923076923076925,54.6875,,,0.041468653820258196,0.01649072100958396,7.55099149378823e-05,0.05803488474478004,2.5146659018825037,0.714547017757076,0.28415186972637557,-4.104957419316531,22.500727215165657,52.4242727201145,0.4292043751430513,3705.773245282304,2.32989237275763,4.275848951459644,488.57165263184277,0.5,0.5051546391752577,0.7346938775510204,0.0,49.26070038910505,49.29464943107418,49.22721155392708,43.29896907216495,0.43522157064264555,0.5647784293573546,14.845118760737758,16.910931134527594,0.6026811462940835,0.3973188537059163,40.69829515123488,33.0447142825583,0.5766279447768468,0.4233720552231535,30.632733955994173,26.24816882996457,1.30421145346386,2.309099486040136,1.5740052933164843,2.257518519073562,-1.0510070228669974,-1.5251067199347856,-0.2039914348042096,0.009130140453086874,0.5908694214625444,0.6790518182879941,2.0412203288596382,6.058562939644916,1.2770399210539154,1.5214206565012216,1.4486909998121267,1.579933976483991,1.9825190747268004,1.6721631528145187,2.8125216741044583,0.8637013046707142,Relax
75.39016273989344,796.0808080808081,39.00828712782022,,,,,,,31.562054199720944,31.720819558071394,0.04900041143041924,0.0396467970077193,793.0,41.5128,0.05234905422446406,57.5,1.2359235834581739,762.0,832.4,8.080808080808081,51.515151515151516,726.0,917.0,7.615384615384615,46.875,,,0.04829657912891953,0.02190850368598011,0.00014105912968038152,0.07034614194458001,2.204467261715638,0.6865561890653288,0.3114385960674294,-3.8208804213636527,22.430006614307146,50.376079853617554,0.44525113267018984,3549.7980218782363,2.245923539830113,4.257173753022742,452.5632943504047,0.5050505050505051,0.5104166666666666,0.7755102040816326,0.0,50.91487669053302,50.96656188458052,50.86366562145043,42.70833333333333,0.44829140375317555,0.5517085962468247,15.01957485636592,16.662198713836702,0.597196199265123,0.4028038007348768,38.92986397559238,31.972098965503125,0.5725555583219126,0.42744444167808726,29.505270190460084,25.493567602821965,1.2223202655673293,0.9404206952093297,1.3554201573485964,1.4995381094964992,-0.11150476486975869,-0.6174255860317981,-0.3467516156523721,0.00011276096498759332,0.04568259069333111,0.6039865864436234,2.12525107771113,5.91426583705465,1.3022984563334272,1.0511731548477414,1.0270701199736034,1.441291940809978,2.0190464573713665,1.6862251532144603,2.37380210220608,0.8705215763740901,Relax
75.70144349645004,793.3838383838383,42.96527004470506,,,,,,,32.53600830978954,32.68783941102294,0.05415445584602204,0.041009164462017494,791.0,42.9954,0.05435575221238938,60.0,1.3205452136480287,758.8,832.4,9.090909090909092,52.52525252525253,682.0,917.0,8.25,125.0,,,0.04490092648639132,0.022055169494813214,0.0001363843381895385,0.06709248031939406,2.0358459043786,0.6692393286496526,0.3287278900678508,-3.814208260357815,23.113792909871204,55.79897645294111,0.4142332777262422,4051.793683754386,2.414098658343134,4.314617433054719,538.8169367678611,0.5050505050505051,0.5104166666666666,0.7755102040816326,0.027777777777777776,48.11683320522675,48.01052709511214,48.21897546142896,44.79166666666667,0.41381504115980033,0.5861849588401997,14.875774258633209,17.704912242814792,0.540622659405073,0.459377340594927,41.02733946567082,37.81908499110582,0.5220356180213372,0.47796438197866264,30.85880136545492,29.52750503420716,1.1869185758920606,1.2531436973253127,1.3499664447417388,1.5795650887524784,-0.5508914830575016,-0.9396509055351112,-0.3167818706659174,0.0002422020541226075,0.08320967594439162,0.6422982853072088,2.1832383353614793,5.990122150229668,1.2384137204623213,1.3034669775689092,1.3687566953106192,1.6721775334483717,1.9716662854363716,1.6876950990564321,3.0229444649097097,0.8705215763740901,Relax
75.29656554233884,796.8181818181819,49.451968788599764,,,,,,,36.33362978097873,36.507435785912556,0.062061797681072145,0.04559839447698415,791.0,42.9954,0.05435575221238938,60.0,1.3610522561797198,758.8,833.0,12.121212121212121,53.535353535353536,682.0,948.0,8.25,125.0,,,0.046224344740833374,0.02536047396970202,0.00015215031591553932,0.07173696902645094,1.8226924621384155,0.6443587646390452,0.3535202882679791,-3.6745634599307415,25.814655407951204,63.27808284855039,0.40795571303473177,5131.797580009623,2.451246466340977,4.417239627575322,620.4407079173629,0.494949494949495,0.5,0.7291666666666666,0.029411764705882353,51.69099323602704,51.50186560723985,51.89780699643216,43.75,0.5192737279030402,0.4807262720969601,18.608832843405693,17.904817067672155,0.6126207235680028,0.38737927643199715,49.52781339457137,39.384152515199865,0.5992936862311149,0.40070631376888527,37.411849456029955,30.591616037464643,1.170783569221823,1.4823341231022855,1.3410631132284705,1.5517878729618468,-0.7254634547691037,-0.7514267003220718,-0.3578426034662391,0.00028644969890911904,0.10582271621055574,0.6852107430558902,1.9965538818740682,6.030526190633707,1.1627847976665286,1.629490716896785,1.2908757095224266,1.641170206225134,1.8710191806531284,1.6939231967739976,2.567103186274499,0.9374847745567124,Relax
74.90223983365607,801.1632653061224,50.35291817371958,,,,,,,36.01002151463584,36.19608503919932,0.06284975903691722,0.0449471700389015,801.0,48.1845,0.06015543071161049,66.5,1.3983029183488336,762.0,838.6,11.224489795918368,53.06122448979592,682.0,948.0,8.166666666666666,125.0,,,0.04641346539628952,0.02634586884094011,0.00017325950333675914,0.07293259374056639,1.7616980360945778,0.6363885200818457,0.3612358684877825,-3.6364437965160477,25.594497183622774,66.81847540537183,0.3830452135932021,5372.705513737339,2.6106578662591255,4.437163146833512,697.7607137139034,0.5,0.5052631578947369,0.75,0.02857142857142857,49.527272727272724,49.521035695159625,49.53524884785104,45.26315789473684,0.5019796155252738,0.49802038447472613,18.134336675673215,18.062680218247422,0.546102223483072,0.45389777651692775,49.37800445513902,45.01690050999238,0.5404564496781058,0.45954355032189415,37.19570869494488,34.29855498554727,1.3362530588442083,3.3123285588486686,1.6254030992079804,2.623947276457962,-2.341675053264453,-2.320009597371235,-0.19853709874811895,0.015638757323475246,1.0748569884381993,0.7352467137762275,1.7346010553881066,6.037879997043974,1.1655760785553497,1.2773485120648436,1.0897469201460257,1.583499677019968,1.805291403948248,1.6485900536620772,2.9175272675850805,0.8774615099336501,Relax
75.26841910221904,797.4795918367347,49.56870262821145,,,,,,,35.57176570630023,35.75654182810685,0.062156703614253093,0.04460523638526254,792.0,44.477999999999994,0.0561590909090909,57.75,1.393484457237167,762.0,836.8000000000001,10.204081632653061,52.04081632653062,682.0,948.0,8.166666666666666,125.0,,,0.04724800856766564,0.023472660974288077,0.0004285931428425726,0.0711492626847963,2.012895283556519,0.6640688432286727,0.3299072975397662,-3.751918897860069,25.283693198434786,65.67233156483415,0.38499764811111953,5216.423224607047,2.5974184645184537,4.42434292977441,682.3141064579131,0.4897959183673469,0.5,0.7291666666666666,0.027777777777777776,50.05508630187294,50.05288879799403,50.05702861147384,44.79166666666667,0.49476531501804644,0.5052346849819536,17.784444279575712,17.97162114742759,0.5544318511865779,0.4455681488134219,48.89973676185049,43.836866651064824,0.5467295419340221,0.4532704580659779,36.793142796665286,33.5011197159879,1.371375149207534,2.3253094503496996,1.3782573634578181,2.4637117357860934,-1.996278205098866,-2.725640788609649,-0.033200034014812314,0.008246787188451087,0.5824372960987924,0.6634169183741627,1.710790406694388,5.997063670513361,1.1539750970123672,1.2357681707704224,1.0615464995539334,1.6614456437467078,1.763004701193277,1.6272573460912632,2.4844045202736753,0.8774615099336501,Relax
75.21497582524758,798.0,49.23102555859486,,,,,,,36.374189099594524,36.560738036149495,0.06169301448445471,0.04558169060099564,793.0,41.5128,0.05234905422446406,57.5,1.3534604283217864,762.0,836.2,12.121212121212121,54.54545454545454,682.0,948.0,8.25,125.0,,,0.048933887247093924,0.021200471565519456,0.0005069019523761839,0.07064126076498956,2.308150886920847,0.6927097098378233,0.3001145695296905,-3.8537318538949785,25.852345790546245,64.72107205620404,0.3994424840196708,5256.486233562201,2.5034893382816894,4.427665641320585,648.1140554194711,0.494949494949495,0.5051546391752577,0.7755102040816326,0.027777777777777776,50.315568022440395,50.33198013603243,50.299154157204875,45.36082474226804,0.492889204238713,0.5071107957612869,18.15014697052193,18.410132799377674,0.5473506298648372,0.45264937013516277,47.88268701055281,43.54383369380552,0.5398565904448851,0.46014340955511474,36.208973683343395,33.42901765266603,1.3240499132351418,2.6320494915967467,1.4983518044380606,2.445040859512598,-2.274688004584375,-2.6626434561991807,-0.1403224718619468,0.008527455916722795,0.6561360022296475,0.67896270592207,1.8152899666382492,5.9824970239451885,1.1714443438227027,1.5456447137457743,1.1543922705115237,1.5577211450062531,1.7951427162550966,1.6748238979390737,2.3664844236721967,1.0044479727393347,Relax
75.3713302905637,795.989898989899,48.55808534148056,,,,,,,35.400622616454825,35.56900642959241,0.06100339389117897,0.04447370834903529,791.0,38.547599999999996,0.04873274336283185,53.5,1.3716732009936436,762.0,828.2,12.121212121212121,50.505050505050505,682.0,948.0,9.0,85.9375,,,0.04379515249897169,0.01920286259187689,0.0004790509638581067,0.06347706605470668,2.280657495174585,0.6899366215386757,0.30251654314531823,-3.9526959177347853,25.1510856464327,63.03012247452972,0.3990327903391934,4980.291462724813,2.5060597129122173,4.404224869779549,631.8290025333673,0.48484848484848486,0.49484536082474223,0.75,0.027777777777777776,48.25200291332848,48.38741348603506,48.109692289192814,46.391752577319586,0.4676095559138209,0.5323904440861792,17.20539953607228,18.358542493189017,0.5158300219565289,0.48416997804347117,45.26905811760101,43.85782388923874,0.5092022586987334,0.4907977413012668,34.24407537115446,33.619524080314605,1.2894428944819238,2.7946568357922246,1.485363926863819,2.388203652667327,-2.381320195866028,-2.5197815070320173,-0.17694075557309968,0.008047601558624265,0.66935327831484,0.6990219055661013,1.684339220607218,6.010324170431688,1.1479702048053295,1.5403573371255603,1.2490254288650737,1.5468306184908165,1.7582654301980927,1.6728266663728293,2.155955277263595,1.0044479727393347,Relax
75.40726830689665,795.7373737373738,47.48331304281706,,,,,,,34.75790909847655,34.92573498185432,0.05967209108175999,0.04368012644074715,791.0,40.0302,0.0506070796460177,55.5,1.366115346820395,762.0,829.4000000000001,10.1010101010101,50.505050505050505,682.0,948.0,9.0,109.375,,,0.04473414618574364,0.02320415250468877,0.0007663708648092971,0.06870466955524171,1.9278508955112406,0.6511077991543985,0.33773763348110664,-3.7634240290551157,24.696224043593407,62.49529542571303,0.39516933035302376,4848.727245036984,2.5305607576039666,4.392597864440889,632.5925685567044,0.48484848484848486,0.49484536082474223,0.75,0.02702702702702703,51.572327044025165,51.598405248075274,51.54292048725121,44.329896907216494,0.5064909835719414,0.4935090164280587,17.581327958476432,17.354550192129267,0.5519500374553952,0.4480499625446048,46.429842340699594,41.83218486482541,0.5458067146410754,0.4541932853589245,35.105792631457035,32.02430407468726,1.2362336551943505,2.9614746574467157,1.4672595445867385,2.2283693143653447,-2.2128755224691865,-1.879410342085384,-0.24299635897110475,0.007481798488956301,0.66504672173942,0.6739380519926721,1.866660777401173,5.969920130027647,1.1711817100260862,1.4733357411785732,1.3410078285677893,1.5545887255725492,1.7670776422133117,1.6578789833652439,2.28025461845421,1.1383743691045793,Relax
75.06376957154696,799.3571428571429,47.98029019735792,,,,,,,34.791277494376686,34.97200647823059,0.06002359599347787,0.04352407156833827,798.0,41.5128,0.05202105263157895,55.5,1.379089635472942,762.0,836.8000000000001,11.224489795918368,48.97959183673469,682.0,948.0,8.909090909090908,101.5625,,,0.054402720192078806,0.028311153138160076,0.0009801354393768906,0.08369400876961577,1.921600293940355,0.6500192904110137,0.33826977049327506,-3.5644994481495478,24.728942932456718,63.457033519482955,0.3896958549892549,4929.8668645818425,2.566103763222149,4.399805300890505,651.3493300690371,0.4897959183673469,0.5,0.75,0.02702702702702703,50.037850113550356,50.03331272661601,50.04220034680428,44.79166666666667,0.48533369672605875,0.5146663032739411,17.227642516219877,17.740607843776566,0.5505752527851567,0.4494247472148431,47.08560004714117,42.54105512670604,0.5419737320444278,0.45802626795557216,35.45310563593835,32.59195098456143,1.2923176044951372,1.6535604735722185,1.5384063852263292,2.1190978412812465,-1.4797048701313535,-2.564604672386799,-0.14882357474327002,0.0063758942443691196,0.36041659028276374,0.6493345539270075,1.8268507890393253,6.017471833778668,1.1368253218748305,1.0061783821388368,1.3649369700011682,1.5135388292553098,1.7728052672696921,1.6483449537457076,2.770459066619058,1.0124555883849808,Relax
75.00079280012987,799.8979591836735,48.498377015233395,,,,,,,35.506497154833305,35.68571046331399,0.06063070477730415,0.04438878327814343,794.5,42.9954,0.05411629955947136,54.5,1.3659014800515623,762.0,838.6,13.26530612244898,52.04081632653062,682.0,948.0,8.166666666666666,125.0,,,0.04888680355190413,0.022679279356179794,0.0007765636384821513,0.07234264654656608,2.1555712941374017,0.6757674191589921,0.3134980601184036,-3.7863035750462837,25.233607860069057,63.9713494316789,0.39445170508742244,5071.246655865376,2.5351646021618026,4.412084844287248,648.7116025268635,0.4897959183673469,0.5,0.75,0.02702702702702703,51.0865561694291,51.06589761118838,51.10390727608625,44.79166666666667,0.49799246048295426,0.5020075395170456,17.809612339033848,17.881263471391872,0.5424799574393601,0.45752004256064005,47.116970711266646,43.270366523795545,0.536488515353769,0.4635114846462311,35.61734984998902,33.10637553732619,1.2993198908703205,1.7974090606930753,1.536719568735516,2.198024421216858,-1.793112396338234,-2.868515167377181,-0.1320788256033687,0.006272401492646035,0.3895755138120739,0.5902899027311475,1.666596326274049,5.997063670513361,1.143604350484487,0.9425967288063872,1.4288429916969154,1.7025404994167879,1.7626560375681004,1.6714018021272221,2.6147658667460174,1.0799526276106464,Relax
74.70183101821002,803.3571428571429,49.647676205209436,,,,,,,36.15003101337592,36.33546034790475,0.06180025490112315,0.04499870491573423,803.0,45.2193,0.05631295143212951,63.0,1.373378523156432,762.0,841.0,14.285714285714285,54.08163265306123,682.0,948.0,8.909090909090908,125.0,,,0.03692882305675523,0.01787244807080907,0.0005228046582064673,0.055324075785770775,2.066243130792518,0.6675000446415634,0.3230500973936888,-4.024494965863419,25.693050409538355,65.6530691893856,0.3913457623043197,5299.325247001054,2.5552851118453566,4.4311906851928615,671.0492409863606,0.4897959183673469,0.5,0.75,0.02702702702702703,50.72254335260116,50.73135007963272,50.71135110481131,44.79166666666667,0.491677316545968,0.5083226834540319,18.017063671234926,18.3195023585977,0.5464403763650485,0.45355962363495156,48.5318028223732,44.21526443205493,0.5391664045170617,0.46083359548293834,36.605672159673865,33.84223526499992,1.2668959067324632,1.8124698522648126,1.2888272975337072,2.0472690429731872,-1.387236122943568,-1.9186060320129563,-0.0815424215240038,0.005098846653145899,0.33411287535851397,0.5048828923798601,1.5178707189086098,6.0532858644350656,1.124120856414097,0.726041270007125,1.3232176045240736,1.5624663631357805,1.8026488972476513,1.6829556183619263,2.5224244685892963,1.0124555883849808,Relax
74.75388335838412,802.8571428571429,49.73849139020197,,,,,,,35.86932181436778,36.03860330028137,0.06195185760345441,0.04467709122786022,801.5,48.925799999999995,0.061042794759825325,65.5,1.3866582604379984,762.0,841.0,15.306122448979592,52.04081632653062,682.0,948.0,8.909090909090908,125.0,,,0.040145633345627714,0.024061110301330343,0.0007187629047684516,0.0649255065517265,1.6684863184974492,0.6183337716994702,0.3705956499878938,-3.7271584223128906,25.483140778120852,65.4581970300072,0.3893040434101619,5240.42928730936,2.568686395446509,4.426336975089237,672.5663207257463,0.47959183673469385,0.49484536082474223,0.7708333333333334,0.02631578947368421,48.036697247706435,47.984790311730734,48.09136984896703,46.391752577319586,0.4671677310277962,0.5328322689722036,17.425884721681516,18.61031300112924,0.5316390298497796,0.4683609701502204,47.7279155317101,44.79756285131133,0.5231469241204543,0.47685307587954584,35.927812202633405,34.30135119362785,1.2262872728346947,2.743920745279376,1.2351270245255073,2.437291123197212,-2.522674772578238,-2.951643680747618,-0.06188089588961331,0.010752309757214489,0.7610677078225195,0.5204304316183572,1.3375041969504584,6.101805124661222,1.1247723515599422,0.7009603164359712,1.0856616637247811,1.5580191928621934,1.7442797187455927,1.6490666295882193,2.6391678095272084,1.0124555883849808,Relax
75.16411588212041,798.4141414141415,50.773810158188816,,,,,,,35.70228369760805,35.8851347945294,0.06359332522374773,0.044716497173224665,791.0,47.4432,0.0599787610619469,65.5,1.422144605320878,755.4,838.4,14.14141414141414,54.54545454545454,682.0,948.0,9.9,125.0,,,0.05268204318735556,0.027475993299255715,0.0010794343724896565,0.08123747085910092,1.917384482284855,0.6484943786436658,0.33821822625313325,-3.5944426265067975,25.37462215700506,67.54612702625207,0.3756636135058212,5384.556138072893,2.6619559735042166,4.438120019131434,719.2192652984251,0.47474747474747475,0.489795918367347,0.7708333333333334,0.02631578947368421,49.60116026105874,49.594404253105346,49.609359147047186,44.89795918367347,0.4843574882320922,0.5156425117679081,17.660019497718395,18.221432944658908,0.5576545088226014,0.44234549117739885,50.44092722986547,44.92429338829935,0.5485895232734742,0.451410476726526,37.789968433887175,34.279824642161586,1.2390420186426083,2.3825546870901775,1.278177962753489,2.2750605951824836,-1.8779497486897707,-2.26780930605313,-0.08159087057662007,0.01030287415163599,0.6240301805357263,0.597598804352784,1.3062516534463542,6.101430736175668,1.1021621577842682,1.047015722738116,1.0925045068137402,1.6293844384770806,1.7276714051988407,1.6618750592311187,2.8327912528363544,0.8705215763740901,Relax
75.20809289244033,798.2020202020202,50.7082450724349,,,,,,,35.27457892544356,35.45593894037342,0.06352808410532579,0.04419254528636219,791.0,47.4432,0.0599787610619469,65.5,1.4375294225230009,757.8,838.4,14.14141414141414,52.52525252525253,682.0,948.0,11.0,125.0,,,0.051314941609243214,0.019514581815172866,0.000959546401388788,0.07178906982580487,2.6295691137662565,0.7148015949190897,0.2718322143262855,-3.9365933074711483,25.071134858074217,67.10049152241709,0.3736356364796284,5285.055680081015,2.676404235479082,4.43001967708765,718.3521588533013,0.47474747474747475,0.489795918367347,0.7916666666666666,0.02564102564102564,50.01834862385321,50.01605227419718,50.02062255938494,45.91836734693878,0.49245946810342706,0.5075405318965729,17.593784047594824,17.861148298939266,0.547747142761414,0.45225285723858616,49.661034462027594,45.12491128757237,0.5409742978497459,0.45902570215025434,37.25425868912234,34.31674691217086,1.2628448687241565,2.373384422726337,1.3125565087102786,2.3907408188014587,-2.109106356509205,-2.7779019653414165,-0.04571863716344109,0.00925500635698612,0.6269656455396966,0.6447336969651163,1.47962630091211,6.162036796781728,1.1043796316862033,1.2701876545856108,1.1444326537616227,1.3742658906023588,1.7060945262313794,1.6588303529229642,2.2894845828010317,0.8705215763740901,Relax
75.29349418866732,797.1414141414141,51.267408213391995,,,,,,,34.56198218049564,34.73619132240591,0.06431406937828107,0.043357403802337505,790.0,48.925799999999995,0.06193139240506328,66.0,1.4833468736154758,754.8,838.4,14.14141414141414,52.52525252525253,682.0,948.0,12.375,109.375,,,0.029806092969075316,0.013142710374894697,0.0004626941517047223,0.04341149749567474,2.267880225528757,0.6865944436043704,0.30274722442376373,-4.33188801817834,24.56219643666652,68.52435792377757,0.35844475133919607,5287.642052840456,2.7898302214326485,4.430232157850526,764.6852985600898,0.46464646464646464,0.47959183673469385,0.7659574468085106,0.02564102564102564,50.90225563909774,50.90292176197746,50.89815691865489,44.89795918367347,0.501759721178159,0.4982402788218411,17.40037918771567,17.339246942589014,0.5559747215357848,0.4440252784642153,51.09430520523435,45.66135789111336,0.5498010100453438,0.45019898995465596,38.16674743989804,34.53700254072741,1.2879158941982913,1.475051119941745,1.3402983851882566,1.9051403265942555,-0.9626092059087714,-1.451871021972429,-0.11706958235569054,0.004341857719467637,0.2406672714831905,0.6011763084515156,1.2070929316621795,6.121632756377688,1.0964503528472538,1.1350324674816776,0.9205302311610961,1.3063718910485727,1.6886775952560105,1.6634553925067719,2.460179341455116,0.8035583781914678,Relax
75.43910300442184,795.5555555555555,51.285360568263336,,,,,,,34.667958505495754,34.83815636122661,0.0644648387031243,0.043577042814170644,785.0,47.4432,0.060437197452229294,65.0,1.4793302743838608,754.8,838.0,15.151515151515152,50.505050505050505,682.0,948.0,11.0,78.125,,,0.019276161398941175,0.013495261684045821,0.0006049220212567735,0.033376345104243775,1.4283651440215914,0.5775396119238421,0.40433611415199294,-4.305416641514861,24.634296607060595,68.41045669262668,0.3600954853692081,5294.348540018601,2.7770412033205414,4.430782638544837,759.9146278935991,0.47474747474747475,0.489795918367347,0.7916666666666666,0.025,48.63244660921692,48.62273304151888,48.64675158677678,46.93877551020408,0.4804088875304586,0.5195911124695415,17.078351884557932,17.761158827244294,0.5537136025461953,0.44628639745380444,50.90554436054873,45.70138004754293,0.545295898177686,0.45470410182231397,37.967384356422144,34.67041174500638,1.3037191602697529,1.5985324385847874,1.4685061420039685,2.096736222976062,-1.537684791624125,-2.537684791624125,-0.10699572569933068,0.00521053649750941,0.3131530008035014,0.6222772657333766,1.2294518896269209,6.081228715973646,1.09686506215271,1.1631861161426214,0.9718776760137701,1.3115176386468046,1.652610102958569,1.6781211347318206,2.6769028239851917,0.9374847745567124,Relax
75.20939135080232,797.8787878787879,52.90408585881233,,,,,,,35.14576062337986,35.32211784784869,0.06630591847097633,0.044048997363142245,790.0,50.4084,0.06380810126582279,72.5,1.5052764521368527,754.8,841.8,15.151515151515152,53.535353535353536,682.0,948.0,11.0,78.125,,,0.009999060983301849,0.013630811178729968,0.0005493166888199528,0.02417918885085177,0.7335631645242625,0.4135399679857171,0.5637414581113953,-4.295422520831099,24.97650905608419,70.69288886502285,0.3533100635309016,5546.989445117365,2.8303750818932927,4.451027449460304,800.34956444245,0.45454545454545453,0.4693877551020408,0.7608695652173914,0.0,50.98684210526314,50.95021891298077,51.02057876179374,45.91836734693878,0.5177196576677792,0.48228034233222095,17.973491362352984,17.34742026039381,0.5461524636589734,0.45384753634102654,52.24354975955467,47.62453196204041,0.5429964379412293,0.45700356205877074,39.06683301236256,35.84012440194739,1.2758932589054395,1.5192507924227645,1.668006245800641,1.9515294775252179,-1.3799602838275984,-2.3799602838275984,-0.3133795729193339,0.006222182813059913,0.3205714132015159,0.5897756472023765,1.2478246868547855,6.141834776579708,1.0607369649428544,1.1941570571028828,1.0545593627293617,1.372332508547278,1.6731811276604052,1.7095444292904878,2.760120150272731,0.8705215763740901,Relax
75.13552479163545,798.2020202020202,49.64218494878508,,,,,,,30.850197631093888,30.956224224218165,0.06219250727556532,0.03864961106373282,789.0,48.925799999999995,0.06200988593155893,71.0,1.6091366915183312,758.2,841.8,13.131313131313133,49.494949494949495,690.0,948.0,11.0,70.3125,,,0.0134240018648424,0.014630465682937762,0.0003881014056407129,0.028442568953420875,0.9175375654992065,0.4719686849252713,0.5143862253405247,-4.224649233770582,21.889356068875934,65.8069926202325,0.33262963702349774,4525.378430924504,3.0063466651630852,4.362625012528487,791.354531232991,0.45454545454545453,0.4693877551020408,0.7608695652173914,0.0,46.463022508038584,46.3522684078681,46.56755716287958,47.95918367346938,0.3985633108180551,0.6014366891819447,13.84263546803971,17.004547602781372,0.5435918225483349,0.45640817745166534,48.518626876910645,44.45788033294501,0.5290998274579092,0.4709001725420909,35.6768532155087,33.65752340022745,1.121317590421134,2.0169890493456437,1.3316308574270648,2.031324375919397,-1.1502568702278024,-1.8686228548934238,-0.15309999143558636,0.0059820136348948715,0.43335581656619815,0.5898597125021183,1.3454723665996353,6.162036796781728,1.0962015742080806,1.3145588911532498,1.0022530258734177,1.6321773860941622,1.6721715021950587,1.7081374539144896,2.368002879670272,0.8035583781914678,Relax
75.60493949993327,793.78,45.27170052788904,,,,,,,32.17345665500232,32.337132943040594,0.05703305768334934,0.040531956782738694,785.5,48.1845,0.061342457033736475,65.0,1.4071133547551289,756.8,838.2,15.0,51.0,687.0,900.0,11.11111111111111,78.125,,,0.01806049618439886,0.015614984491871285,0.00017526592052554595,0.03385074659679569,1.1566131361706211,0.5335331713513363,0.46128921993553307,-4.159524281403446,22.8658059881549,59.85670117309067,0.3820091241251783,4299.809008522563,2.617738522057698,4.340419275218843,626.7567698563826,0.45,0.4646464646464647,0.7608695652173914,0.0,49.883630721489524,49.89026609541574,49.87701655299021,47.474747474747474,0.47957610413942503,0.5204238958605749,15.834926522064562,16.495515779032996,0.5533937222983992,0.4466062777016007,44.52766200263018,40.00139987430689,0.5439932345561329,0.4560067654438669,33.417492286074214,30.595866001148963,1.0415703556520042,1.7112266088930133,1.2100725913465762,1.6411006778342392,-0.7132028254886364,-0.9949223877045932,-0.24811747067999743,0.0026124619430012495,0.2353176562922686,0.6087944334437503,1.3454723665996353,6.16120956470982,1.1518316825496298,1.124951913176034,1.0022530258734177,1.678890412676246,1.6822167892848965,1.738897340595301,2.6143833081606003,0.8637013046707142,Relax
75.7191209850579,792.58,45.82689872187127,,,,,,,32.97565676971331,33.140984920001074,0.05781990300268902,0.04160546161865466,784.0,45.9606,0.058623214285714285,65.25,1.389719059787196,755.4,840.6,16.0,52.0,687.0,900.0,9.090909090909092,109.375,,,0.02708350108335166,0.01844589159793263,8.856532487440994e-05,0.0456179580061587,1.468267388407894,0.5937026177211883,0.40435592481895666,-3.9929136109107706,23.434215172133868,60.67353865677718,0.3862345215217851,4466.831920252507,2.589100518669189,4.356969720933696,628.3595616230276,0.46,0.4747474747474748,0.7659574468085106,0.0,49.24642049736247,49.233199452718814,49.261277092934705,47.474747474747474,0.4602143945305242,0.5397856054694757,15.898754924938785,17.21843459191103,0.5546360264743005,0.4453639735256995,45.185944328416255,40.49084746315767,0.54237735366729,0.45762264633271,33.87137414553769,31.11256352408638,1.205579252491677,0.7595244289469156,1.3174567131806136,1.5608252173278425,-0.6351846144003961,-1.635184614400396,-0.1795777793682548,0.0005726069228273394,0.05094408254030455,0.6159022830946967,1.3862943611198906,6.153660689688183,1.1677622995397352,1.2097810934353441,1.016411278939701,1.6643492661636057,1.6648224011092374,1.723075602610292,3.2341167353488776,0.7972627427729669,Relax
75.35625492900076,796.3939393939394,47.67466665269165,,,,,,,32.352490993266464,32.51020814289929,0.05986317109466247,0.04062372827433482,789.0,48.925799999999995,0.06200988593155893,72.5,1.4736011104249807,756.6,845.8,14.14141414141414,50.505050505050505,687.0,900.0,11.0,78.125,,,0.036051205845552055,0.0194040248573701,0.00010837029129560604,0.05556360099421777,1.8579241219565314,0.6488277433513304,0.3492218738556809,-3.942274767556383,22.9881886356302,62.99586922361159,0.3649158098609735,4549.531723126289,2.740358112686273,4.364936807601718,690.5249651705901,0.43434343434343436,0.44897959183673475,0.7045454545454546,0.0,51.41857753595024,51.327415178742584,51.51231016086528,45.91836734693878,0.4820570314404095,0.5179429685595907,15.965006836796816,16.54858513901091,0.5856763741486688,0.41432362585133103,48.210421149626065,40.54916561181085,0.5734938629672214,0.4265061370327786,35.91048698307558,30.96845574061739,1.1536748251245683,1.2106238509613698,1.270361895528865,1.3248021617420673,-0.14465255191612592,0.10347454675822032,-0.45503122941946766,0.00019171278889965082,0.06153309445278586,0.6100137441041023,1.3166144404819007,6.114007630093209,1.1278441306182823,1.5512656840009127,1.0768888236201344,1.663058718888127,1.6952965325904885,1.710896807082771,2.866188450754637,0.7365951800088454,Relax
75.232867653612,797.929292929293,47.53500375668452,,,,,,,32.330089605158086,32.49454954377116,0.05957295236295673,0.04051748681449016,790.0,50.4084,0.06380810126582279,76.0,1.4703022582746128,757.0,845.8,14.14141414141414,49.494949494949495,687.0,900.0,12.375,78.125,,,0.054161325166887146,0.027568989878279125,0.0002471999108222982,0.08197751495598857,1.964574161259329,0.6606851305015143,0.3362994095768839,-3.591063693055099,22.97711633400282,63.046558642808016,0.3644467965996414,4550.999435681679,2.74388472976081,4.365076891616207,691.9699580958813,0.42424242424242425,0.4387755102040816,0.6976744186046512,0.0,49.35672514619883,49.31159523214658,49.40038167327504,48.97959183673469,0.4725039782101471,0.5274960217898529,15.795079489590238,16.68893701098728,0.5452934153238522,0.4547065846761476,46.55609144619957,42.51351439194523,0.5367581552958997,0.46324184470410024,34.76315712668637,32.29488755601137,1.2291458964266209,0.5518402206704334,1.2956357526735651,1.3478083956176041,0.608471237490539,0.10945179031019414,-0.4054569765127772,0.00020095422010691199,0.01960646100475488,0.5975677873160943,1.4231083342426067,6.154411670497248,1.1541738568693447,1.3033396649097921,1.0381905680382881,1.461149061795494,1.815759011173726,1.7102972272489396,2.7578628892170034,0.7365951800088454,Relax
74.97453488664254,800.265306122449,48.08702399514288,,,,,,,33.24231559912384,33.412432995730164,0.060088852568331956,0.04153911877074103,798.0,57.080099999999995,0.07152894736842104,79.5,1.4465605999002757,757.8,848.2,15.306122448979592,53.06122448979592,687.0,900.0,10.88888888888889,140.625,,,0.053373790885848676,0.026830315221165198,0.0002803049608222758,0.08048441106783615,1.9893091246182808,0.6631568794218133,0.33336039694135694,-3.6182228657815227,23.62615794722195,63.924962890753335,0.3695920479077735,4744.751374624912,2.705685919545368,4.383183570253574,691.8434880038859,0.42857142857142855,0.44329896907216493,0.7209302325581395,0.0,50.76103500761035,50.73503412084699,50.78551147577801,47.42268041237113,0.48648194794290534,0.513518052057095,16.480101638036096,16.931848688197046,0.5585144993158753,0.44148550068412484,47.77357158328683,42.47454224309852,0.5498563346254675,0.4501436653745325,35.7344923835741,32.332446851118156,1.3438574818366213,0.7428720340268118,1.3419448810931691,1.524567628436463,-0.37451838416352246,-0.8328273882828823,-0.25416661419683656,0.00025253808212873124,0.02537820885287929,0.5647613259486857,1.348073148299693,6.134918517496289,1.1657374759765722,1.1374290329639123,0.9957398974569199,1.5009556401457955,1.8438455189380318,1.7283999965788903,3.007671516323737,0.6074733530309886,Relax
75.37852068039828,795.929292929293,48.44316099775213,,,,,,,33.35477201730707,33.48854965703511,0.060863648854365786,0.0419067024088912,789.0,50.4084,0.06388897338403042,77.0,1.452360728852112,756.6,845.8,16.161616161616163,52.52525252525253,687.0,900.0,12.375,109.375,,,0.036555113236752375,0.019204153779498988,8.335595380717963e-05,0.05584262297005854,1.9035003393784558,0.6546095310808079,0.34389777481970696,-3.9526286806648656,23.679980554591953,63.68497289938871,0.37182995417148473,4737.706823866896,2.6894014018537318,4.3825382924109535,685.0978215705317,0.42424242424242425,0.4387755102040816,0.6976744186046512,0.0,47.067726068861134,47.0397635486136,47.09532970780623,51.02040816326531,0.45285199350631483,0.5471480064936851,15.953217689205374,17.53567791675018,0.5255752585946886,0.47442474140531166,46.16942062447281,43.86525244879346,0.516724503116988,0.4832754968830121,34.540704650011634,33.404044458690784,1.3023560556041873,1.2209131524714127,1.3514495968670794,1.5678241047998318,-0.9400437119433036,-0.9683170394064602,-0.32277649520380713,0.0003103667803226416,0.0588299650809078,0.5594036776272673,1.3071570405611665,6.162036796781728,1.1529284617959255,1.0825416798185437,0.7843545411747718,1.0282297092412527,1.825267411730238,1.7090555558092952,2.394509331881673,0.6696319818262232,Relax
75.76561575470784,792.1515151515151,48.26465382560389,,,,,,,32.727383528981676,32.89541857178343,0.060928563415513115,0.04131455018768966,781.0,50.4084,0.06454340588988476,69.5,1.474748318418526,750.2,843.4,14.14141414141414,52.52525252525253,687.0,900.0,11.0,109.375,,,0.05260972985730485,0.023789216626353558,0.0001383422241304207,0.07653728870778884,2.211494841701685,0.6873738375834446,0.31081864837384343,-3.7385228839041122,23.260573542077953,64.52748188459972,0.3604754573202922,4715.361674299978,2.7741139644674147,4.38048511925756,716.0263543519449,0.42424242424242425,0.4387755102040816,0.6744186046511628,0.0,50.231124807396,50.234839803516294,50.226600059298875,47.95918367346938,0.4902158794276241,0.5097841205723758,16.286101847958026,16.60797225033933,0.5499700965905986,0.45002990340940124,47.85356040471837,43.28778898210575,0.5430983208271055,0.4569016791728945,35.74353337885115,32.784580348292984,1.3520935821457702,0.9706971345398987,1.3738732649833825,1.4774709309842304,-0.544041271311233,-0.5298829749811755,-0.39327498525072674,0.00030244727843955615,0.034222217318495264,0.5698423065402274,1.295322582914164,6.114007630093209,1.1618383968772594,1.1539736722420886,0.8054256399903343,1.2793706817681207,1.8697435775270994,1.6918749862428264,3.0020842154696177,0.6026687836436009,Relax
76.0622126108862,788.79,46.677118959329896,,,,,,,32.86212397151456,33.01615328996366,0.05917559674860216,0.04166143583401737,780.0,48.925799999999995,0.06272538461538461,66.25,1.4203926380349121,747.0,830.4000000000001,13.0,54.0,687.0,900.0,11.11111111111111,109.375,,,0.05078260044674735,0.0206127512465644,0.00022055716287072843,0.07161590885618248,2.463649798093375,0.7090966414840573,0.2878236354991805,-3.881845402131802,23.34594588002784,61.40996395919302,0.3801654385523047,4504.018748126421,2.6304337496014014,4.360570299573932,646.139367040268,0.42,0.4343434343434343,0.627906976744186,0.0,48.27197595792636,48.361283467190766,48.181625722710244,48.484848484848484,0.46326885662975165,0.5367311433702484,15.896508408824774,17.11053500517343,0.5389883722608251,0.461011627739175,45.084633187593575,41.69603726746132,0.5294201541884933,0.4705798458115068,33.803277424324556,31.869498991769454,1.306968547909085,0.6070028785472044,1.328711472240836,1.4012541044405253,0.004971918493261285,-0.41608945435761147,-0.3804904642737242,0.00010103620343172069,0.013223523392306232,0.5941442046315384,1.263692039027558,6.148758439731452,1.1768062318101786,1.087873829583437,0.8937648323997278,1.407059470478373,1.8665089879404761,1.7254327197962138,2.331391871484093,0.7308241808752197,Relax
76.45639023380448,785.2,46.151923036857305,,,,,,,32.275643629789506,32.43949063199682,0.05877728354159106,0.041104996981392646,777.5,45.9606,0.059113311897106106,70.0,1.4299303699790633,746.8,827.2,11.0,55.00000000000001,687.0,900.0,10.0,109.375,,,0.049480757273264515,0.02141919023810662,0.00024956700444271656,0.07114951451581385,2.3101133480402964,0.6954475741681528,0.3010447841263336,-3.8434680186870858,22.938183804122435,61.05815109290099,0.3756776678222963,4399.99872231478,2.6618563882083666,4.350422660336224,650.1121181553207,0.41,0.42424242424242425,0.5952380952380952,0.0,49.695354150799695,49.67489881515969,49.71521270940683,47.474747474747474,0.4829341607679627,0.517065839232037,15.940738466493416,16.494433198222126,0.5502360598333766,0.4497639401666233,45.29165323031314,40.94830842108859,0.5419120787420534,0.4580879212579465,33.95173776989977,31.215623404628708,1.3433836505720984,0.4109284888776772,1.3433836505720984,1.3998868438962986,0.2840899083089745,-0.2608868791112595,-0.362498719720015,0.0002692466392645385,0.01164522786148863,0.6284878434270875,1.2039728043259361,6.128758439731453,1.1877906033398553,1.1276203617019005,0.7012979243844342,1.3699950404400154,1.8342558682223644,1.742791143556333,2.6029837393955924,0.7308241808752197,Relax
76.53132632140112,784.23,46.8189841061003,,,,,,,32.25169324503315,32.415785313600274,0.05970057777195504,0.04112529901308692,775.5,44.477999999999994,0.05735396518375241,71.5,1.4516752267979156,745.8,827.2,11.0,54.0,687.0,900.0,10.0,109.375,,,0.05336831409760176,0.02085187585860675,0.00019983428510489488,0.0744200242413134,2.5594011042212124,0.7171230410319454,0.2801917369845612,-3.870311365546582,22.921421612734047,62.35800195775409,0.36757787121310764,4490.385362948123,2.7205119739654786,4.359253723530876,678.5827639945311,0.43,0.4444444444444444,0.5909090909090909,0.029411764705882353,49.903735078937245,49.901009198459334,49.9065660629448,46.464646464646464,0.48020431746894954,0.5197956825310507,15.883825684240776,16.525644882288564,0.5627697959719214,0.4372302040280785,46.779716082236895,41.233221695964666,0.552941938004478,0.44705806199552217,34.93306281377314,31.410790424662043,1.3048078921305994,2.369083454798485,1.5035217545721271,1.933648714889543,-1.3789522699131282,-0.7700937527264786,-0.31844161739164967,0.0033702028736519504,0.3535184299982688,0.682948765106389,1.469675970058942,6.133660689688184,1.1633021690012393,1.1087045732838126,1.1537827267450202,1.6573244334607198,1.8251688772124641,1.728592402871068,2.7439283925192126,0.8637013046707142,Relax
76.45338349359105,785.0,46.80213670336003,,,,,,,33.131103211333006,33.297063600931004,0.05962055631001277,0.042205227020806375,777.0,47.4432,0.06105945945945945,71.0,1.412634418021753,746.0,827.0,11.881188118811881,56.43564356435643,687.0,900.0,11.222222222222221,117.1875,,,0.055002132470279,0.021745315681308736,0.0001992250851307004,0.07694667323671844,2.529378431491628,0.7148084531357276,0.2826024149791575,-3.8283569156174138,23.544579465818074,62.150574324690574,0.3788312452724112,4597.121231694958,2.639697787548957,4.369456066738405,656.2349341591308,0.43564356435643564,0.44999999999999996,0.6222222222222222,0.029411764705882353,50.46279155868197,50.47316164108885,50.45127399300037,47.0,0.5032568987036176,0.49674310129638216,16.703141904891712,16.59469307892853,0.5449320824521652,0.4550679175478349,45.87925266116999,41.925983162490226,0.5397015056557579,0.4602984943442421,34.524634496562186,31.88394503919843,1.2740686229036335,2.029024991659459,1.4648609176264897,1.9298730369703256,-1.0007396755581812,-0.979523516014269,-0.27081991535081046,0.003529273088270172,0.3150226289507555,0.6922099409834419,1.578978704949392,6.110843042007794,1.1922278426249435,1.134315081104206,1.1449598071467442,1.8249369232494614,1.7855662368719094,1.7338659640202907,2.763150528971969,0.7910746316140745,Relax
76.43702094816607,785.36,48.44376516992031,,,,,,,34.09937941909906,34.26884806408966,0.06168351478292797,0.04341878809603119,777.5,51.149699999999996,0.06578739549839228,74.25,1.4206641292359403,744.4,828.0,13.0,60.0,687.0,900.0,11.11111111111111,140.625,,,0.050094064930118,0.02239014514027456,0.0002228636883211793,0.07270707375871374,2.2373264941463313,0.6889847485316292,0.30795002443061686,-3.799134366022026,24.23173484956929,63.75949854662057,0.3800490186078108,4853.77090057181,2.6312395271093796,4.393049383612926,671.0660512181644,0.42,0.4343434343434343,0.5581395348837209,0.03125,49.0559186637618,48.973289239181604,49.13429984363453,48.484848484848484,0.4833556300710601,0.5166443699289399,16.848817556767138,17.41934767634505,0.5172381876687656,0.4827618123312344,45.8553680352322,44.30077738900206,0.5129610475508746,0.4870389524491256,34.54415602318155,33.66001003222744,1.3183883059144892,0.9255464329677086,1.3812075463560776,1.7572361262550258,-0.40390217707484766,-1.3282640623285484,-0.09372261995193978,0.0007613245182035168,0.07613601894569504,0.6556780062687801,1.6094379124341005,6.113660689688184,1.1924521178428247,1.347221434797729,1.266817076590347,1.7275554990133999,1.8349871680346028,1.726683440409459,2.7380319478460793,0.8637013046707142,Relax
76.63944158206988,783.8415841584158,53.89225040268171,,,,,,,44.313654780439855,44.500141867893255,0.06875400781465811,0.05653394215875639,777.0,56.3388,0.07250810810810811,77.0,1.2161544939071438,739.0,828.0,14.85148514851485,59.4059405940594,672.0,944.0,11.222222222222221,101.5625,,,0.04374909167904147,0.016507977690267413,0.0002608847252848198,0.06051795409459371,2.6501787499285614,0.7229109498754477,0.2727781852054072,-4.103911518542472,31.466352078550717,67.90866415021476,0.4633628487956526,6713.074359559515,2.1581359027793128,4.533891567777951,586.2245048494436,0.4158415841584158,0.43,0.5581395348837209,0.03225806451612903,52.925877763329,52.631859062552124,53.240632500459796,47.0,0.6593471507867801,0.34065284921322003,25.57184373327805,18.38065518006594,0.5327520605322895,0.46724793946771054,49.566443275565966,46.419331831433844,0.5551588031469172,0.4448411968530825,39.438252312374914,35.302994579251006,1.3214033619946448,0.7899151891214959,1.4299717853262615,1.626673956018534,0.2497006058351232,-0.5376505579640218,-0.2509831771800277,0.0005366458350214359,0.05337774808565262,0.6540348398902234,1.6422277352570913,6.172869403458195,1.1476129513348703,0.9304173192342318,1.027684868408399,1.8730830444248012,1.81449073155639,1.7401348666336074,2.606589389773103,0.8569975175819141,Relax
76.34853795514393,785.92,52.04323765734206,,,,,,,34.40342947434107,34.56990205686133,0.06621951045569786,0.043774721949232834,779.5,59.303999999999995,0.07607953816549069,77.0,1.5127340050839175,739.8,832.0,13.0,59.0,672.0,900.0,11.11111111111111,148.4375,,,0.04493681113328374,0.020794013756594943,0.00029989115181155724,0.06603071604169024,2.1610455614434594,0.6805440532389758,0.31491425510918425,-3.8730901338609844,24.444612169361424,68.7433450987205,0.3555924160259755,5279.146150027326,2.812208458143695,4.429533795314103,773.2824661108508,0.39,0.40404040404040403,0.55,0.034482758620689655,48.61415025528811,48.733428216838625,48.487964113713055,46.464646464646464,0.4700535945927491,0.5299464054072506,16.763511151380218,17.79947832301353,0.5324050316507497,0.46759496834925046,50.15933117913729,47.00732912029151,0.5254028545195071,0.47459714548049287,37.39634882218332,35.54230169526753,1.3679766462337573,2.06375971542942,1.5522897543759135,2.010384991649973,-0.958224911236158,-0.8366012787611075,-0.27802879189414714,0.0040393417786158976,0.3307947682524389,0.6758092538636968,1.6204877486206855,6.093660689688186,1.152851409204126,1.3808161281618487,1.105187173786157,1.3469926541624002,1.7966038778224829,1.6875810010076584,2.1798247365992913,0.8637013046707142,Relax
76.63015961193527,783.059405940594,49.1580759961531,,,,,,,34.35520339046183,34.52569823166272,0.06277694338797385,0.043873048621636955,778.0,56.3388,0.07241491002570694,74.0,1.4308771640048288,740.0,827.0,11.881188118811881,61.386138613861384,672.0,899.0,11.222222222222221,132.8125,,,0.05266785711488735,0.022056918977812034,0.00043389166946366457,0.07515866776216305,2.3878156857659096,0.7007555972326828,0.2934713937135019,-3.8141289404679477,24.413355344809105,65.23821771404435,0.3742186129581135,5003.563697658376,2.6722347990529554,4.4062495428855515,697.3273424146491,0.38613861386138615,0.4,0.525,0.03333333333333333,50.74839629365645,50.722729849695995,50.77207614200996,44.0,0.4860880469041244,0.5139119530958756,17.02226705693386,17.502669349085995,0.5797181720848836,0.4202818279151162,49.67187395927662,42.293379953354254,0.5682153769186008,0.43178462308139914,37.12851086687856,32.365671800707474,1.333067281801563,0.6501458977975032,1.3516318793858502,1.5658556703020925,0.04142930303689685,-0.6593116491805429,-0.17049889626010492,0.0003558133554516806,0.030283177888437266,0.6315704929006691,1.5522794985941517,6.113463462864134,1.1910795634284466,1.623957091653513,0.7625364088427868,0.8217201384955646,1.842686346586987,1.7323712537171303,3.1334595378894305,0.9888432895175933,Relax
76.04034064679605,789.15,50.30982292582914,,,,,,,35.069915738407325,35.24347098342316,0.06375191399078646,0.04444011371527254,788.0,57.8214,0.07337741116751269,75.75,1.4345578501271279,745.4,831.0,12.0,63.0,672.0,906.0,10.0,148.4375,,,0.05547362508830189,0.021198896238312056,0.0005534804853710724,0.07722600181198502,2.616816671239999,0.7183283322547033,0.2745046453385356,-3.853806162890123,24.920897324929832,66.88653754964696,0.3725846521272257,5236.63450946783,2.6839538190599757,4.426022373368628,718.0815116002937,0.39,0.40404040404040403,0.55,0.03333333333333333,51.02040816326531,51.01828698303168,51.01906861776343,43.43434343434344,0.48112680683311426,0.5188731931668857,17.288370516102457,17.9537387385992,0.5429997761835965,0.45700022381640354,49.28769861040077,45.21649777537654,0.5354557620750132,0.46454423792498656,36.93348744304918,34.401078513358485,1.2121884055187677,1.8923546323378009,1.3562698141424852,2.102685432179677,-1.211934519428107,-2.064639454342828,-0.1055625064763492,0.006410711229973983,0.4157950843287379,0.6860453796152854,1.6094379124341005,6.06611181466655,1.1714907860064252,1.4436931602777374,1.1223681439851163,1.2651420206147634,1.8116056939630305,1.7594866632431274,2.940241673407392,0.9301398665684615,Relax
76.41850977384448,785.27,48.24911262071945,,,,,,,33.86604628398614,34.031392009961074,0.061442704573865616,0.043126626872268314,781.0,54.1149,0.06928924455825865,73.25,1.42470462055485,742.8,826.2,10.0,62.0,672.0,906.0,11.11111111111111,101.5625,,,0.0540241518916648,0.02344824758698916,0.0006372441113499766,0.07810964359000394,2.303973961859795,0.6916450953897134,0.30019657636729946,-3.7529595166481773,24.063828063461166,63.85226971666309,0.37686723072244044,4827.151485443789,2.653454369282883,4.390661038003606,677.7163362732351,0.39,0.40404040404040403,0.525,0.034482758620689655,48.772563176895304,48.8194561458993,48.72701545108245,44.44444444444444,0.4431674064679771,0.5568325935320229,16.022783523368673,17.96041565811451,0.5325020796881628,0.4674979203118372,46.59475082470173,43.65823568988385,0.521387931878595,0.47861206812140505,34.841070565158994,33.38126775727439,1.149723597657934,1.9576121395554624,1.3156881936375733,2.0570877244100845,-1.104841114824067,-1.9345123846996328,-0.12127353228363748,0.007453489527662783,0.4557189508504979,0.65542310378782,1.5441973905656996,6.10120956470982,1.1928604802856637,0.8196996114884515,0.8036022888161128,0.800606366792308,1.8204761892095944,1.75487120815367,2.461213014756952,0.8637013046707142,Relax
76.33368403845978,786.0990099009902,47.99656340833061,,,,,,,34.27725193185708,34.44581603655577,0.0610566389269156,0.043604242595566084,781.0,53.373599999999996,0.06834007682458386,73.0,1.4002453727547184,743.0,826.0,10.891089108910892,64.35643564356435,672.0,906.0,10.1,101.5625,,,0.04420919088204825,0.027749985068767864,0.0006479325313516547,0.07260710848216777,1.5931248529500992,0.6088824056794107,0.3821937775635733,-3.5845199768522575,24.356870102952907,63.58581054787539,0.38305511706285467,4865.545793985588,2.6105903705651636,4.394101674406028,663.9860188834573,0.39603960396039606,0.41000000000000003,0.5365853658536586,0.03333333333333333,49.067886035877606,49.078131290576074,49.059764516532375,44.0,0.45334615679231954,0.5466538432076805,16.40168136244426,18.010659021363942,0.5482402326665685,0.4517597673334315,47.080998333089795,42.73797958478968,0.536095427448381,0.46390457255161904,35.25362077542926,32.79419718009375,1.2136868115278516,1.55517408851631,1.2634003507972862,1.9912738557860066,-0.7495899002275568,-1.7606718666157364,-0.031966542933378604,0.006891667457902348,0.3402336382205194,0.6961879279486616,1.6739764335716716,6.120937596548921,1.1953803136262757,0.9438267466893243,1.3050650895156561,1.2796439167797018,1.7723575216507759,1.755188499704477,2.736297891716351,0.8569975175819141,Relax
76.99550729310917,779.4257425742575,46.22496003992939,,,,,,,34.039388948687076,34.206880990097694,0.05930643230650731,0.04367239505878147,776.0,48.925799999999995,0.06304871134020618,65.0,1.3579844253259523,740.0,822.0,10.891089108910892,65.34653465346535,672.0,906.0,10.1,101.5625,,,0.0477023286470391,0.028955385038621304,0.0005480780391556052,0.07720579172481601,1.6474423870866413,0.6178594582264518,0.37504161788569895,-3.5419990805643997,24.187917511339283,60.92216428369975,0.3970298461279546,4629.388995651713,2.51870233372259,4.3724937849263,613.7791894271423,0.38613861386138615,0.4,0.5,0.034482758620689655,49.077359829666435,49.09178438329873,49.0648826642935,44.0,0.45642455207650073,0.5435754479234993,16.34307069053914,17.835244870647546,0.5374272499282194,0.46257275007178045,44.6616912651846,41.43480945223996,0.526395038713037,0.473604961286963,33.628578815217764,31.89780081713623,1.1704417043082875,1.760507430399299,1.2817183952519962,2.050695419507937,-1.0234865751363431,-2.029228402976556,-0.06320716915035687,0.007657575883044244,0.41722969311462954,0.7104274824381402,1.6094379124341005,6.113463462864134,1.203341897001549,1.1106628141225792,1.5329924090529494,1.7082424514296186,1.7659966254990958,1.7609864934745447,2.743348907042415,0.9229204035497537,Relax
76.67246275123308,782.21,47.97775052516057,,,,,,,33.91075631623975,34.08284134592512,0.06133615081009009,0.04335249653704216,776.5,48.1845,0.062053444945267225,65.25,1.414823959623224,741.8,826.2,10.0,66.0,672.0,906.0,10.0,101.5625,,,0.05998876128647145,0.026147274299538226,0.0009081851487151864,0.08704422073472487,2.2942644269246406,0.6891756946080616,0.3003906988750512,-3.644010327191129,24.100208237808886,62.771373334070915,0.3839362906646464,4752.611321191787,2.604598794942939,4.383902408169045,653.9769733713377,0.41,0.42424242424242425,0.5714285714285714,0.03333333333333333,50.323741007194236,50.29888074356591,50.34940166395522,42.42424242424242,0.4697568602649241,0.5302431397350761,16.518233586443998,17.549492695732003,0.5583677153228973,0.44163228467710275,46.90528511472277,41.71497978606577,0.5469836176226754,0.45301638237732433,35.163602009107095,32.000970551136625,1.2501581256943142,0.8486064367764232,1.317694828381192,1.6589401232737924,-0.6341115450409855,-1.6341115450409855,-0.09787566991728343,0.0009691466414751259,0.07165176590572525,0.665407941170399,1.6302719993369423,6.10120956470982,1.1744940036578893,1.4249102759907906,1.4200987758455024,1.7277978587767315,1.7835010704250822,1.7197728247591682,2.4733262432087306,0.8637013046707142,Relax
77.05683229462778,778.7821782178218,46.88274820451464,,,,,,,34.149231323706246,34.32119673692259,0.06020007842475532,0.043849528505973165,775.0,45.9606,0.059304,62.0,1.3728785799043401,741.0,818.0,10.891089108910892,64.35643564356435,672.0,906.0,9.181818181818182,101.5625,,,0.054964172727070895,0.024725549013451392,0.0006696490666374645,0.08035937080715976,2.2229707699177417,0.6839796301911036,0.30768719024425745,-3.69991819692913,24.268750951115567,62.0287531079032,0.39125002092011163,4729.22905107242,2.55591040646663,4.381760458700802,634.1597422745564,0.4158415841584158,0.43,0.5813953488372093,0.03225806451612903,49.87557767507999,49.87575269308241,49.875175069512665,43.0,0.4588439078350498,0.5411560921649503,16.439205417156717,17.852934569063784,0.5264413933399406,0.47355860666005956,45.00575649488371,42.68545530323466,0.5174674624514952,0.4825325375485049,33.88041906783506,32.71677984744004,1.280909768088704,0.9130857148337386,1.280909768088704,1.6699656415793567,-0.6990511999622537,-1.4644114716109513,-0.07391089667688558,0.0009353750491879944,0.07013437389828747,0.6340165481728715,1.5088966832122233,6.160541556944961,1.1961657943528594,1.4046810566366705,1.3981632033970104,1.6675744896440126,1.7917080157112553,1.732046265457252,2.9088758215610064,0.9229204035497537,Relax
76.69563327710532,782.5049504950495,47.24269758647917,,,,,,,35.3864380801459,35.562203292685666,0.06037367246889776,0.0452219989889633,778.0,45.9606,0.059075321336760925,60.0,1.3350509446438295,743.0,824.0,12.871287128712872,65.34653465346535,672.0,906.0,8.416666666666666,101.5625,,,0.04821999710935615,0.021785862456755893,0.0006309173862723652,0.07063677695238442,2.213361862770914,0.6826471873406794,0.30842095855309953,-3.8264940307193998,25.1462751021926,62.18427323997472,0.4043831951714038,4912.517360580636,2.472901970063655,4.3982742081220785,615.1024472084405,0.4158415841584158,0.43,0.5813953488372093,0.03225806451612903,50.7201646090535,50.72549082289392,50.71225089146554,42.0,0.4651413512218497,0.5348586487781504,17.151287609583914,18.391780113887172,0.5460761477607711,0.4539238522392291,45.95229080582415,41.895952168208424,0.5346999258022839,0.46530007419771596,34.68270243918211,32.353735362693314,1.303754059911083,0.4384681482297035,1.303754059911083,1.4884126084506701,0.2739389218178694,-0.6122307705602683,-0.0788552731021897,0.0004106108677676677,0.020024290348678704,0.6308502344491225,1.5368672195992648,6.113463462864134,1.2276424118322555,1.110880924891984,1.1862956080503533,1.3908626958192873,1.8334161808430214,1.7445152934024994,2.94886398289173,0.9888432895175933,Relax
76.38776887666717,785.62,48.294923086796565,,,,,,,34.679630443197745,34.84440485916918,0.06147364258394206,0.044143008634196866,781.0,54.856199999999994,0.07023841229193341,70.5,1.3926020107365187,742.8,828.0,13.0,62.0,672.0,906.0,9.090909090909092,101.5625,,,0.051610474307565476,0.018024075396993324,0.0004834579258066494,0.07011800763036545,2.863418686995442,0.7360516371148991,0.257053444701526,-4.016046892716617,24.638714962328013,63.75279428882364,0.38647270660334604,4934.7726687549175,2.5875048429392558,4.40023726068997,659.8426558929651,0.4,0.41414141414141414,0.5365853658536586,0.03333333333333333,51.59326888650195,51.614736195787636,51.56804644965085,42.42424242424242,0.4720026876076094,0.5279973123923906,16.933091620750616,17.90935224845342,0.5448636827211433,0.4551363172788568,47.059049973324434,43.01005225806193,0.5353897514303227,0.46461024856967714,35.364415563024515,32.94396373541291,1.2890463834462345,0.2138566521547416,1.29323586071024,1.3957505393063347,0.4948783687606966,-0.49671119624197413,-0.020638345531017385,2.34975970435615e-05,0.0032738281371460063,0.6042370608306662,1.4198170531585341,6.121209564709818,1.1892425111820164,0.0,1.2158994949113247,1.4059483139094087,1.8346416098178724,1.7142667705276893,2.5840800073873647,0.9301398665684615,Relax
76.49517396597479,784.4653465346535,48.43997612642591,,,,,,,35.082616778113916,35.25924049669874,0.06174903243388342,0.04472169093649589,781.0,54.856199999999994,0.07023841229193341,70.0,1.3807401093479692,743.0,828.0,13.861386138613863,63.366336633663366,672.0,906.0,10.1,109.375,,,0.0564346025847076,0.018538487709704985,0.0005963730062498126,0.0755694633006624,3.0441858833589657,0.7467910994706367,0.24531718104106856,-3.9879062912271905,24.93204805470301,63.97889922040347,0.38969173209457075,5011.232949670568,2.5661309123112703,4.406914701569766,656.7129241004992,0.40594059405940597,0.42,0.5714285714285714,0.03333333333333333,49.842381786339764,49.838924338621396,49.84533749918354,44.0,0.4465668391845888,0.5534331608154113,16.66105966290587,18.547781592961513,0.5437337922947765,0.45626620770522336,47.17695713850655,43.2161342626346,0.5309233570425207,0.4690766429574792,35.37835633504893,33.253980683718616,1.2693673438654998,0.5675468080396264,1.3683583200779483,1.4258465827047138,0.4237117881832333,-0.2837985746051377,-0.3987074514164978,4.605891116510682e-05,0.017800293695002446,0.6086863455371945,1.5214691394881434,6.207619651025787,1.1969425563523446,1.06224990056796,1.3352211577988595,1.4882912407505036,1.8666450737827571,1.703102519459851,2.7539201264718356,0.8569975175819141,Relax
76.18440919970509,787.79,48.66008569036783,,,,,,,36.15287406320973,36.32378614218449,0.06176783875191083,0.04589151177751651,784.0,51.149699999999996,0.06524196428571429,74.5,1.3459534532521669,743.8,828.2,15.0,64.0,672.0,906.0,11.11111111111111,109.375,,,0.051655361949824785,0.018331627220676064,0.0006619062051113992,0.07064889537561225,2.8178274262288734,0.7311559745583232,0.2594750720901445,-3.999127447438587,25.684795499508592,63.6372342903599,0.403612692882215,5134.962562735018,2.4776227745935304,4.417507391613322,630.6762439597602,0.41,0.42424242424242425,0.5714285714285714,0.03225806451612903,51.65289256198348,51.595011866649735,51.70919271704483,44.44444444444444,0.4819314352839345,0.5180685647160653,17.83713164458127,18.493793774216943,0.5445162028584964,0.45548379714150344,46.95876865306061,42.94847651214757,0.5357437010764439,0.46425629892355585,35.5196369542102,33.06502716525239,1.3460499046158343,1.8697493993338892,1.5012548294293264,2.144565365748517,-1.7969286319404283,-2.4545686266984887,-0.1559375622485162,0.0017941681188480307,0.25191384269654776,0.5930445198140073,1.6486586255873814,6.161209564709818,1.2046133943363988,0.9320250418168043,1.3824923212331064,1.492494408526397,1.9681641831484626,1.6956553053269396,3.0864382175775575,0.8637013046707142,Relax
75.60652598946089,793.8888888888889,50.593999984851166,,,,,,,37.76862967801588,37.9623652318368,0.0637293211845571,0.04757420113395982,790.0,50.4084,0.06380810126582279,62.0,1.3395773269026119,750.0,830.0,17.17171717171717,63.63636363636363,672.0,929.0,11.0,203.125,,,0.04466543570421578,0.017855404261658978,0.00046046499966349424,0.06298130496553826,2.501507949619833,0.7091856183141259,0.28350324388211695,-4.02544905682217,26.84344588531222,66.50713045237997,0.4036175625489135,5608.624283365956,2.4775928819470345,4.4558264579538065,659.1103720301578,0.37373737373737376,0.3877551020408163,0.5,0.0,50.302622730329524,50.324929984591435,50.279457525379456,45.91836734693878,0.45777358112651473,0.5422264188734852,18.162212953862294,19.766680284876774,0.522792916323871,0.47720708367612913,48.08759498605687,45.9432433494507,0.5136844253586206,0.4863155746413794,36.347508655508186,35.36596710788058,1.3035409028071059,0.7928043267661842,1.3911556888068404,1.589876274336631,-0.2133052949015255,-0.9378179791372618,-0.24934472628275928,7.951811910901863e-05,0.032407101403523056,0.5997271119965504,1.5976034547870974,6.162036796781728,1.1834286606635247,0.745974453976747,1.173473667336846,1.3206963621539198,1.9717759509201584,1.711056491077307,2.5754464974730573,1.0714111709219571,Relax
75.10776503988491,798.939393939394,53.75223169203156,,,,,,,33.93090217558294,34.10431270016571,0.06727948590316864,0.04246993255430446,796.0,42.9954,0.0540143216080402,61.5,1.5841674770060274,760.0,845.4,13.131313131313133,53.535353535353536,655.0,923.0,11.0,210.9375,,,0.04687268612922893,0.005367768369003699,0.0003081007993026749,0.052548555297535306,8.732248284016189,0.8919881025050256,0.10214873346395242,-5.22734303057839,24.115390777993664,72.47324426311145,0.33274887888892657,5490.626217448975,3.0052693290480046,4.446591989434289,871.2064726421324,0.43434343434343436,0.44897959183673475,0.6590909090909091,0.03571428571428571,49.506454062262705,49.50089401032609,49.51447035610306,48.97959183673469,0.5101925054064593,0.48980749459354045,17.22561027901584,16.877973201230155,0.55972756536076,0.44027243463923993,54.220816179918344,48.08819217650133,0.5547894128582386,0.44521058714176165,40.22821495356854,36.03706568372047,1.5061311876077874,1.4719496497705835,1.740178396701754,1.9764253635710722,-0.5484814426573035,-0.9516741925996088,-0.33950064670612917,0.00047126179650758683,0.13155148034964478,0.6498788853238193,1.80280930541464,6.18986394326823,1.0753962612366954,1.2987230703412833,1.2714707989800231,1.712102249905197,1.8892139496072549,1.5536144964150977,2.6564300145494575,0.7365951800088454,Stress
75.49984860590726,794.8383838383838,51.80708072925842,,,,,,,33.21482334434308,33.37953807291028,0.06517938965035246,0.04178814715004594,795.0,40.0302,0.05035245283018868,52.5,1.5597578283697795,760.0,829.4000000000001,12.121212121212121,53.535353535353536,655.0,923.0,9.0,117.1875,,,0.0422575964071901,0.009026713098151421,0.0005589347150820268,0.05184324422042355,4.681393542445037,0.8151032413697367,0.1741155136775828,-4.7075669758064675,23.602897724229397,69.60678987511105,0.33908901368067496,5161.39150445851,2.9490781466064084,4.419736912604166,821.1034515044569,0.43434343434343436,0.44897959183673475,0.6590909090909091,0.03571428571428571,48.802163833075745,48.81047608764844,48.79832219089782,48.97959183673469,0.49199933404861446,0.5080006659513855,16.558705313202616,16.82582085435003,0.5721344568529857,0.4278655431470143,52.650276638587115,45.530798000892865,0.5638679110791345,0.4361320889208654,39.0271850878925,34.3231832295665,1.5704632174003503,1.1602590342553256,1.6611699948625431,2.006017712348532,-0.798487549521484,-1.4320280904552423,-0.20278385489381842,0.00041410457033567495,0.07906590274589459,0.6635877957341161,1.6677068205580763,6.141834776579708,1.0792984325096433,1.317140075695458,1.406873595994931,1.7977454530645482,1.8057550347124698,1.5740034564324097,2.4028837863506065,0.9374847745567124,Stress
75.71608839781605,792.68,52.419226945228345,,,,,,,32.49677528679429,32.65909949838409,0.06612911508455915,0.040996083270417184,792.5,42.9954,0.05425287066246056,56.0,1.6130593415073384,754.8,825.4,11.0,53.0,655.0,923.0,9.090909090909092,156.25,,,0.052441469731299865,0.011890476021169943,0.0007144377128097178,0.06504638346527952,4.410375971317923,0.8062165325346964,0.18279995578104422,-4.432017533658644,23.09347072275356,70.55140043309935,0.32732831072080615,5118.523712487853,3.055036693275662,4.41611482953707,862.1484683404117,0.45,0.4646464646464647,0.6739130434782609,0.03571428571428571,50.85803432137285,50.90220537287712,50.81358988523918,48.484848484848484,0.5206221065921873,0.4793778934078127,16.66445563565318,15.990749877121244,0.575337129006138,0.4246628709938622,53.51392920473071,45.97564011672487,0.5700411889907463,0.4299588110092538,39.63233970232885,34.41993292973749,1.5782771338547839,0.7279518194639047,1.625241205084644,1.8162050563652374,-0.15170453954096352,-0.8084914176682361,-0.23766965591043182,0.00012305660918845594,0.02680498126856085,0.6653809489813263,1.7283898552954657,6.133660689688184,1.0660264847531458,1.051625197870424,1.3739442204443182,1.7786080910756081,1.8239552036116566,1.595129516593724,2.2997798333853243,0.9301398665684615,Stress
75.4416017001168,795.3434343434343,49.8987058881232,,,,,,,32.12650377644538,32.28202078525106,0.06273856517004531,0.04039324697885537,796.0,41.5128,0.05215175879396985,55.5,1.5531944040766772,760.0,829.4,12.121212121212121,53.535353535353536,655.0,915.0,9.0,156.25,,,0.05520788967503758,0.007987392373603188,0.0004883400681937518,0.06368362211683451,6.911879007908658,0.8669087567562146,0.1254230225622131,-4.829890933722543,22.8268358076561,66.26261793864225,0.34449040073836584,4751.865919104648,2.9028385053883743,4.383834287849385,769.3987152805165,0.45454545454545453,0.4693877551020408,0.6739130434782609,0.034482758620689655,48.486040110106174,48.60125533806939,48.36641606694115,50.0,0.479945030500163,0.5200549694998369,15.81872178031103,16.466460758065384,0.5736718395905824,0.42632816040941746,50.18805394183297,43.26538775527313,0.5637235836136723,0.4362764163863276,37.2093584816456,32.734065646593955,1.4896396011814839,1.4759016489278265,1.6944652317692999,2.043518551872588,-0.7835940125063683,-1.3439143595632599,-0.2634982518266994,0.0007128480717604013,0.14362094058165223,0.6382209396236402,1.7812881693607596,6.1669885644147895,1.10901721278839,1.197564830111661,1.3514598346497522,1.832433533458698,1.8062686627123394,1.6076910220510812,2.0459143023178035,1.0044479727393347,Stress
76.20365679359557,787.41,47.62502843393727,,,,,,,31.718776900769804,31.878929258911786,0.06048313894151366,0.04028241564213028,787.5,40.771499999999996,0.05177333333333333,52.25,1.501477455544051,754.0,824.2,13.0,56.00000000000001,655.0,892.0,9.090909090909092,125.0,,,0.046191853982689816,0.007526317096667429,0.0005904802963030869,0.05430865137566033,6.137378134538481,0.8505431973107651,0.13858412805368467,-4.8893494542056,22.541807055942762,63.659810961413946,0.3540979263919901,4508.20800168744,2.824077537502972,4.360974055468317,719.1209687112583,0.45,0.4646464646464647,0.6739130434782609,0.034482758620689655,49.45525291828793,49.433140224962294,49.478933303695825,49.494949494949495,0.499698801228891,0.500301198771109,15.935296466316142,15.944898742806972,0.6052057159537468,0.3947942840462532,49.524130030337226,39.99915094575396,0.5934497824630535,0.4065502175369463,36.78704343060976,30.448085919311723,1.4675707696307014,1.7539645186874582,1.6851319569866325,1.89026674973552,-0.8473508005282575,-0.6242723102289895,-0.38304507271196364,0.0004346006054142775,0.15195288247855426,0.6468451793309966,1.770706060030223,6.038562939644916,1.1285740317503659,1.3023930311463081,1.3837933723446911,1.865457414923667,1.8393102848692617,1.5997249879167617,3.0014818279091275,1.063016990363956,Stress
76.21261081399913,787.36,47.786249659977045,,,,,,,31.860649869408032,32.022790019015176,0.06069174159212691,0.04046516189469624,787.5,40.771499999999996,0.05177333333333333,52.25,1.49985169341635,753.6,824.2,13.0,56.99999999999999,655.0,892.0,9.090909090909092,125.0,,,0.04624527368260049,0.011777726399760437,0.0008614167849223226,0.058884416867283254,3.926502629874399,0.7853567402532062,0.20001431662821229,-4.441545124500295,22.643531974958517,64.02775404449119,0.35365182353927527,4554.726569673992,2.827639880355215,4.36543242039351,724.1897231431128,0.45,0.4646464646464647,0.6956521739130435,0.03333333333333333,50.0193124758594,50.01836201522358,50.02081257015689,50.505050505050505,0.507119757201851,0.4928802427981491,16.12499011232097,15.896989831860802,0.6020672999479385,0.3979327000520615,49.68105251590319,40.3899283100865,0.5915123500225739,0.40848764997742626,36.933875271966656,30.69251207223199,1.5338298281510354,1.354737395541151,1.6894339661730124,1.987026622128878,-0.7586159338174827,-1.1839770142396802,-0.28033185107657577,0.0003871933428993199,0.10249616224451391,0.6548549155939787,1.8893979387919713,6.001209564709819,1.1298469183843711,1.2425126650327838,1.2283966588142594,1.7133787986471318,1.8559246292482956,1.606579308916834,2.7388825098498564,0.9301398665684615,Stress
76.1076750663612,788.4,48.19656721084076,,,,,,,31.373443057671075,31.528161115273715,0.06113212482349158,0.03979381412692932,789.0,45.2193,0.057312167300380225,60.25,1.5362218014211957,753.6,824.2,12.0,56.99999999999999,655.0,892.0,9.090909090909092,125.0,,,0.050733617105051865,0.013754152780861093,0.0010980205638183031,0.06558579044973126,3.688603574016402,0.7735458665232836,0.2097123887132697,-4.286414480042283,22.293776522952065,64.58672273508726,0.3451758438710932,4523.522597015794,2.897074108040575,4.36244687411484,748.4500886360673,0.45,0.4646464646464647,0.717391304347826,0.03333333333333333,51.08481262327415,51.05442079024317,51.11313046955108,49.494949494949495,0.5229308840884601,0.47706911591153983,16.12404086690278,15.400768599955905,0.6031152898349988,0.3968847101650011,50.158370304803135,40.68885156926013,0.5945763192545664,0.4054236807454337,37.254844017330875,30.763341134332844,1.5124452287409373,1.1823300296834365,1.643394576106104,2.0757364818192263,-0.827565544306399,-1.752543483841679,-0.134330605787895,0.0006439243561853703,0.1059977929126225,0.6482003841554462,1.9218125974762528,6.073660689688185,1.0912875221687417,1.365178992267098,1.281336513147669,1.6099836735607127,1.9002158501995257,1.6043152457952472,2.8695143691258993,0.9301398665684615,Stress
75.46257262932032,794.8787878787879,46.6741358100802,,,,,,,31.004937065715513,31.120021082605003,0.05871855749809945,0.039005867987061564,795.0,41.5128,0.05221735849056604,57.5,1.505377537491966,758.0,826.6,11.11111111111111,57.57575757575758,700.0,985.0,9.0,78.125,,,0.056291566711812194,0.016064870089240648,0.0009187614587829036,0.07327519825983575,3.5040163038425773,0.7682212815337713,0.2192402132065778,-4.131120373017778,22.00517793817832,59.438715218458036,0.3702162447035002,4109.075971469095,2.7011240438703137,4.320714280837875,642.2053712533493,0.45454545454545453,0.4693877551020408,0.6956521739130435,0.03225806451612903,46.74959871589085,47.12055805393613,46.33350568155542,51.02040816326531,0.4248365319293478,0.575163468070652,14.363290838500076,16.712394314141232,0.45017438206387206,0.5498256179361279,39.88042721783413,44.073942321330755,0.44711252879035934,0.5528874712096409,29.972926106640855,33.33029039368942,1.3202639098299482,1.2458548798704676,1.5245227121706533,1.693540051909439,-0.19401990966916216,-0.6007779044927544,-0.36433625419008786,0.0003629665603142385,0.09498064929763562,0.656622129028952,1.8268507890393249,6.0331995492851265,1.1104129715806903,0.8590721753683563,1.2931731816498269,1.6326654251151989,1.8441424627341196,1.6286705604788736,1.8972678728876617,0.9374847745567124,Stress
76.14348896071473,788.12,39.24522231746782,,,,,,,29.17294304763587,29.31949271493667,0.049795998474176296,0.03701586439582281,786.0,38.547599999999996,0.04904274809160305,56.75,1.3452609924677514,755.0,822.2,9.0,56.99999999999999,700.0,880.0,8.333333333333334,78.125,,,0.05986571014449833,0.021138139054827518,0.0007850416487824423,0.0817888908481083,2.8321182857781526,0.7319540529737233,0.2584475573104856,-3.856676331987841,20.732012119681297,51.70682103133753,0.4009531374422809,3367.744725568848,2.4940570521011445,4.234309274595086,515.8390465397565,0.47,0.48484848484848486,0.7083333333333334,0.030303030303030304,49.31278633902541,49.30009367175223,49.32666617518829,49.494949494949495,0.47883211678832105,0.5211678832116787,14.347011350587186,14.96782263008599,0.5567656511935027,0.4432343488064974,38.5819394426023,34.42425438573998,0.5459707979655236,0.4540292020344764,29.106724187432263,26.54303114095913,1.332624011447068,1.309109204872633,1.4906560748406905,1.749484231829554,-0.6710423509182526,-1.0601043633087732,-0.30228680997316365,0.00027363623687525916,0.090863375724844,0.6032799697366067,1.9021075263969205,6.013660689688185,1.2187911565531815,1.2608446677554779,1.189614111388499,1.487896925908989,1.8550801591604478,1.6473810411956848,3.418787671602789,1.063016990363956,Stress
76.0872056614304,788.95,41.507057937004625,,,,,,,31.644968642803875,31.797376948224308,0.05261050502187036,0.04011023340237515,786.5,45.2193,0.05749434202161474,60.5,1.311647940167683,754.0,824.0,11.0,56.99999999999999,700.0,880.0,11.11111111111111,85.9375,,,0.06005068396238841,0.02650982454362571,0.0006715710215062827,0.0872320795275204,2.265223742373942,0.6884013804055116,0.30389994927568204,-3.630239877200815,22.484140864034213,54.17083804879029,0.4150598675210327,3826.41195350284,2.40929099209845,4.28976183454016,522.0532485814977,0.45,0.4646464646464647,0.6956521739130435,0.0,48.58362436942181,48.53422773476468,48.63331241890636,47.474747474747474,0.4391006566537891,0.5608993433462109,14.903088297944374,16.84366894929574,0.5803176189839888,0.4196823810160112,41.26657569396844,35.09343849499845,0.5595550944450858,0.4404449055549143,31.0244444778819,27.525066839843536,1.2062292029209691,1.4529083299246448,1.3807023606962936,1.608057437873497,-0.7692214791327299,-0.9158568120807153,-0.34351725948945777,0.00023382263230126176,0.10233603437307277,0.5909572448997471,1.9021075263969205,6.078562939644916,1.2361193786059006,1.1167642209646143,1.2281814452409214,1.4590944308733658,1.8721876612165123,1.7196591562338661,3.414139028718283,1.063016990363956,Stress
76.02339898990061,789.01,44.784668868448335,,,,,,,37.37903047420999,37.56870707090117,0.056760584616732786,0.0473745966137438,786.0,46.701899999999995,0.059417175572519076,63.75,1.198122805762657,751.4,824.0,13.0,57.99999999999999,700.0,939.0,11.11111111111111,125.0,,,0.0493664145047563,0.018750769891616004,0.0003802766801671602,0.06849746107653945,2.6327673364937088,0.7207042966102639,0.2737440132366919,-3.9765204665225053,26.56508753024521,54.22653510850801,0.48989092659319133,4525.566795583827,2.0412707109197115,4.362643089255302,442.7641514866274,0.45,0.4646464646464647,0.6956521739130435,0.0,49.64463397299219,49.68153469225217,49.60186449268966,48.484848484848484,0.5288457367591561,0.4711542632408437,19.31888681459421,18.234722428400612,0.5090960574062321,0.49090394259376796,38.691157482977296,37.99357106803337,0.5129185776655139,0.487081422334486,30.579609669906286,29.79946765080308,1.2210898357560909,1.450201905403632,1.3709497725124153,1.6393506017896242,-0.9099310139827832,-1.0708517437102207,-0.3149217510492062,0.00027339616152273954,0.10090506037675862,0.5296600167356651,1.8082887711792657,6.126111814666549,1.2094613484934689,1.4978085201818225,1.2164541008387146,1.4809864531462944,1.9213519351622468,1.755128400981307,2.158122381545664,0.9965784284662087,Stress
76.0856828685587,788.6,40.83942440655335,,,,,,,30.202682334554662,30.34806671892927,0.051787248803643604,0.0382991153113805,786.5,48.925799999999995,0.062206993006993,63.75,1.3521787222133337,753.6,825.0,9.0,56.99999999999999,700.0,880.0,8.333333333333334,132.8125,,,0.06012805258521301,0.03804735038786927,0.0012152338639706782,0.09939063683705296,1.580347960429428,0.6049669717258235,0.382806183747936,-3.268923832109078,21.459323772856663,53.70251014579854,0.39959628916034107,3620.4328004076165,2.502525741921348,4.2657306008246385,537.5676561826128,0.45,0.4591836734693878,0.6666666666666666,0.0,51.4239218877136,51.42926312739353,51.416031880822075,46.93877551020408,0.46166452584488643,0.5383354741551135,14.584727824484272,15.749311614370026,0.5359145303013062,0.46408546969869385,39.31355812282362,36.584200738610704,0.5256861337207843,0.4743138662792157,29.65021195532097,28.164202101333302,1.25921274207545,1.7539285295261378,1.5013488422473036,1.7758202767943314,-0.9788229173014109,-1.0672147102550102,-0.3435104795169833,0.0004908847609727192,0.16587805729618577,0.5615382535648892,1.6545583477145698,6.046111814666551,1.2081282224932073,1.4985825435703646,1.2385549855433022,1.4717754886723995,1.8692229702052503,1.7063584276462058,2.842933686128071,1.063016990363956,Stress
76.10164091121007,788.46,40.928224930475494,,,,,,,30.056344394883393,30.189766061540563,0.05190906949049475,0.038120316052663916,787.5,49.6671,0.06306933333333332,63.75,1.3617166609736766,751.4,825.0,9.0,57.99999999999999,700.0,880.0,8.333333333333334,132.8125,,,0.06426496010867998,0.048356467920171696,0.0014284021975601979,0.11404983022641187,1.3289837507315567,0.5634814184387745,0.4239942122156112,-3.0291552931201857,21.34738830455082,53.541784968189845,0.3987052041173766,3590.769007955854,2.5081187545914387,4.26215757807957,537.1566201320757,0.45,0.4591836734693878,0.6888888888888889,0.0,47.82077393075356,47.85400287734043,47.789003499349434,48.97959183673469,0.42412925588416167,0.5758707441158383,13.91152803414844,16.210194575120475,0.5322272579888405,0.46777274201115965,39.06082413411681,36.61932216116894,0.5173837804043427,0.4826162195956572,29.319606019533243,28.31735478206557,1.2825906346853417,2.329824582376049,1.5999789382688094,1.8103563037535362,-1.318077233498645,-0.6685086228782593,-0.4097024870129169,0.0005967901868536549,0.266365844931351,0.5696162322188294,1.665007763588911,6.053660689688185,1.2040951025749655,1.5012624338561347,1.1861317218056504,1.482455449569163,1.9094253755063528,1.6740208370918628,2.5162326004646696,1.1958941141594503,Stress
76.12980512312079,788.22,40.684442215469026,,,,,,,30.394709800200165,30.543715777390315,0.05161559236693947,0.038561200934003406,787.0,48.925799999999995,0.062167471410419305,63.5,1.3385369520850334,751.4,824.2,10.0,60.0,700.0,880.0,9.090909090909092,140.625,,,0.06146211014304497,0.04143124059617023,0.001226229380223535,0.10411958011943874,1.483472598421934,0.5903030925839301,0.39791978174175496,-3.1837200789489177,21.59766854882723,53.47957300616631,0.4038489339908711,3628.6466178215915,2.476173429796907,4.266714785684279,529.6987908590116,0.45,0.4591836734693878,0.6666666666666666,0.0,51.162790697674396,51.17506530783572,51.14826826086407,46.93877551020408,0.46321889350535755,0.5367811064946424,14.702144783142689,15.826547059821188,0.5442108110254696,0.45578918897453025,39.452226118584385,36.105215457187896,0.5328501523873833,0.46714984761261674,29.77105311318699,27.87531322735849,1.2855226158396666,2.2550355769522046,1.5777752977929684,1.7996491306425169,-1.2945604675239188,-0.6875331467506465,-0.40160960868323764,0.0005879131454720191,0.2472514266216289,0.5619750856413033,1.6094379124341003,6.061209564709821,1.2317962528706303,1.2273432905101296,1.2687934538084567,1.6495132853661671,1.9428370224062568,1.677547921964187,2.868739676911903,1.063016990363956,Stress
76.33294217178918,786.0297029702971,41.628945565686514,,,,,,,30.607025337330644,30.74701430852903,0.05296103367134411,0.038938764300726736,781.0,48.925799999999995,0.0626450704225352,68.0,1.3601107950504652,747.0,824.0,10.891089108910892,57.42574257425742,700.0,880.0,9.181818181818182,140.625,,,0.047675443765524565,0.02594836369996059,0.0007750910571821413,0.0743988985226673,1.837319852488308,0.640808462386028,0.34877349282334924,-3.6516467272365496,21.74142231880068,54.60656849896653,0.39814665005386946,3729.7756640554076,2.511637357402604,4.2786528209145045,548.6075896062742,0.45544554455445546,0.4646464646464647,0.6956521739130435,0.0,48.14519345831672,48.11992572849499,48.17203815959185,48.484848484848484,0.428858121884307,0.571141878115693,14.244438929071247,16.438437341250605,0.5377816004868873,0.4622183995131125,40.044959225143856,37.12517426072083,0.522865680123035,0.47713431987696475,30.054141143505287,28.709761285241566,1.2424688781539153,2.0941587602836362,1.5058898487920445,1.7059261277901894,-1.117603745856135,-0.5656171694290126,-0.40447893312011757,0.0005179646231197426,0.2107344031313449,0.5653447842888384,1.6486586255873816,6.101135616350901,1.2278491478863398,1.2828686899465815,1.3238899440509955,1.645164117836155,1.9215921576935604,1.6833876672644192,2.910337605790409,0.9888432895175933,Stress
76.36153663818547,785.85,44.14516343321717,,,,,,,32.00552351319277,32.09968240325144,0.05617505049719052,0.040727267943236965,780.0,51.149699999999996,0.06557653846153845,68.75,1.3792982769058724,743.8,825.0,13.0,56.99999999999999,700.0,914.0,10.0,140.625,,,0.046310424400185984,0.02890850677358639,0.0008314043266019648,0.07605033550037434,1.6019652887260047,0.6089443800015588,0.3801233299417081,-3.5436193751495986,22.69790310127359,56.46960350832603,0.40194904322157937,4026.709958544145,2.4878775478232393,4.311920458729832,561.9578348113789,0.45,0.4536082474226804,0.6818181818181818,0.0,54.08606395578366,54.00470429950373,54.18101475166495,45.36082474226804,0.5230201851870112,0.47697981481298873,16.45029619483975,15.709577216670429,0.5935976796258041,0.4064023203741957,43.50717009661061,35.999198193461766,0.583744778357212,0.41625522164278805,32.88986237971639,27.773486339480964,1.2317977348953983,2.291519287950428,1.5521169340593564,2.0205075325345683,-1.604795900957738,-1.713918359533623,-0.2955982299873426,0.001521078618933991,0.32953294547867745,0.5299481298308315,1.5314763709643886,6.168758439731453,1.1829303024152844,1.0639177724806677,1.1155924332160283,1.519540070066234,1.932411000235081,1.668711559959111,2.1979078876501625,0.9965784284662087,Stress
76.10857655847046,788.59,45.81563735519377,,,,,,,31.679742117101593,31.829811168054732,0.05809817187029226,0.040172639923282814,780.0,55.5975,0.07127884615384615,70.0,1.4462124466114652,746.4,829.0,12.0,56.99999999999999,700.0,914.0,10.0,140.625,,,0.04811961504156869,0.03769361593240465,0.0011049391250877846,0.08691817009906112,1.2765985393351704,0.5536197435671563,0.4336678497654176,-3.2782645375305886,22.507075320818803,60.81016196989094,0.3701202988402296,4299.768732087917,2.7018242531779415,4.340415207150888,657.1934817997211,0.43,0.4329896907216495,0.6428571428571429,0.0,48.359035191775405,48.336507571943066,48.384749805971424,49.48453608247423,0.46097406322654666,0.5390259367734531,15.286548708867263,16.53012092996248,0.48783555044983223,0.5121644495501678,42.47299466490258,43.51919717779186,0.48459717510118044,0.5154028248988196,31.918911692235174,32.917817523027786,1.317923846735264,2.0566089316308425,1.6308331727392011,2.234355406513383,-1.5277498875065163,-2.3186942887240254,-0.2065449709509903,0.002209269171504696,0.33780004558458887,0.5611834481941531,1.491654876777717,6.181209564709819,1.151686094969691,1.119571540461695,1.3701944458259325,1.8036928382404682,1.8537539511595884,1.6489255880204987,2.923615753696901,0.7972627427729669,Stress
76.23116919444826,787.32,46.9792303130658,,,,,,,32.11091887677945,32.26896218394353,0.05966980428931793,0.040785092309073116,782.0,57.8214,0.07394040920716112,72.75,1.4630297716904686,742.8,829.0,12.0,59.0,700.0,914.0,11.11111111111111,93.75,,,0.04055380012317129,0.0370956041281635,0.0012151584001737683,0.07886456265150855,1.093223875881894,0.514220820603201,0.47037101178236124,-3.294256803500396,22.81760198211873,62.48700050339227,0.365157581549782,4479.293821617608,2.7385437151704592,4.358179661114212,684.4935300336729,0.43,0.4329896907216495,0.6666666666666666,0.0,51.11796453353893,51.16903425794963,51.066479174293576,45.36082474226804,0.4825626959247648,0.5174373040752348,15.853281383115766,16.41614436822384,0.5183288875734398,0.4816711124265601,44.98755442172407,43.367559062775946,0.5141196767404732,0.4858803232595268,33.728375171803265,32.788984239998406,1.450149097735069,1.35007097141583,1.6008977653165473,1.8908710117442622,-0.6644759364556432,-1.0172473601856629,-0.28521629413036137,0.0004947157231813752,0.10498118698357149,0.5446601409451519,1.5824092400461809,6.168758439731453,1.1596047595891879,1.012140241364839,0.9154626954315042,1.027034471088609,1.881931819133383,1.6455870738049214,2.357560738351642,0.8637013046707142,Stress
75.64718407513476,793.53,49.89148932504127,,,,,,,32.21189315464182,32.374292668861685,0.06287284579668226,0.04059316365435689,789.5,52.632299999999994,0.06666535782140595,69.0,1.548853061368477,747.8,833.8,11.0,61.0,700.0,914.0,10.0,148.4375,,,0.056215704215630685,0.022061728139372218,0.000611436227321858,0.07888886858232476,2.5481097337658674,0.7125936171459549,0.2796557807943414,-3.8139109300848792,22.892081882270027,65.46583467889248,0.3496798290979539,4708.145467700133,2.859758890238634,4.3798199827490505,748.8660109194218,0.42,0.422680412371134,0.6585365853658537,0.0,50.5918289423444,50.528788793456556,50.66154520973589,46.391752577319586,0.47992173125784876,0.5200782687421514,15.859555800970014,16.509737386507048,0.5341137983743088,0.4658862016256912,47.84445460797618,44.68426650924672,0.528208881605117,0.471791118394883,35.641389892502616,33.684232973609596,1.4353797234823444,1.8344363017200873,1.6520548173588636,1.873510611926739,-1.0625832114449896,-0.7739163119386054,-0.37927855856307247,0.0003533883557135565,0.15706886231191378,0.4898379751994639,1.5260563034950492,6.228758439731454,1.116608435848916,1.1121659076261876,0.980987894073355,1.1304471442622601,1.8659344942491218,1.6163075335619879,2.396375853493519,0.8637013046707142,Stress
75.65511894317554,793.15,49.42260044092616,,,,,,,32.597793815167336,32.763647643160525,0.06231179529840025,0.041099153773141696,789.5,52.632299999999994,0.06666535782140595,68.5,1.5161332917545622,747.8,837.0,12.0,60.0,700.0,914.0,10.0,125.0,,,0.048105353318593586,0.056620063368935554,0.0016093109999208135,0.10633472768744995,0.8496167340036299,0.45239550958356545,0.5324701026682376,-2.8713918801019847,23.167397424885454,66.10967381061651,0.3504388403314889,4811.629023409476,2.853564973146455,4.389262245816437,754.5929982884513,0.42,0.422680412371134,0.6829268292682927,0.0,50.09402030838661,50.10271954818646,50.085621710345784,45.36082474226804,0.46776110039068813,0.532238899609312,15.844911627705466,16.90172675636838,0.5330142301011506,0.4669857698988492,48.265234011942994,45.17694275975849,0.5258771349779919,0.4741228650220082,35.920704605543406,34.10736375378075,1.3415220487740107,1.9308476251744882,1.591529760085896,1.9028091694290987,-1.2174594122544722,-1.1657139716912512,-0.3387861345013836,0.0006085359364795869,0.19749575143605305,0.48692424554280445,1.3291359472799422,6.1563073147530885,1.1387573868278276,1.3624592153944801,0.8521443722399444,1.0405873228340397,1.851182441464218,1.6424317421174703,2.5748907559008796,0.9301398665684615,Stress
75.40535903789747,796.0,47.36721504611064,,,,,,,32.53349921893695,32.700246519697366,0.059506551565465624,0.04087123017454391,792.0,48.925799999999995,0.061775,66.5,1.455952055060199,755.4,837.0,11.11111111111111,58.58585858585859,705.0,914.0,9.9,117.1875,,,0.04859032929314899,0.01992870149572121,0.000467960850667117,0.06898699163953732,2.4382084956002563,0.7043404580828432,0.28887622176439154,-3.9155943001303144,23.122566060549804,63.032916303829865,0.3668331947247201,4578.817166812309,2.7260346511182627,4.367723412360465,687.31965602111,0.42424242424242425,0.42708333333333337,0.6829268292682927,0.0,50.34351145038168,50.36387273182401,50.32331490550841,44.79166666666667,0.47217669629601045,0.5278233037039893,15.888950968726599,16.799147008291392,0.5350311291526373,0.46496887084736255,46.10594482766719,42.9812795215979,0.5275759964659126,0.47242400353408726,34.48345191057943,32.631286593696515,1.3634482326130957,1.5590091755267101,1.5630282293543676,2.068623073982613,-1.0709827002089387,-1.871076595603923,-0.17569476013030483,0.001405144251552422,0.19427731994430109,0.49747336244449514,1.2992829841302607,6.109055862460147,1.175989554395776,1.1647995811647929,1.0605837499638344,1.3180181935597712,1.8074167810202668,1.6353031422931206,2.5536702651322956,0.9374847745567124,Stress
75.46249779813941,795.1616161616162,47.93058481415259,,,,,,,33.255964633031915,33.4208983804865,0.06027778987311018,0.04182289984464323,791.0,50.4084,0.06372743362831858,67.5,1.4412628033211496,749.6,837.0,12.121212121212121,57.57575757575758,705.0,914.0,9.0,117.1875,,,0.049288208935447754,0.019589121621393705,0.0003836551545259951,0.06926098571136746,2.5161010221927986,0.711630197422361,0.2828305346826538,-3.9327808861425484,23.6321438781885,63.69401065624462,0.3710261551236071,4728.807019013332,2.6952277789334036,4.381721700930539,686.679467489563,0.40404040404040403,0.40625,0.6153846153846154,0.0,48.83458646616541,48.86044286794192,48.81176263524146,43.75,0.44321117508119295,0.5567888249188072,15.735736463917274,17.637091889233847,0.5364118786681673,0.4635881213318325,46.64958553075288,43.36753582216512,0.525130718262872,0.474869281737128,34.81233425276797,33.10445720440114,1.3609234154341772,1.740548774446629,1.5468881826309895,1.9309894901462443,-1.1489003959010287,-1.3363623498079429,-0.27932172131322675,0.000876764548895017,0.176633402330408,0.5064987069243139,1.308332819650179,6.096478968542606,1.1858166182914012,1.0497942344048192,1.3368872857045684,1.3973569472714276,1.8181810256810826,1.6605306520759124,2.8070770990646077,0.9374847745567124,Stress
