PPG_Rate_Mean,HRV_MeanNN,HRV_SDNN,HRV_SDANN1,HRV_SDNNI1,HRV_SDANN2,HRV_SDNNI2,HRV_SDANN5,HRV_SDNNI5,HRV_RMSSD,HRV_SDSD,HRV_CVNN,HRV_CVSD,HRV_MedianNN,HRV_MadNN,HRV_MCVNN,HRV_IQRNN,HRV_SDRMSSD,HRV_Prc20NN,HRV_Prc80NN,HRV_pNN50,HRV_pNN20,HRV_MinNN,HRV_MaxNN,HRV_HTI,HRV_TINN,HRV_ULF,HRV_VLF,HRV_LF,HRV_HF,HRV_VHF,HRV_TP,HRV_LFHF,HRV_LFn,HRV_HFn,HRV_LnHF,HRV_SD1,HRV_SD2,HRV_SD1SD2,HRV_S,HRV_CSI,HRV_CVI,HRV_CSI_Modified,HRV_PIP,HRV_IALS,HRV_PSS,HRV_PAS,HRV_GI,HRV_SI,HRV_AI,HRV_PI,HRV_C1d,HRV_C1a,HRV_SD1d,HRV_SD1a,HRV_C2d,HRV_C2a,HRV_SD2d,HRV_SD2a,HRV_Cd,HRV_Ca,HRV_SDNNd,HRV_SDNNa,HRV_DFA_alpha1,HRV_MFDFA_alpha1_Width,HRV_MFDFA_alpha1_Peak,HRV_MFDFA_alpha1_Mean,HRV_MFDFA_alpha1_Max,HRV_MFDFA_alpha1_Delta,HRV_MFDFA_alpha1_Asymmetry,HRV_MFDFA_alpha1_Fluctuation,HRV_MFDFA_alpha1_Increment,HRV_DFA_alpha2,HRV_MFDFA_alpha2_Width,HRV_MFDFA_alpha2_Peak,HRV_MFDFA_alpha2_Mean,HRV_MFDFA_alpha2_Max,HRV_MFDFA_alpha2_Delta,HRV_MFDFA_alpha2_Asymmetry,HRV_MFDFA_alpha2_Fluctuation,HRV_MFDFA_alpha2_Increment,HRV_ApEn,HRV_SampEn,HRV_ShanEn,HRV_FuzzyEn,HRV_MSEn,HRV_CMSEn,HRV_RCMSEn,HRV_CD,HRV_HFD,HRV_KFD,HRV_LZC,Labels
101.35626110797187,592.0601503759399,28.29679267575729,,,,,,,17.1313994899672,17.189336300239987,0.04779378017214923,0.028935234839043453,593.0,29.651999999999997,0.05000337268128161,40.0,1.6517502082844409,565.4,617.0,0.0,22.55639097744361,521.0,656.0,7.388888888888889,117.1875,,,0.051394957797653386,0.005212556368766694,0.0063563897835831155,0.0629639039500032,9.859837316217567,0.8162606600515718,0.08278642272413335,-5.2566848777638056,12.154696261995774,38.00178356358312,0.3198454157200018,1451.1020759272212,3.1265103417190048,3.86866807336623,475.25187726123966,0.5112781954887218,0.5116279069767442,0.7878787878787878,0.020833333333333332,51.74234424498416,51.80757421697836,51.67799941866538,44.18604651162791,0.5067114093959733,0.4932885906040267,8.65584566187137,8.540429222100602,0.6358123460147601,0.36418765398523995,30.301802166877724,22.933301974482895,0.6238216288356085,0.3761783711643917,22.28365857172844,17.30426639228793,1.308332956229579,0.7231858409164835,1.3630502132831905,1.6204608976114783,-0.7945605630414949,-1.794560563041495,-0.14406011599719004,0.0004813648320417053,0.0413240203226874,1.5810559231772106,2.445848865411578,-0.8647929422343676,0.35813149047142145,0.8767271583990415,-4.606548900895372,0.0,0.007637033924669999,0.6495221798788663,0.7965276944975579,1.6156684621847364,6.102138405647744,1.1066307728767812,1.4424724219498315,1.4019802040404479,1.7543196807678447,1.7937277420058526,1.608468520789688,2.3460484302400832,0.7957085453572771,Relax
101.02095598557887,593.984962406015,25.532802716934725,,,,,,,16.549970246242594,16.613016239744162,0.04298560457407998,0.027862608136079305,593.0,28.1694,0.047503204047217536,38.0,1.5427703093745162,569.4,617.0,0.0,20.30075187969925,542.0,656.0,7.0,93.75,,,0.05238386149307689,0.00798699352559188,0.008170453459513992,0.06854130847818277,6.558645793968508,0.7642670187679752,0.11652817407380256,-4.829940869665483,11.747176439085335,34.25497451426486,0.34293344559907457,1264.1744633187336,2.916017707905649,3.8087771231709255,399.5524490698121,0.5112781954887218,0.5116279069767442,0.803030303030303,0.0425531914893617,50.027457440966494,50.027997940424754,50.0267594916898,46.51162790697674,0.49157792836398856,0.5084220716360116,8.236253873126753,8.376174863475061,0.6038247015699376,0.3961752984300622,26.61822467308853,21.560922851907716,0.592013177525323,0.4079868224746771,19.70235725249157,16.355942338633806,1.247819662034624,1.2833115115663356,1.3421305946753705,1.889475417817792,-1.2737984184102729,-2.317825465283592,-0.07349028804832902,0.0024035941515119542,0.1731659763246882,1.3971434459982761,1.4597942735585483,2.1072336583743843,1.37733652159511,2.9548894920004773,1.4375287295543364,-1.0,0.00025010944296777177,0.11077453533709558,0.8650931817505292,1.6204877486206852,6.049165611981452,1.1681734271219602,1.4648399222436657,1.2887138229561808,1.8377330056579664,1.7877756612879285,1.6240353998848263,2.8838584485693857,0.7426613090001253,Relax
100.88924564090163,594.7669172932331,25.823083172151133,,,,,,,16.168150509847777,16.229166434677694,0.043417147829390434,0.027184011147473635,596.0,29.651999999999997,0.04975167785234899,39.0,1.5971575200529387,569.4,617.6,0.0,18.045112781954884,542.0,656.0,7.0,93.75,,,0.05736774388199299,0.01159645063762798,0.010165091842223396,0.07912928636184435,4.94700884560721,0.7249875048747484,0.1465506789053985,-4.45705620720593,11.475753638965703,34.7907079705463,0.32985110991937955,1254.2795901873587,3.031670865817049,3.805364465388909,421.8959030218168,0.5112781954887218,0.5116279069767442,0.7878787878787878,0.043478260869565216,50.508474576271176,50.515671895666095,50.50048847767715,46.51162790697674,0.500434707007477,0.4995652929925231,8.118398668861051,8.111343484884054,0.5926089496103447,0.4073910503896554,26.78226910349395,22.20593215246475,0.5835637233432878,0.41643627665671246,19.788864738515592,16.71671791784558,1.2940029736702272,1.3834909966011724,1.4181088669803925,1.8684018098466981,-0.7762446634259508,-1.4350566183115072,-0.17452412486055782,0.001517504803471362,0.15602213886377442,1.1706879801671632,2.736278538191053,-1.1396319120933258,0.2285073570022007,1.0671849884910642,-7.801004180126876,0.0,0.008548908346775484,0.5959582084937626,0.813515998335697,1.48054689936608,6.061462394112278,1.130598545876054,1.079470659998126,1.2848704690318065,1.7447134081920714,1.812462217658881,1.6083634927637596,2.814618798558903,0.6365668362858216,Relax
100.89125730138672,594.7669172932331,25.327218326381576,,,,,,,15.959465700785396,16.018298219929463,0.04258343493892534,0.026833142928353277,593.0,26.686799999999998,0.04500303541315345,38.0,1.586971569175726,572.0,617.6,0.0,18.796992481203006,542.0,656.0,7.388888888888889,101.5625,,,0.049983119292449966,0.015246057001882756,0.009674212882611935,0.07490338917694465,3.2784292546116993,0.6673011707704519,0.20354295272096326,-4.183434366613995,11.326647294380527,33.8815184486992,0.3343016432846854,1205.6301922236844,2.991310452962439,3.788184225306818,405.4005611913345,0.5338345864661654,0.5275590551181103,0.7910447761194029,0.06818181818181818,50.94991364421415,51.00293121020143,50.89839022701052,45.66929133858268,0.4905564974272032,0.5094435025727967,7.934127657114506,8.085421807273057,0.6024050439508737,0.39759495604912604,26.297058070735776,21.364035883088537,0.5911591720765362,0.4088408279234638,19.422739828034548,16.15233845323056,1.3937310204860538,0.21116618617026361,1.3937310204860538,1.4180008111661877,0.5097873102235209,-0.21098278852936225,-0.3850678173419056,5.795852042936835e-05,0.002836503882980256,1.1996205923663001,1.9454097431825317,-0.636460325008795,0.3362445465824708,1.3117520042633206,-4.359065014706786,0.0,0.0014964044835822931,0.22468625305221507,0.8207669259333796,1.506783758374017,6.013414578130599,1.1472724997833943,1.146300796315541,1.222854292615971,1.6526442109183423,1.846844063026744,1.5962592549315646,2.3403827284999346,0.5835195999286699,Relax
100.28450632471436,598.3409090909091,23.226015140783765,,,,,,,15.728371797147757,15.788747786468354,0.03881736111955352,0.026286639536388545,600.0,25.9455,0.043242499999999996,34.25,1.4766954545794537,577.2,620.0,0.0,18.939393939393938,548.0,656.0,6.285714285714286,85.9375,,,0.05532911776728008,0.01813194349984362,0.009978518640660966,0.08343957990778465,3.0514719929365137,0.6631039828871196,0.21730626544240264,-4.010080061954958,11.164330626255865,30.99384137487438,0.3602112591086046,1087.0711451514035,2.776148648086809,3.7432280780918417,344.1740433274981,0.5378787878787878,0.5354330708661417,0.7941176470588235,0.06976744186046512,50.02891844997108,50.029817126360875,50.027913668116085,45.66929133858268,0.46270867405190236,0.5372913259480977,7.594279223407375,8.183473026119826,0.5833407084161908,0.4166592915838092,23.672087004638744,20.006261520226325,0.5694861039278882,0.430513896072112,17.57897579607901,15.284301272628058,1.2451143763702612,0.9374699681278154,1.3515829220758215,1.713849360434169,-0.6878059621242034,-1.7036426902855213,-0.11357008685641896,0.0008784846888203646,0.081605480512634,1.5976682406883982,3.1545613573045457,-1.4858381805565068,0.09144249809576599,1.0,-7.16788421388134,0.0,0.00806462624756853,0.8073677014821979,0.7589242943888075,1.8718021769015916,5.930313437343593,1.208654038778017,1.3488679763468232,1.2690220999415556,1.5589691791302214,1.892388769608517,1.6284443344774566,3.1847950501175744,0.640399465396223,Relax
100.64754901516288,596.2348484848485,22.955602635158158,,,,,,,15.649305523210243,15.706957515266188,0.03850094085156699,0.02624688168257566,596.0,22.238999999999997,0.03731375838926174,30.25,1.4668767633881,575.2,617.0,0.0,18.181818181818183,548.0,656.0,7.333333333333333,93.75,,,0.03136624509978429,0.01329797699322981,0.007800173036493687,0.05246439512950779,2.3587230686106087,0.5978577475706536,0.2534666979463672,-4.32014336109588,11.106496170853726,30.55373960925885,0.36350693279745266,1066.0837338227032,2.7509791692396783,3.734761426949709,336.2108048297775,0.5303030303030303,0.5275590551181103,0.7910447761194029,0.09302325581395349,48.94613583138173,48.949067119603235,48.94422683839934,45.66929133858268,0.44754067701514877,0.5524593229848512,7.431223110839623,8.256465997582183,0.5872199304191322,0.41278006958086766,23.413415198936868,19.630155191250665,0.57091283867294,0.42908716132706015,17.369673114380777,15.05842328402639,1.2008368277691268,1.3014787646833268,1.3079742127991807,1.7538012825968772,-0.7105747483109717,-1.404764736101475,-0.15744575947332168,0.0015228886223253265,0.14372379724763346,1.114924708350972,2.250783435188613,1.315964219215645,1.1789060750905829,-1.2754422650762969,0.7238944595883265,-0.5608935279966537,0.00017711581096667062,0.16696473939049905,0.7624935849710308,1.9383629434199308,5.886567698625279,1.197291435691007,1.2007066584847075,1.2213423353934,1.6063351577978207,1.8864543720729845,1.6547123693687902,2.925892959507446,0.693766087512575,Relax
100.1990492812239,598.9469696969697,22.128809033033132,,,,,,,15.581355074389341,15.630322698806308,0.03694619081924556,0.026014582029311454,598.5,24.462899999999998,0.04087368421052631,33.25,1.42021081782583,581.0,620.8,0.0,18.939393939393938,551.0,656.0,6.947368421052632,93.75,,,0.060357829642142195,0.016999676397731145,0.007741411097298913,0.08509891713717226,3.5505281530063613,0.7092667177521246,0.19976372167379175,-4.074560970534677,11.05230717245996,28.997063856060674,0.38115263073954014,1006.8316151876369,2.6236208787532886,3.709926954190085,304.30920862121246,0.5303030303030303,0.5275590551181103,0.8059701492537313,0.09090909090909091,52.2248243559719,52.273567713088084,52.17736828184356,44.881889763779526,0.49276820525720033,0.5072317947427997,7.763821422271578,7.876938100947211,0.5763521682320173,0.42364783176798265,22.013950753604764,18.873677026226886,0.5657367729933824,0.43426322700661757,16.505922434978586,14.461359520053405,1.2956882518830888,0.7106705652866507,1.3352434557650341,1.4955569862682068,-0.13207103929740782,-0.6435122733154621,-0.2744193465526326,8.379414886284109e-05,0.02181665847284356,1.3188913637483712,1.159388589078398,1.127458441396989,1.707152735936188,0.9043318558267632,-3.850749731935908,0.0,0.008019044642519657,0.2973364500699397,0.8013464945873605,1.8925641683500207,5.842065403315224,1.2395147430202251,1.2627509949243094,1.0574034198534135,1.66251060521619,1.897498953677454,1.65245807835774,2.337014381722892,0.8004993317452788,Relax
100.12130659121597,599.3787878787879,21.980397339944442,,,,,,,15.655645519786829,15.715265924847314,0.03667196401416449,0.02611978574549232,600.0,25.2042,0.042007,33.25,1.403991762087606,580.2,620.8,0.0,20.454545454545457,556.0,656.0,6.947368421052632,85.9375,,,0.06249438141618327,0.020333353772613715,0.007763648444192477,0.09059138363298946,3.0734910785034772,0.6898490663236269,0.22445129941926603,-3.89549269826693,11.112371103609414,28.926580071704716,0.38415779107186154,1009.8426296739515,2.603097017009184,3.711223810091692,301.19477718772737,0.5303030303030303,0.5275590551181103,0.8059701492537313,0.08888888888888889,49.52718676122931,49.50333321688889,49.55020036194702,45.66929133858268,0.45278435280926876,0.5472156471907313,7.477659033105522,8.220518418988128,0.5605945170486584,0.4394054829513416,21.658157811285975,19.174755144881953,0.5467295092452857,0.45327049075471465,16.201715717694103,14.752087275079075,1.3028030338384111,0.4623516130513483,1.309329371996689,1.499894764720044,-0.12144485935691307,-0.9927776577870482,-0.08783448063326851,9.777870846711626e-05,0.012848756689473445,1.2956258125447062,2.068814124035536,-0.738046191897308,0.29636087012046,1.0,-3.952209823117636,0.0,0.006351493419980525,0.5182903643030105,0.8058485417299539,1.8412395264914252,5.848540804620326,1.2435406426792224,1.1673684430146494,1.169078266717725,1.7109227225025583,1.867040384579259,1.6344381369458776,2.7306886567648854,0.7471327096289269,Relax
99.79234627291704,601.1374045801526,23.36458969623728,,,,,,,16.527366582545632,16.58842697069122,0.03886730307949414,0.0274934922641999,602.0,28.1694,0.04679302325581395,35.0,1.4136910184416411,580.0,622.0,0.0,22.900763358778626,556.0,670.0,6.894736842105263,85.9375,,,0.06209933096022182,0.01870916368546468,0.009310124336851612,0.09011861898253812,3.319193311054698,0.6890843608273062,0.20760597417820917,-3.978741838494482,11.72978920019358,30.80530934885595,0.38077167371893966,1135.182413719305,2.626245776722702,3.762035764359919,323.60925431227724,0.5343511450381679,0.5354330708661417,0.8235294117647058,0.08888888888888889,51.127395715896284,51.09293398324329,51.1616798317791,45.66929133858268,0.49921148972120527,0.5007885102787948,8.289107450478694,8.30218986708611,0.5560644322217682,0.4439355677782319,22.97143536667606,20.525112454584406,0.5488630955301734,0.45113690446982657,17.268412566460142,15.655775258071431,1.2235185169598055,1.4228900289775783,1.3258303962568119,1.7493537512566908,-0.9777539355292539,-1.4628046613418055,-0.2023499031023481,0.0010812675871541306,0.13538197574957528,1.2690301077115687,0.5115908993370986,0.7574392083744701,1.0132346580430194,1.010566077868401,-0.3907243174852746,0.0,0.0006149432360653871,0.036442242714462336,0.7577175548811019,1.9153734251952317,5.901034737864886,1.2020062099153286,1.3287362696581992,1.1810983067930743,1.7295943561469345,1.9011478906827688,1.6372798038590737,3.058966610846142,0.7516635268818649,Relax
99.94279104775282,600.3257575757576,22.84514621377084,,,,,,,15.981859945833722,16.04156374762673,0.038054582741917274,0.02662197939060928,601.0,25.2042,0.04193710482529118,34.25,1.429442273377342,580.0,619.6,0.0,21.21212121212121,556.0,670.0,6.947368421052632,85.9375,,,0.05297473295178541,0.01072866766652351,0.009012669485296214,0.07271607010360515,4.937680483577809,0.728514795647063,0.14754190719104332,-4.534835899059064,11.343098506783146,30.318923314996233,0.3741260330696725,1080.4268064204396,2.672896060707362,3.740565460871551,324.1573227741681,0.5151515151515151,0.515625,0.803030303030303,0.08888888888888889,49.137931034482754,49.12584903332263,49.150875695159534,49.21875,0.4931560071727437,0.5068439928272565,7.966516466774208,8.076318658703547,0.5315471122351015,0.4684528877648983,22.104701576838522,20.751368127897855,0.5268324436540922,0.4731675563459078,16.614499938554758,15.745574017108078,1.2364766392876185,1.5232617452252066,1.3975967665693045,1.7646236087120903,-0.7373314933648896,-1.1235746030493985,-0.2590520189368225,0.0011518365005868771,0.15802690740488912,1.1448502476614209,3.065041899892669,-1.3405771416275352,0.19194380831879942,1.1332041389839023,-8.460238067933556,0.0,0.013222212463496884,0.8875894204217102,0.7551044285962085,1.8533173622274888,5.893535005735462,1.1942770398258908,1.363131588003379,1.051347742864503,1.727531706718953,1.9127166028640457,1.6219488713237225,3.2331006668133044,0.693766087512575,Relax
100.05784639501658,599.7878787878788,23.05255538915216,,,,,,,16.035504500331527,16.096913626624037,0.03843451360794328,0.02673529270504423,599.5,25.9455,0.04327856547122602,35.25,1.4375946443515737,577.0,619.6,0.0,22.727272727272727,556.0,670.0,6.947368421052632,85.9375,,,0.05319066971300776,0.013865033441169653,0.00984933765783582,0.07690504081201324,3.836317448399937,0.6916408749203721,0.18028770669352293,-4.2783851880045995,11.38223678156,30.460625990948092,0.37367048152399857,1089.2217697043914,2.6761546588361598,3.7440864227325537,326.0693846269662,0.5151515151515151,0.515625,0.803030303030303,0.11904761904761904,50.258769407705586,50.2730240590099,50.244945325569326,50.0,0.5040819355796348,0.4959180644203652,8.08131748588634,8.0156097709407,0.5228453471588791,0.4771546528411209,22.025483359166774,21.041098321035676,0.5205463806115495,0.4794536193884505,16.589599294627714,15.921335034404155,1.3094459488753754,1.1563119370196988,1.3947096829690837,1.835139730788066,-0.68617784212109,-1.5644360027003508,-0.11910792951411078,0.0011030484073557669,0.11378970864173658,1.4978135289879835,0.9704048306761344,2.037932362615191,1.9222054675983316,-1.2347347417606898,-2.2347347417606898,-0.619256305573238,0.0009534341397549853,0.09935125760283578,0.7326302936284077,1.7272209480904839,5.9181191913251325,1.1977791272796285,1.4456994900376505,1.2492502741920124,1.9040763698761556,1.9434919757298763,1.6355909605642576,2.3682990254528686,0.7471327096289269,Relax
99.91246863493804,600.5725190839695,22.009099703514643,,,,,,,15.966310686037552,16.025389813177135,0.03664686445707554,0.026585150300234117,601.0,23.7216,0.0394702163061564,32.5,1.378471215818284,580.0,619.0,0.0,22.137404580152673,556.0,670.0,6.55,85.9375,,,0.04909330802029838,0.014826503398864856,0.006012788039513416,0.06993259945867665,3.3111858338802294,0.7020089114420485,0.21201132967502337,-4.211338929535758,11.331661808055372,28.992512347367956,0.39084787383333136,1032.1179427539037,2.5585402069410472,3.7206994380286242,296.71403416390274,0.5190839694656488,0.5196850393700787,0.803030303030303,0.09302325581395349,48.9030023094688,48.91733390083079,48.889543181380425,50.39370078740157,0.47914906457453227,0.5208509354254678,7.845158483288083,8.17943156797548,0.514007481424024,0.48599251857597603,20.785983150817664,20.211597578276884,0.509386760015065,0.490613239984935,15.709926912210362,15.417713472519228,1.3318904433697665,0.4950640390318535,1.2888570712174585,1.1618686497012507,0.6043266310857724,0.8161905850943985,-0.7565090806525681,0.00019934254702468423,0.013694200887046787,0.5987958549203484,2.6985899999039806,1.2672494823385367,0.8277818127157521,0.43532461073037165,2.544696867175537,-0.6628508479014676,0.0067427125804005025,0.5452038793852597,0.7472285747872678,1.6863989535702288,5.9080552305255285,1.2354589807524794,1.2554536858347567,1.2609521295981547,1.957358902007576,1.9818554752092923,1.6583189419038342,2.8389285225112078,0.8590440307221313,Relax
100.71688212927084,595.5263157894736,25.386282070921098,,,,,,,15.982945456158745,16.021209629492244,0.042628312801369944,0.02683835295333771,598.0,23.7216,0.03966822742474916,35.0,1.5883356506818924,575.0,616.6,0.0,21.804511278195488,524.0,670.0,6.333333333333333,101.5625,,,0.0463515966965869,0.011067938752880294,0.004821414671996131,0.06224095012146332,4.187915901190226,0.7447122289446366,0.1778240648846329,-4.503702750784343,11.328705971825181,33.4436440980567,0.33874017851073396,1190.2652951045675,2.952115111931761,3.7826138808996306,394.9179485597625,0.5037593984962406,0.5038759689922481,0.7846153846153846,0.09302325581395349,46.77047289504036,46.65297949117905,46.87897971540042,52.71317829457365,0.4576809015421115,0.5423190984578884,7.6749319314683015,8.354502374388561,0.4346887914694241,0.565311208530576,22.049706553738528,25.1453329954388,0.4370614546937782,0.5629385453062216,16.508999655621952,18.736134625038957,1.3769456702590936,1.1134530849122344,1.4720997503499451,1.4455399330154184,-0.03604734270764531,0.3710978617523635,-0.5238535576347343,6.959364210542337e-05,0.044016868357995724,1.3252367709473243,1.9134321005784307,0.8536213945311948,0.768171430809619,1.1090090226212688,3.909270581221237,-0.5446579545183465,0.004542686043525306,0.4020182742920514,0.8436980336867976,1.619642082608342,5.991950270068393,1.1085751475202725,1.1769424698394524,1.266109218053403,1.7911258242940735,1.8605452000181135,1.5998969985744276,2.2783671201402895,0.7426613090001253,Relax
100.92916094964063,594.5413533834586,25.625068005289062,,,,,,,15.879756505270056,15.939024745295297,0.04310056459396825,0.026709254814489183,596.0,25.2042,0.042288926174496644,34.0,1.6136940133045998,573.4,615.0,0.0,22.55639097744361,531.0,670.0,7.0,101.5625,,,0.044828669433068694,0.014972932855562686,0.0040543193967638195,0.0638559216853952,2.9939805290994888,0.7020283828010532,0.23447994266422467,-4.201511184204293,11.270592482898486,34.45647668531388,0.3270964871374172,1220.021507256727,3.0572018940083816,3.793337596702594,421.36162313278896,0.48872180451127817,0.48837209302325585,0.7619047619047619,0.0975609756097561,50.75493612078977,50.73286908228548,50.77654697563949,51.93798449612403,0.5213603316709728,0.47863966832902716,8.138589633429987,7.798022845910591,0.493803160972716,0.5061968390272841,24.212955275498718,24.514925706440106,0.4964669647147022,0.5035330352852978,18.062445078043496,18.19052971600362,1.4743070825233642,0.5889527860769066,1.531600021419385,1.4872005569268878,0.5684007434486187,0.3845591458794084,-0.5753871372071232,2.0111054171272246e-05,0.012942269995299556,-0.2240430344131859,2.177857815211201,-0.7578532316534883,-0.9093635801179952,1.0,4.495347781152752,-0.5695685216024142,0.005189817844632172,0.4882310595059958,0.8170588959044895,1.5881605139868153,5.997626115949322,1.1081731028801605,1.203231293475628,1.2431619773260263,1.837982608985379,1.8929295288309091,1.5590819244872738,2.8820011286439535,0.9018030180715806,Relax
100.8998880995287,594.6992481203008,25.990378453529047,,,,,,,16.934365275165387,16.998850160457934,0.04370339887880856,0.028475511493735336,595.0,26.686799999999998,0.04485176470588235,35.0,1.534771338117083,573.4,616.2,0.7518796992481203,24.81203007518797,531.0,670.0,6.65,117.1875,,,0.046333734334105224,0.010030071788762933,0.0035989982990462504,0.05996280442191441,4.619481825246221,0.7727079275360208,0.16727155918506834,-4.602167519629826,12.020002220833835,34.87507529319458,0.3446588177883987,1316.9508729424215,2.901420037406222,3.826539684461949,404.74896904690166,0.49624060150375937,0.5,0.7692307692307693,0.125,49.8898678414097,49.88986527526574,49.889955198358955,50.76923076923077,0.4759866856871136,0.5240133143128863,8.292827766595193,8.701144962826568,0.5042819289482288,0.4957180710517712,24.76577121409407,24.55458109756997,0.5012776171497844,0.49872238285021553,18.467734243746072,18.420604991981975,1.4494769158074048,0.8041693019889413,1.5436792763207192,1.4629444478809055,0.311750869509968,0.3593818848941268,-0.6003953125792458,2.9068454887468815e-05,0.024082338650774204,0.6763217966839872,3.919647435830587,1.2572867163177432,1.9794412655143612,-2.580560578635408,-1.8787090786456955,-0.3157603302288868,0.008046841421750606,1.1181058534566224,0.7957404345318997,1.6211339521972918,6.0568314015202045,1.1130525189326712,1.1486891525042267,1.242713597173304,1.8083835031903144,1.8730808624977784,1.5527473275241024,2.793591538598603,0.9018030180715806,Relax
101.27844025876796,592.4850746268656,25.770746099126953,,,,,,,16.696989958798277,16.760033534660206,0.04349602581188533,0.02818128367083961,592.0,25.2042,0.042574662162162165,32.75,1.5434366411382652,571.6,613.4,0.7462686567164178,21.641791044776117,531.0,670.0,6.380952380952381,101.5625,,,0.05017837814010507,0.010220445381353862,0.002390610579350008,0.06278943410080894,4.909607778116039,0.7991532151658396,0.16277333165552751,-4.583365115767301,11.851133365272172,34.56448021194175,0.34287029032705374,1286.8851470623665,2.9165548261592735,3.81650989834027,403.2368063033017,0.5,0.5038167938931297,0.7727272727272727,0.125,49.805879090404865,49.80157415920183,49.81024603943467,51.14503816793893,0.4773591520806927,0.5226408479193076,8.188128879387191,8.567689480268472,0.4943098575617314,0.5056901424382686,24.30130890005881,24.57945642331489,0.492526737908656,0.507473262091344,18.132830292063236,18.40590912038765,1.4855383378050833,0.6714982497340882,1.5195189116904813,1.6222271643697135,0.109655068558272,-0.25481913272583423,-0.3470461349379474,9.87830157349721e-05,0.01865100074242529,1.9506390644429814,2.9528329764509165,-0.1626819670745041,1.3137345211509541,3.9366136647343932,-2.673495989003003,0.0,0.004228105492180741,0.3895079827062032,0.7825775872300369,1.547562508716013,6.107853160652488,1.114446052568839,1.2757819078007437,1.289047030000667,1.7580856043611686,1.8319103009315578,1.5370483361096798,2.614490652712572,0.7382481243761851,Relax
101.26791994453824,592.5263157894736,25.988511140959268,,,,,,,17.174240753365066,17.237727667731868,0.04386051800304016,0.02898477298933525,592.0,25.2042,0.042574662162162165,34.0,1.513226203951238,571.4,614.6,0.7518796992481203,24.06015037593985,531.0,670.0,7.0,117.1875,,,0.05177815545702278,0.011404866847463339,0.0018994513710632556,0.06508247367554938,4.5400052582410675,0.7955775577177415,0.17523714455475584,-4.473715098240432,12.188914126100173,34.73789036577406,0.350882393771081,1330.2042473975291,2.849957757220528,3.8308884401824943,396.006080469656,0.49624060150375937,0.5,0.7846153846153846,0.09523809523809523,50.92091007583966,50.913737004760115,50.92678537122731,51.53846153846153,0.4991010427903634,0.5008989572096368,8.612080987270017,8.627578716176213,0.49265184821935293,0.5073481517806473,24.382234193537318,24.743235091556596,0.49335896323283074,0.5066410367671694,18.28471059655851,18.52920393999503,1.4533325629971974,1.1466777498185343,1.474545303075876,2.0266714379064643,-0.75698158985929,-1.748206715160382,-0.018499303821004252,0.0012463295383788272,0.1238678750568814,1.2588376357680442,3.887927906890214,1.491153279222935,2.8477327267801575,-6.768381238862961,-6.900965021561098,-0.1510790631809086,0.002638658890661919,0.7778185860053582,0.8325880749149102,1.7533986013556087,6.145067021772154,1.1439106877217073,1.2546257796414628,1.156971374767161,1.4983661603538319,1.859358664544253,1.550307433209735,2.705637940240466,0.7957085453572771,Relax
100.98513583276493,594.2481203007519,25.84493561991477,,,,,,,17.18261983058533,17.246568818656513,0.04349182561458423,0.028914891345199582,594.0,26.686799999999998,0.044927272727272725,36.0,1.5041324242017147,573.4,616.2,0.7518796992481203,24.81203007518797,531.0,670.0,6.333333333333333,117.1875,,,0.050112011067537696,0.010471613049412807,0.003037551099389647,0.06362117521634014,4.785510200870888,0.7876624551045259,0.1645932036590756,-4.559087202030045,12.195165763872483,34.55303312417069,0.3529405282612271,1323.8042074211148,2.833338537023595,3.828793867025858,391.60176128706235,0.5112781954887218,0.5153846153846153,0.8208955223880597,0.09302325581395349,49.18743228602382,49.18240106003815,49.19347788378041,51.53846153846153,0.47459714666940367,0.5254028533305962,8.402108059726931,8.840399977134812,0.5075363528720659,0.4924636471279339,24.61612869460546,24.247851578452444,0.503887146543306,0.4961128534566939,18.392243089910302,18.24980791578892,1.3893077005482615,1.261146382931872,1.4382833588825412,1.9763360007474913,-1.176473899084808,-2.072669487048933,-0.07336226060126123,0.001328231580408383,0.13172833552362287,1.6065997358252442,2.536544944723635,1.7864595635664653,1.4102767569587529,0.9381414613347134,3.5643273659591497,-0.6483052005012664,0.005855924765765578,0.5929389622317882,0.8605777017609384,1.7327611284660993,6.12066767968316,1.1473704724501792,1.3741466108410234,1.0847796278105308,1.6280443868932253,1.8472917836217118,1.560323761233719,2.862418448684666,0.7957085453572771,Relax
101.34602138055781,592.1804511278195,25.711639442580182,,,,,,,17.498701250508436,17.56532205732539,0.043418588698110265,0.029549609780569096,592.0,25.2042,0.042574662162162165,34.0,1.4693455859664508,572.4,613.0,0.7518796992481203,24.81203007518797,531.0,670.0,5.782608695652174,101.5625,,,0.05061975519338561,0.009203217980583012,0.004998148490379365,0.06482112166434799,5.500223432736613,0.7809145212805965,0.14197869065330965,-4.688202075587927,12.42055834046042,34.23368609579985,0.36281685547102993,1335.8098941243104,2.7562115290970755,3.8327147658502594,377.4211212029351,0.5263157894736842,0.5271317829457365,0.8382352941176471,0.09523809523809523,49.86623863028359,49.86325015201734,49.869223303103325,51.162790697674424,0.4734901902570573,0.5265098097429427,8.546683656642356,9.012501918984244,0.5120895701683918,0.4879104298316083,24.497774314250773,23.912430185027088,0.5075995297120293,0.4924004702879707,18.346481241353647,18.069719258935503,1.4108669498155377,0.06447824750219366,1.387244097508808,1.3940995718060971,1.0309434914833124,0.24489749961314988,-0.39367771980688804,2.195475688642609e-05,0.0004351117017062603,1.5972743782023184,1.061421700468344,0.591413024808765,1.122123875042937,1.0,-2.838630463128119,0.0,0.0008901794746570677,0.08890100722272434,0.8481755159429971,1.7707060600302225,6.0905924917132355,1.1518626400113152,1.1619316652976,1.2112828368573085,1.7401971209650025,1.87682047864934,1.5651687979085362,2.5651434738376775,0.8487557817144289,Relax
101.36426636194147,591.9402985074627,25.756453660653307,,,,,,,17.373820076775008,17.436892690589154,0.04351191112616671,0.02935062897488466,592.0,26.686799999999998,0.04507905405405405,34.5,1.4824864967425353,571.6,613.0,0.7462686567164178,24.62686567164179,531.0,670.0,6.7,101.5625,,,0.0566509272103774,0.010842738000944558,0.004848395510546699,0.07234206072186865,5.2247806048105465,0.7830980572724009,0.1498815197237926,-4.524259731751414,12.329745064337732,34.32695564422237,0.3591855098403686,1329.6558803194469,2.784076675154368,3.830709368511047,382.27550615255234,0.5447761194029851,0.5390625,0.8695652173913043,0.11904761904761904,48.92357373519913,48.91018509661458,48.938100251042684,52.34375,0.46433019478902016,0.5356698052109801,8.402966647848157,9.025427044374872,0.5082022587679114,0.49179774123208875,24.471105217044986,24.07290786873749,0.5031875980977817,0.4968124019022185,18.295420725259845,18.179153261222822,1.4522284048322736,0.2705549551789752,1.4522284048322736,1.4365483442246882,0.8727162097166818,0.40564380854566995,-0.5579551780791181,5.608620818625358e-05,0.003255091136131239,0.7000359573911802,1.4095856562842393,1.1540359728245555,0.5871575280715846,0.9856357850896331,1.7800108476213599,-0.9021596291262638,0.0021551558598090366,0.2022745315000326,0.88534354376735,1.8638127868681122,6.132815682801339,1.1359398132778842,1.4586833774014307,1.2118773504906322,1.7893867986400354,1.8266705135169146,1.5740233214594133,2.8871605128170685,0.8437121421442116,Relax
101.67465187226173,590.0373134328358,26.869891671578703,,,,,,,17.835505688314385,17.897209095704184,0.045539309226478794,0.030227758960780716,590.0,25.2042,0.04271898305084746,33.0,1.5065393794347834,569.6,613.0,0.7462686567164178,26.119402985074625,531.0,670.0,6.380952380952381,93.75,,,0.05567341880590869,0.012302749612208033,0.0014836860492858021,0.06945985446740252,4.525282604358939,0.8015193701857841,0.17712029065626256,-4.397932495878414,12.655237915885985,35.69760945819547,0.3545121958574341,1419.2513658246867,2.8207774279284505,3.8590294308052266,402.7800439627318,0.5223880597014925,0.515625,0.8333333333333334,0.0975609756097561,51.57068062827225,51.52924591561322,51.611668044929935,50.78125,0.4896709842110239,0.5103290157889759,8.858526110391324,9.043455695091943,0.507083676227416,0.4929163237725841,25.420199173008843,25.062577581613738,0.5051384923782899,0.4948615076217101,19.034967964826265,18.84034084011617,1.3876537493701315,0.26414854292881795,1.3876537493701315,1.3523174532289466,0.5350310428024061,0.08118953956237096,-0.6337743367780275,0.00010168677067356644,0.004216637572729929,2.0072548154000684,2.19967861197555,0.6254643759376677,1.7253036819254426,3.706495530243867,-0.007320475221198386,0.0,0.0011270530006218958,0.17607422306992987,0.9051137899177242,2.012232791986386,6.159008033579901,1.1434764677505447,1.5716430588109203,1.2673020778685558,1.796145660358966,1.821177873922137,1.593956735321648,2.680925829240894,0.8437121421442116,Relax
101.28181105439711,592.4436090225564,28.230494347756398,,,,,,,17.982314544119074,18.049562936084317,0.047650939123695675,0.030352786780478924,592.0,28.1694,0.04758344594594595,39.0,1.5699032668177235,570.4,615.0,0.7518796992481203,27.06766917293233,531.0,670.0,7.388888888888889,46.875,,,0.050592419182217,0.012309756939985733,0.0033659618577468963,0.06626813797994963,4.109944609700444,0.7634501394550193,0.18575679527483066,-4.397363083904694,12.76296834955859,37.94730753865501,0.3363339635244898,1521.537049550436,2.973235261526557,3.8892526418905535,451.30509141568655,0.518796992481203,0.5079365079365079,0.828125,0.10256410256410256,50.7360672975815,50.74690520507329,50.723977821654586,53.17460317460318,0.4880283010027177,0.5119716989972825,8.916705310134807,9.132819769740609,0.49785277077356316,0.5021472292264367,26.77512032847199,26.890352932401424,0.496854237204409,0.503145762795591,19.955133452221514,20.081079126576775,1.4021716809582263,0.17234734258091655,1.5510641838593848,1.4648905125689264,1.3492496009816302,0.34924960098163016,-1.0,0.00010144727999979771,0.005053318512637606,1.3320732873382921,3.1637454268941934,1.340304087392947,2.749257013685269,-5.643508001417771,-6.064466928688546,-0.05465666917597974,0.0032841685839979542,0.6045486119221628,0.8698657191571249,1.9704512579714308,6.165780461638047,1.0978853183811839,1.313485717025988,1.2079410924065366,1.8317371350420553,1.8150087007943494,1.5734765011071572,2.5889482672137705,0.8487557817144289,Relax
101.47016659404716,591.3507462686567,28.21833709329939,,,,,,,17.935976363730543,18.00287627965033,0.0477184433626799,0.03033052122941271,590.5,25.9455,0.04393818797629128,36.25,1.5732813492306696,568.6,614.0,0.7462686567164178,24.62686567164179,531.0,670.0,7.444444444444445,125.0,,,0.05549254330442931,0.011429633122153438,0.004884443413700349,0.07180661984028311,4.8551465048227245,0.77280539632501,0.15917241540648985,-4.471545899489913,12.72995589820319,37.70990089691362,0.33757595738590446,1508.107024568339,2.962296271759771,3.8854022728020174,446.8315953414306,0.5298507462686567,0.512,0.8125,0.125,50.6322444678609,50.60224766581075,50.66264864651689,53.6,0.49700836722292346,0.5029916327770766,8.974922975950403,9.028783937714945,0.4910661611233642,0.5089338388766359,26.42563275944866,26.902092091839258,0.4916741022987214,0.5083258977012785,19.734022767310883,20.065411761433403,1.408100299895587,0.24240020882709135,1.4596999798354915,1.5293004043091325,0.7973848000404997,-0.19834486884964808,-0.21286978336190948,0.00012636651871970027,0.007848862847380511,1.171743585141891,1.2404043250301702,0.3703237691744379,0.8016467134299339,1.0,2.247783599395918,-0.15227229899814723,0.004718060533686539,0.2789316888525167,0.8660243945943118,1.9180531945523471,6.143337395743261,1.1009857042984905,1.2362298628176935,1.2192190420056264,1.6230189211505073,1.8103038486645455,1.5691154472933155,2.7776072730625376,0.8964441510282248,Relax
101.03359414486172,593.9097744360902,28.844530663388504,,,,,,,18.470697514351393,18.54043851375181,0.04856719304001356,0.031100174318378724,593.0,28.1694,0.047503204047217536,39.0,1.5616373253352687,571.4,618.0,0.7518796992481203,26.31578947368421,531.0,670.0,7.388888888888889,117.1875,,,0.06384664647745822,0.00770262852332527,0.004450306486830822,0.07599958148761432,8.288942701068395,0.840092079821036,0.10135093342034482,-4.866193641709223,13.110069799246139,38.765536609097204,0.33818878689711124,1596.6167335973114,2.956928315616315,3.9101707866135285,458.5076514780015,0.5263157894736842,0.512,0.8125,0.1282051282051282,50.508130081300806,50.518126870016076,50.497284839327605,54.400000000000006,0.4960696362748146,0.5039303637251852,9.234022718865223,9.306896400556257,0.48436067729799337,0.5156393227020065,26.979272764798875,27.83676830513624,0.4855624791250031,0.514437520874997,20.163684366825642,20.75456564571425,1.3602767838527339,0.7866326658680611,1.4140711211336598,1.5725799265399982,0.01044682170909006,-0.43321246917121314,-0.29849704660888765,0.0002127341448925419,0.03240075259599915,1.7499910147749524,1.2020800900585031,0.6873832590093245,1.288423304038576,1.2789446685857504,-0.533995914337904,0.0,0.0017525668463095618,0.14238157536612667,0.8435060388574454,1.9156963704588166,6.180818055623011,1.125521098961031,1.3185275576797315,1.055084271645759,1.6536006058769621,1.8162459605316994,1.5985335640906506,2.683127364039539,0.9018030180715806,Relax
101.43613016445934,591.5223880597015,27.5941904144737,,,,,,,17.417474588832665,17.48316248875869,0.04664944382745605,0.029445165458513035,590.5,25.9455,0.04393818797629128,36.0,1.5842819390226588,569.6,615.8,0.7462686567164178,22.388059701492537,531.0,663.0,6.380952380952381,109.375,,,0.06015704151481331,0.005963566255532605,0.0033059048979923286,0.06942651266833824,10.087427377704334,0.8664851395056136,0.08589753433276322,-5.122086611831598,12.362462752387549,37.155808597769905,0.33271951866846317,1443.0506866492742,3.0055345234988913,3.86625169576456,446.6922619564575,0.5149253731343284,0.5,0.8095238095238095,0.13157894736842105,49.73118279569893,49.72947689846498,49.73327940360785,54.761904761904766,0.47186973332011506,0.5281302666798849,8.49219784522383,8.98420330863617,0.4846406106373715,0.5153593893626287,25.86643748424122,26.673611012158684,0.483367732243054,0.5166322677569458,19.250844297959812,19.902228939478892,1.4672786226781958,0.5666089154344844,1.6831941574732738,1.7288547946057413,-0.15756544871951306,-1.157565448719513,-0.419414192243244,0.00040752034022062546,0.03399927228226522,0.8800607038107466,1.1324933529111407,1.2542858673228492,1.0990759950604785,0.5029044093897816,0.19583400632432668,-0.6370514642433837,0.0014089909479531194,0.12279862958695377,0.8843922563972666,1.838279484862948,6.142399358287491,1.1158920243982045,1.3010796978358314,1.2195282914144967,1.5977124319353686,1.809577450924314,1.5505030239420985,2.9594056148571397,0.8964441510282248,Relax
101.62882282359107,590.4179104477612,27.595711366560323,,,,,,,17.36126532930669,17.426799023906828,0.04673928564536988,0.029405045175781085,588.5,25.2042,0.04282786745964316,33.0,1.5894988552463036,568.0,613.8,0.7462686567164178,20.8955223880597,531.0,663.0,6.7,85.9375,,,0.05527706353873241,0.007214782481587675,0.0038174092061669562,0.06630925522648703,7.661639651618189,0.8336251606193904,0.10880505982075564,-4.931623235292862,12.322607764179626,37.16678033223078,0.3315489707214037,1438.8232215541784,3.0161456928191974,3.8649775483600424,448.4016976600605,0.5149253731343284,0.5,0.8095238095238095,0.1,50.215053763440864,50.21576021595337,50.21389368172825,53.17460317460318,0.47480542805827175,0.5251945719417281,8.491082666449834,8.930285549745875,0.4875715704354758,0.512428429564524,25.95219693686502,26.60550759550494,0.48630722360397494,0.5136927763960252,19.308223775095303,19.844432902132414,1.449653279436751,0.7124786019812903,1.5040344303019828,1.805892580427396,-0.23163305473418205,-1.2329909689440706,-0.07632671453431232,0.00033445104082988194,0.04155824115864439,1.6006450536598114,1.0675242698782097,0.5331207837816017,1.0668829187207065,0.9407966475745895,-2.050410598585766,0.0,0.0015251579030744475,0.11697356534114695,0.8633213001048539,1.7863686205931786,6.157950500370374,1.1099694827207143,1.3310002772849758,1.1844302182960358,1.6825845067779035,1.8297490726101149,1.5527247379605302,3.0921730114938675,0.7909801332601983,Relax
101.3354926913544,591.9774436090225,28.804583538202664,,,,,,,17.92767456062038,17.994426553790724,0.048658245088856696,0.030284387951208646,590.0,29.651999999999997,0.050257627118644066,40.0,1.6067105324119568,568.0,618.0,0.7518796992481203,23.308270676691727,531.0,663.0,7.388888888888889,62.5,,,0.057716868471389945,0.012113497805609125,0.006563593732288221,0.07639396000928729,4.764674035328119,0.7555161227978396,0.15856617203947113,-4.413434926986084,12.723981039748695,38.47022207307972,0.3307488325795901,1537.7919364092772,3.0234422664496146,3.8938676892620645,465.24998166180853,0.518796992481203,0.504,0.8253968253968254,0.0975609756097561,50.81024568740199,50.76328201279274,50.85882906325854,52.0,0.48443134944018856,0.5155686505598114,8.856791071917812,9.136998020379968,0.5112963383051716,0.4887036616948284,27.508127876453326,26.893510129485914,0.5086468356093582,0.491353164390642,20.434527733213113,20.084143246715666,1.4444435453648559,0.1715351177158797,1.450579538387974,1.5298295430378814,0.7534611269712421,-0.23318114181003047,-0.03799545128028967,4.500351550392916e-05,0.0032560793222246183,1.341176628888557,2.8140908185848916,1.6079078947673737,2.713027654731746,-5.603584856308768,-6.603584856308768,-0.10729065577204841,0.005503137049274512,0.5929763955728247,0.7918629454309776,1.75539182505718,6.155353228946973,1.104564278360382,1.1223410735627972,1.1172412287600346,1.5745686028061774,1.878664905604902,1.550082994593171,2.7243490293247374,0.7426613090001253,Relax
101.60334913654205,590.5970149253732,28.605462279525206,,,,,,,17.622396890901395,17.68898219618453,0.04843482367268609,0.029838276262077166,588.0,27.428099999999997,0.04664642857142857,39.5,1.6232446957481967,567.0,615.8,0.7462686567164178,23.88059701492537,531.0,663.0,7.444444444444445,62.5,,,0.05006122185828009,0.010714168132644485,0.005814020585627933,0.06658941057655252,4.672431983380115,0.7517895326724466,0.16089897837926143,-4.536188288847873,12.507999263210188,38.440024833857926,0.3253899891394752,1510.5022594933166,3.0732352972646613,3.886091489213424,472.5409645885693,0.5223880597014925,0.5079365079365079,0.828125,0.09302325581395349,50.13319126265318,50.1435857915392,50.12299433047778,51.587301587301596,0.47955354332615063,0.5204464566738494,8.661784755552123,9.023538243075297,0.4979966756741362,0.5020033243258637,27.1266948125534,27.23560055835382,0.4962308925043427,0.5037691074956574,20.135591456484793,20.287954310359204,1.4308065094952176,0.2553826430425179,1.6602827590588038,1.532591437537545,1.571438868259695,0.5714388682596949,-1.0,0.00022219378577592857,0.013524747060511062,1.221790257628553,1.2013100339089846,0.3199137407199846,0.709286167213422,1.0,2.8019996028434893,-0.17587682155084905,0.004257009703257475,0.25698619228827924,0.7865171431654105,1.7386496439141066,6.164641522402015,1.0911218992211666,1.1413328740933335,1.0295230803964945,1.4374096635719829,1.9034326711387268,1.5643930882937669,2.4253375034204403,0.7909801332601983,Relax
101.20576525612915,592.8283582089553,25.988292945412677,,,,,,,17.89757827949571,17.965115813507982,0.043837803279060644,0.030190152059472366,588.5,24.462899999999998,0.04156822429906542,37.5,1.4520563921872078,570.6,616.4,0.7462686567164178,24.62686567164179,535.0,663.0,6.380952380952381,54.6875,,,0.05541214277438507,0.010531544866266658,0.005316373078597614,0.07126006071924934,5.261539828964162,0.7776044844067428,0.14779028757439427,-4.55338025265075,12.703255216533172,34.339300680135125,0.36993342802353146,1370.428376343786,2.703189071998084,3.843826452594328,371.30248935439056,0.5298507462686567,0.5158730158730159,0.8461538461538461,0.08888888888888889,49.767201241593376,49.753220657874444,49.78051523934984,52.38095238095239,0.47738422176842005,0.5226157782315799,8.777122466268702,9.183524443922455,0.47008023634811824,0.529919763651882,23.543847862420492,24.997495855223715,0.4709594796393473,0.5290405203606526,17.767254303305855,18.830984045503943,1.2362821183285972,0.8069163889343574,1.326545805881857,1.6203999325619878,-0.2356209612049316,-1.1969402007373553,-0.13583076176181658,0.00032136179197081596,0.05015037560577883,1.69864397401517,1.9001249606129644,2.8179094688403037,1.8678469885338216,4.074160016444052,2.8870877396660597,-1.0,0.0009395119109571435,0.22217479645939855,0.8022811176619187,1.6255240501857247,6.050872026149503,1.1772567908898472,1.2340082434051414,1.06980879917519,1.5037904029863745,1.9101554180382645,1.6330010168518139,2.509810385740262,0.8437121421442116,Relax
101.82942581499417,589.4253731343283,25.286144937486487,,,,,,,16.775384759658614,16.83610161564168,0.04289965462977083,0.028460574526091114,586.0,25.2042,0.04301058020477816,33.5,1.5073362131338126,568.0,611.4,0.0,21.641791044776117,535.0,663.0,6.7,54.6875,,,0.06208195491804991,0.013676932098789665,0.005433812952723091,0.08119269996956266,4.5391725622110695,0.7646248362392561,0.16845026836054033,-4.292044653722548,11.90492162116602,33.6693493468596,0.35358335851763095,1259.2476150067887,2.8281874016707618,3.807081246946079,380.89291858096,0.5373134328358209,0.52,0.8615384615384616,0.06382978723404255,48.90350877192983,48.85741494697473,48.949294770274754,52.0,0.4846104520679705,0.5153895479320295,8.28882051045536,8.547992853189678,0.48228554398894186,0.5177144560110583,23.3822794229169,24.225897185233656,0.4825439798712497,0.5174560201287501,17.54188610819698,18.16538296111169,1.321105404307172,0.3535885728190049,1.5032172440148903,1.473011030884205,0.3804808692274868,-0.6195191307725132,-0.5854275716261544,0.000283453887933013,0.017950108567085753,1.0316201446052138,0.7085409680854643,1.1121893319775724,1.3051087123376317,0.13163675954632126,-0.7067994078330504,-0.2277230406572773,0.0003298371715138631,0.03357323932101378,0.7802073430599732,1.5290163451235261,5.99117053361219,1.1673468351505505,1.1903042939102253,1.0127643472815806,1.5519258186070262,1.8778528548836064,1.629661453784696,2.8782842903429997,0.8437121421442116,Relax
102.09290036994084,587.8283582089553,25.871145746693582,,,,,,,16.44859845024626,16.50962008199358,0.044011394457933194,0.027981975045170037,583.5,25.2042,0.04319485861182519,34.0,1.5728480347397777,566.0,610.4,0.0,20.149253731343283,535.0,663.0,6.380952380952381,101.5625,,,0.05738331329330264,0.014231730604924251,0.005048920744362271,0.07666396464258915,4.032068543613924,0.7485043796107627,0.18563781134035032,-4.25228125762545,11.674064314791265,34.75802006714969,0.33586678102601686,1274.7557626420141,2.9773709592391575,3.81239709387094,413.95007819433346,0.5298507462686567,0.5158730158730159,0.8461538461538461,0.06521739130434782,49.26636568848759,49.24955445557828,49.28418486218538,51.587301587301596,0.4902456647398843,0.5097543352601155,8.174470606526743,8.335530013506077,0.4904552485225871,0.5095447514774133,24.341913949620793,24.811110097245475,0.49043400007257365,0.5095659999274263,18.156964840354142,18.50773142316066,1.3888792319453809,0.3044590127230866,1.5868112801609708,1.4345817737994275,1.5233589370360683,0.5166533137966414,-1.0,7.109862131302118e-05,0.008071225344144164,1.5099638162252074,2.1877548411369934,-0.6777910249117861,0.41608639565671063,1.0014178915091336,-3.3522377858630468,0.0,0.004254133508375313,0.4441643454576927,0.7703803045486093,1.4247606419476868,5.962257824799301,1.1318859596506925,0.9504575431434266,1.0206360260423717,1.374280541279573,1.9028194558020484,1.6273854540525456,2.875078702383824,0.8437121421442116,Relax
101.7777772616033,589.3656716417911,26.770408150661883,,,,,,,16.855199327237344,16.91609438551087,0.04542240825816641,0.02859888204938023,584.5,27.428099999999997,0.046925748502994004,37.0,1.5882581766566206,566.0,613.0,0.0,20.8955223880597,535.0,663.0,6.7,109.375,,,0.05222471294031662,0.011513324832021988,0.004688348795777781,0.06842638656811639,4.536023581569082,0.763224766930057,0.1682585535999453,-4.4642502333203495,11.96148505118642,35.788451813511294,0.33422750761938724,1344.8625064860464,2.9919739614573655,3.835647995990404,428.3124637875897,0.5149253731343284,0.5,0.8253968253968254,0.06818181818181818,51.128233351678595,51.08104018980585,51.17572645801231,48.41269841269841,0.4930263332010057,0.5069736667989945,8.400261539939928,8.51825134993128,0.5140360950257528,0.48596390497424724,25.65899956267516,24.94852750465758,0.5119243306349588,0.4880756693650412,19.091210706719963,18.641212818795644,1.3195385912350739,0.5616350552707905,1.3612555006218148,1.470111682566348,0.10696886216773471,-0.5294890475639749,-0.3061798655141841,2.2653461104237703e-05,0.01248203511122985,1.480137334127649,2.367217539114797,-0.22531908589983685,0.9582896836575616,2.7312279111164486,-0.6390697023076606,0.0,0.0004777841301816061,0.26773037569714664,0.7697672575890642,1.3958638121360414,5.95296594048709,1.1073116061540098,1.0179403145922377,1.1900237659060542,1.4266201882609306,1.871603264667108,1.6193347168956584,3.166729483965309,0.7382481243761851,Relax
101.50365047002936,591.1203007518797,29.26525439937911,,,,,,,16.8250804851963,16.888681472463304,0.04950811934923392,0.02846303952646444,585.0,28.1694,0.048152820512820514,41.0,1.7393827283696153,566.0,619.4000000000001,0.0,20.30075187969925,535.0,668.0,6.65,109.375,,,0.06153820017648652,0.012187353396753899,0.002911182371049823,0.07663673594429025,5.049348958148471,0.8029856624011316,0.1590275635644671,-4.407356471714816,11.942101194478406,39.75259300024197,0.300410622129875,1491.4066730484674,3.3287771015223124,3.8805661918984296,529.3100852213665,0.5037593984962406,0.48800000000000004,0.7868852459016393,0.07142857142857142,49.52593418851088,49.533474494335074,49.51953766189375,48.8,0.47137848904113255,0.5286215109588672,8.199329706359404,8.682921730097096,0.5305733657349693,0.46942663426503095,28.955974453035164,27.23637629564663,0.5256731713070893,0.4743268286929107,21.280007802611504,20.214021414466913,1.2882714785156035,0.7274193605306807,1.350132204260868,1.6519811587809439,-0.2851685988436454,-1.2856728228494456,-0.08504135180033533,0.00033979531660500317,0.04310011562659405,1.421042680543051,1.1013091783290088,0.3197335022140422,0.8703880913785466,1.0515541929624572,-1.2510105191005703,0.0,0.002920626545178233,0.18007508864156824,0.7144622246378516,1.376244025266389,5.996875247753008,1.0460121101769404,1.149778639672849,1.1468171020014177,1.5003445303541718,1.8153929787808243,1.5983566966475193,2.8357226769219315,0.6896140726429735,Relax
102.2394896380349,586.8740740740741,32.31963259674376,,,,,,,16.868676261223644,16.930058052813692,0.055070813355889425,0.028743263685378804,582.0,29.651999999999997,0.050948453608247415,40.0,1.9159554725131296,562.8,613.8,0.0,20.0,517.0,668.0,6.428571428571429,93.75,,,0.054334453309381615,0.00979923369950866,0.006003305265716613,0.07013699227460689,5.544765537340535,0.7746903815984338,0.1397156248323536,-4.625451090290603,11.971358855026478,44.07598314760049,0.2716073017574471,1657.6595137336153,3.68178614319076,3.926465440463059,649.1133760013797,0.4740740740740741,0.4609375,0.7288135593220338,0.046511627906976744,49.071038251366126,49.01281880192501,49.127919754373124,48.4375,0.4649881982690794,0.5350118017309204,8.16419838920796,8.75738141931184,0.5212260643259108,0.47877393567408927,31.82109138190969,30.49771194190991,0.5173615781864911,0.4826384218135088,23.22967920650426,22.436601380501266,1.4718841014481563,0.38946379059240055,1.6147348004209165,1.5999122465222286,-0.017051326197242034,-1.017051326197242,-0.5380588754506338,0.0002650127606052514,0.017738291847470177,1.8292224425189674,1.274388476063614,1.9810784545492273,1.8542087349068506,-2.6107536880259,-3.6111856506201168,-0.5995534109302819,0.005660498017040162,0.2281934305254981,0.7989466970661776,1.3905226972294118,6.034088515787807,0.9788988974809062,1.0865388883576639,1.1615237024811955,1.6103644007033406,1.7659845930937297,1.5336577654837864,2.5251211816925445,0.7338919878423084,Relax
101.53583476517404,591.0895522388059,35.13999128867176,,,,,,,19.142913253200227,19.21187225502512,0.05944952191351685,0.032385808851966146,584.5,31.875899999999998,0.054535329341317364,50.0,1.835665806133098,563.6,627.0,1.4925373134328357,22.388059701492537,516.0,690.0,7.882352941176471,93.75,,,0.0450345516341818,0.006504747674196526,0.004306202110154956,0.05584550141853328,6.923335675698524,0.8064132381348146,0.11647755878216207,-5.035222957286292,13.58484515081795,47.89625462981803,0.28363063575247993,2044.1187367788361,3.5257122255040336,4.017476229032167,675.4736420168143,0.4552238805970149,0.4496124031007752,0.7413793103448276,0.022222222222222223,51.20967741935484,51.20388742639443,51.21190044592709,49.6124031007752,0.5429849398826377,0.45701506011736226,10.01211387482305,9.185380347117485,0.4808304260529397,0.5191695739470604,33.2121908268701,34.510890861348834,0.4854597614157354,0.5145402385842646,24.52847369653133,25.252453347795168,1.5067784241446727,0.5083887024541036,1.2567442420103838,1.252584072917621,0.9775452077374529,1.4195419510169687,-0.5081830478778953,0.00048195154459011546,0.02849015368008803,1.1145050098734763,2.2289757822820606,1.263985946796271,2.0256174577214128,-2.876332982738342,-3.349895694787322,-0.1583042682745654,0.0015008769379387988,0.29624492988093787,0.724530159898686,1.1216018068928082,6.116399780262386,0.9592113064822003,0.9716470163813338,0.9882026749832532,1.4632776757292894,1.7600172368518379,1.5047690732381374,2.3944001491718647,0.6855161154921718,Relax
101.28830713693301,592.4962406015038,34.851117120513265,,,,,,,19.191025364619122,19.261610982603553,0.058820824053047685,0.03239012174176217,588.0,32.6172,0.05547142857142857,54.0,1.8160112061946068,564.0,628.6,1.5037593984962405,22.55639097744361,516.0,689.0,7.823529411764706,54.6875,,,0.042290969335264814,0.004411131883563229,0.002947261263466548,0.04964936248229459,9.5873282530612,0.8517927969436899,0.08884569031749961,-5.423623959516172,13.62001574237625,47.416579718001564,0.28724163200673564,2028.8862842165365,3.481389494321459,4.014227816176387,660.3023299476265,0.45864661654135336,0.45736434108527135,0.7457627118644068,0.022727272727272728,51.03587670540677,51.0839025434249,50.987465472868834,49.6124031007752,0.5408207343412527,0.4591792656587473,10.017541866055161,9.230508657508311,0.49295546610957425,0.5070445338904258,33.291553957112946,33.763952186825435,0.49660459630181547,0.5033954036981846,24.583314564125914,24.750825818046657,1.4893948693738988,0.8208043780157457,1.5162340537370034,1.8176208315401832,-0.4455907435045692,-1.1184102041324886,-0.13281533837359938,0.0007490469458340301,0.05516218615562398,1.0499908284244892,1.6177261717216134,1.9214028552199531,1.6634534544246118,-2.7397844776480884,-3.7397844776480884,-0.6594518314065644,0.004065197867263397,0.309080989117857,0.7421488316895335,1.3558351536351818,6.072814085874135,0.976138650256842,0.8428858500514933,0.9673350676580029,1.3722675123843509,1.7227901197205775,1.4964098550299367,2.1926168816656673,0.5835195999286699,Relax
101.88920606667459,588.9477611940298,34.93846732055458,,,,,,,18.726162792529887,18.78888540141426,0.05932354212489152,0.03179596566351582,583.5,32.6172,0.055899228791773774,48.0,1.8657568935848403,560.6,624.6,1.4925373134328357,20.8955223880597,516.0,689.0,7.444444444444445,93.75,,,0.032151845495272294,0.008208046517097287,0.005744509960361332,0.04610440197273091,3.917112973019864,0.6973704054178806,0.1780317315893621,-4.802640323282101,13.285748278276948,47.56939445353741,0.27929193614717074,1985.4708505498652,3.5804828946907286,4.004833625366592,681.285612606747,0.4552238805970149,0.45384615384615384,0.7288135593220338,0.022222222222222223,48.115642746515235,48.101019444287004,48.13428758089735,50.76923076923077,0.5097450631445786,0.4902549368554214,9.489627511289909,9.306441236307705,0.49339056807794707,0.5066094319220529,33.41358270574423,33.858230601179166,0.49457491738631537,0.5054250826136847,24.56135724605463,24.829313602347867,1.519932409211903,0.5366213219390488,1.5569170253882374,1.7415743354558608,-0.09521270090836609,-1.095212700908366,-0.15588898070547125,0.0005521300768577159,0.030493632332969946,1.5071596987630773,1.5679354139982227,2.2567406435733455,1.4727729365742341,2.661255709256226,0.996548972628915,-1.0,0.000711243749109319,0.14360116171380874,0.7459455659359091,1.366091653802371,6.141362302411241,0.9490625256150163,1.0385390551357472,1.086096258232214,1.3415277109397066,1.7236219990982309,1.4852008000321086,2.3868852934293545,0.6327841066081586,Relax
102.55042427268009,585.2074074074075,35.91513552314976,,,,,,,18.71686126257253,18.787092140818913,0.06137163519898253,0.03198329519698355,577.0,32.6172,0.056528942807625646,46.5,1.9188652958051269,555.0,621.2,1.4814814814814816,20.74074074074074,516.0,689.0,7.5,93.75,,,0.04768614552313322,0.003867699307517986,0.0034070711834711157,0.05496091601412233,12.329331142791139,0.86763738637253,0.07037181306301686,-5.555095442903578,13.284480251549546,49.16122200550122,0.27022274283708797,2051.7153604743453,3.7006507649982687,4.01908721983734,727.7140552916313,0.45925925925925926,0.4661654135338346,0.7419354838709677,0.022222222222222223,50.025523226135796,50.02327023079856,50.02780924714495,47.368421052631575,0.5195236776516201,0.48047632234838006,9.575187231919582,9.208324119116723,0.5171372912222972,0.4828627087777029,35.352945014984535,34.161308930450225,0.5172996877279192,0.4827003122720808,25.898985807931126,25.01787621806021,1.4816450438853526,0.6330029464392601,1.632053380268467,1.6556896816910822,-0.6394404075480704,-1.5893578287075942,-0.462660045177399,0.0009245076201912974,0.05002136235186832,1.4030644419287652,2.260765852627181,-0.8577014106984158,0.27268151561517473,0.8149779490105169,-3.5805035408148225,0.0,0.012851241157805345,0.7856129558531845,0.7342080382901996,1.1022289291382983,6.204122726472127,0.9316791567668036,0.9602926550535662,0.9825677873337392,1.3455083684987068,1.6907055891231162,1.5039995422157197,2.2909240892456824,0.6814711315678578,Relax
103.25807578846157,580.92700729927,36.72085379560077,,,,,,,18.22510388899624,18.27903873513621,0.06321078781707196,0.03137245068657551,573.0,32.6172,0.05692356020942408,48.0,2.0148501769458607,551.0,612.4000000000001,1.4598540145985401,19.708029197080293,516.0,689.0,8.058823529411764,54.6875,,,0.03441237300287663,0.0037239512769200256,0.0032452876905772602,0.04138161197037392,9.240822568263603,0.8315860925744814,0.08999048368599297,-5.592970003186735,12.925232243186388,50.15445180587375,0.2577085737715644,2036.5623744602012,3.8803520789588104,4.015867825866274,778.4677253358467,0.45985401459854014,0.4666666666666667,0.746031746031746,0.02127659574468085,47.550283651366684,47.48525416426448,47.61839359655148,48.148148148148145,0.4921081176809157,0.5078918823190844,9.073771725877465,9.218138319317738,0.5218569569334108,0.4781430430665892,36.23140925164095,34.68074421905935,0.5200017143241941,0.4799982856758056,26.41068296819704,25.37447628683095,1.5048503436916798,0.7897254935309119,1.5627244451436642,1.7189010282556239,-0.8652136031327782,-1.1710780090813273,-0.3022394054753324,0.0013813822564122634,0.06348656312372904,1.5874585638362488,0.8937465837282903,1.847407672425037,2.0013697472723972,0.20637197390475137,-0.7277038092392556,-0.32773408295995593,0.0010093165999476357,0.08669347655959204,0.7542331753956364,1.1949433976065418,6.265629893053172,0.889189668753555,0.8979823615560754,1.029238788393977,1.3204327635209507,1.6817925344573939,1.5108863045641736,2.4487774645016906,0.7253463442441414,Relax
103.93417721738061,577.3357664233577,35.40070566184812,,,,,,,17.870860277525072,17.93643460318995,0.06131736109328267,0.030954015525898413,570.0,28.1694,0.04942,40.0,1.9809178244412278,550.0,602.8,1.4598540145985401,17.51824817518248,516.0,689.0,7.2105263157894735,54.6875,,,0.043266676494931613,0.003036913915427602,0.0036747889640596737,0.04997837937441889,14.246922270379732,0.865707872814247,0.06076455366181855,-5.796913438586114,12.682974538224654,48.6030506856073,0.2609501741005001,1936.5759000324454,3.832149196477902,3.9940046328791943,745.0165665248991,0.45985401459854014,0.4666666666666667,0.7301587301587301,0.020833333333333332,49.524312896405924,49.52073018705227,49.529986185899624,45.925925925925924,0.5083344845052262,0.4916655154947737,9.042901861353693,8.893401632254815,0.5359782329831416,0.46402176701685843,35.582553084203106,33.10798169562108,0.534215751600066,0.46578424839993415,25.960471471683697,24.240782212525374,1.4979713203845455,0.6796381442371153,1.6867697119023883,1.6415963975158068,-0.7115525430845331,-1.643433499314876,-0.5664667143385367,0.0015457443094320999,0.07263228328671288,1.6602787291772416,1.4710316382433946,2.1756812565991077,1.4401654374774104,2.0489679043870987,0.6272786934344641,-1.0,0.0015300785256875031,0.18981566550160137,0.7570116708296606,1.1839721376192667,6.200996659678915,0.9025428842080603,1.1037295775729203,1.0192074953382078,1.426392109014391,1.6534884926421398,1.5245787123238592,2.5432910487629177,0.7253463442441414,Relax
104.30994587511812,575.2028985507246,36.485205364848646,,,,,,,17.960418768385285,18.02303997510359,0.06343014866019694,0.031224492807039348,567.5,30.3933,0.05355647577092511,41.0,2.031422865767,547.4,602.6,1.4492753623188406,18.115942028985508,505.0,689.0,7.2631578947368425,70.3125,,,0.044592118475165525,0.0027477031066690284,0.0036615542866250926,0.05100137586845965,16.228870712754492,0.8743316766625162,0.05387507807153624,-5.8969899502444045,12.744213783991972,50.08922588333842,0.2544302404208483,2005.4287681261333,3.930350410964981,4.00917735062044,787.4728381419877,0.463768115942029,0.47058823529411764,0.75,0.02040816326530612,48.77795111804472,48.73247166450142,48.82688447153134,46.32352941176471,0.5009390627474939,0.4990609372525061,9.021624348328462,9.004696487029944,0.5364013527177598,0.46359864728224026,36.68506154657662,34.10479158294307,0.5342445438893606,0.4657554561106394,26.7131376532079,24.942146737395262,1.4298280420165503,1.4493467767427122,1.4298280420165503,1.8344067965262894,-1.0610333682326676,-1.0221165840824842,-0.22085441455288118,0.004463920484440049,0.1972980823381211,1.7544390334538045,1.5548807417674666,0.2915447705500067,0.9769986625700712,0.8476370304994871,4.0134052038012165,-0.05915982904200474,0.019176006394511846,0.6829595272581952,0.7727265451808947,1.255797872190522,6.242698779565384,0.8868436348662575,1.0070648219080618,0.9786997966331021,1.3801936356934124,1.6532252406584689,1.51857472439298,2.4685462362321084,0.6696436082472188,Relax
104.5019170252592,574.0652173913044,36.634355564369216,,,,,,,17.748650611811197,17.805307702926058,0.06381566841977444,0.030917481279331808,564.5,27.428099999999997,0.048588308237378204,41.75,2.0640642697642684,546.4,602.0,1.4492753623188406,17.391304347826086,507.0,689.0,6.9,70.3125,,,0.04984357948554383,0.003272360963131389,0.0042346628570988296,0.05735060330577405,15.231687471863586,0.8691029668824005,0.05705887601014876,-5.722243547520872,12.590253817852085,50.209698735848804,0.25075342284144947,1985.9667532827468,3.9879814547229397,4.0049420837350995,800.9413896231634,0.45652173913043476,0.4632352941176471,0.746031746031746,0.02040816326530612,48.006379585326954,48.03201495934877,47.98713272963296,46.32352941176471,0.4758208401881503,0.5241791598118496,8.68886203880645,9.119710392718554,0.5386708892374085,0.4613291107625915,36.85100773142105,34.10303617456139,0.5349494995905858,0.465050500409414,26.772122575084197,24.961832805009546,1.51802582688761,0.8869305014120057,1.5836242908801021,1.8501807577058025,-1.1027309389417113,-1.614906992163152,-0.19946183336649406,0.001247875476694019,0.0733061230823004,1.7001933460513965,1.5181328073591778,2.1523346394671425,1.3932682357875537,1.9209417207515838,0.3774745627044638,-1.0,0.001433150875111362,0.1958689563071732,0.7689139142726313,1.1759039629697563,6.2008550294869975,0.860797555040059,1.1212275605182307,1.1097339035985423,1.3990163358910501,1.6194309244478753,1.5169203947322232,2.26945408835805,0.7211546550354664,Relax
105.07267267109064,571.0652173913044,34.48160548909637,,,,,,,17.447104626671287,17.509032815712345,0.06038120417596531,0.03055186009466973,564.0,22.9803,0.040745212765957446,32.5,1.9763511612341993,546.4,591.2,1.4492753623188406,16.666666666666664,507.0,689.0,6.9,85.9375,,,0.04356940214297219,0.0027054410934389647,0.0033196554124440177,0.04959449864885518,16.10436177990845,0.8785128054516169,0.05455123384943052,-5.912490314011156,12.380755836007989,47.28398998031539,0.26183822137603385,1839.1245773639562,3.8191521266250485,3.9715812581391234,722.3390035545559,0.45652173913043476,0.4632352941176471,0.7301587301587301,0.020833333333333332,48.99945916711735,49.00154667801867,49.001641673735065,46.32352941176471,0.4933458024602545,0.5066541975397453,8.697109053148232,8.813634157305573,0.5372651841085087,0.46273481589149124,34.65839649537068,32.1647518384371,0.5344466643119912,0.46555333568800905,25.26701558863527,23.582317611794075,1.5106488878776956,0.6948999440441392,1.6336946244669073,1.6318810154252117,-0.7701538581547656,-1.7079773969088294,-0.5026098851456813,0.0017609979889525896,0.0725585459739706,1.4185140168056354,2.2458769222816835,-0.827362905476048,0.2955755556647937,0.8013117769678924,-3.433422240433758,0.0,0.014082418537632792,0.7775887042573487,0.7725508315951566,1.2667928167058065,6.128391261371058,0.8832146914481835,1.037179438868093,1.0510909873022714,1.298755936996599,1.612012175217893,1.5353472624181224,2.5633321315020616,0.8241767486119617,Relax
105.096895409803,570.927536231884,34.41367867602831,,,,,,,17.408362786043693,17.471042717009745,0.060276789070567945,0.030491370062370283,564.0,22.9803,0.040745212765957446,32.5,1.976847512829742,546.4,588.0,1.4492753623188406,15.942028985507244,507.0,689.0,6.2727272727272725,85.9375,,,0.045396370414029226,0.0036677755785234543,0.003078545992673896,0.05214269198522658,12.377085086624781,0.870618080610246,0.07034112430487159,-5.608169910068367,12.353892779597434,47.21791394794495,0.2616357171817648,1832.5696797628234,3.822108123354103,3.9700306067599063,721.8878898731016,0.4492753623188406,0.4558823529411765,0.7258064516129032,0.02127659574468085,49.24568965517241,49.244566850515916,49.25020502450735,47.05882352941176,0.49963871092056455,0.5003612890794353,8.7329666140638,8.739279146474267,0.5369216224363871,0.463078377563613,34.59889615681199,32.13172548005591,0.5345326871328294,0.4654673128671706,25.23240298854047,23.545942137931902,1.4390316285195224,1.4325686600474894,1.4390316285195224,1.8185373602247314,-1.125239869615239,-1.0086407607431687,-0.23508723016973684,0.005798954494898516,0.22367734822370214,1.4527654344012428,2.075192010667192,2.4872073859527513,1.4496113806191553,3.6401300929963263,0.2754064524409561,-1.0,0.0015861495666339622,0.16615147068011135,0.7906285999957312,1.2671058438547727,6.133861460662098,0.8856262696448806,1.1008560981894393,1.0813741537800918,1.3476678359505874,1.6389906493764805,1.5340799413383204,2.512565642770383,0.7211546550354664,Relax
105.13008418450048,570.7482014388489,34.3285687263496,,,,,,,17.505071728841447,17.56817883698722,0.0601466086792875,0.030670393151851175,564.0,22.238999999999997,0.039430851063829785,31.0,1.961064156611805,546.6,588.0,1.4388489208633095,18.705035971223023,507.0,689.0,6.318181818181818,85.9375,,,0.04390768825414153,0.0024746816855525343,0.002597997281660933,0.048980367221355,17.742762032983666,0.8964344439418203,0.05052395124701301,-6.001643503130668,12.422578388731656,47.06997436839276,0.2639172541609318,1836.9848745738552,3.7890663995398297,3.9710756903742106,713.4050332259121,0.4676258992805755,0.47058823529411764,0.734375,0.043478260869565216,49.438802779262424,49.41588228731861,49.46355118035596,47.05882352941176,0.5005084304869108,0.4994915695130892,8.788886479380949,8.779953942981473,0.5377072967029354,0.46229270329706496,34.515719168652176,32.0038687866309,0.535284855085854,0.46471514491414584,25.185108648531855,23.46630785352442,1.4312844646503324,2.6128625663586558,1.4312844646503324,2.191636115334469,-2.7022629031698315,-2.0188737889264825,-0.20899669179930125,0.00949489529171658,0.5343984683327805,1.8019312173363686,0.9300968518326871,1.0075888493465017,1.3678824912751129,1.0,1.859223107920596,-0.11262782341572358,0.008094220500600427,0.2762733168404329,0.7838203891587612,1.290690020407429,6.1047836129340975,0.897308159233663,1.1472858198235114,1.1492899091054989,1.4004327917180246,1.640578301080185,1.537038213787976,2.2511046612337657,0.7682310510133282,Relax
105.12760205572704,570.863309352518,34.495158542639984,,,,,,,17.57798359443929,17.640844866260583,0.060426301668896766,0.030791930934178466,563.0,23.7216,0.042134280639431615,33.0,1.9624070279342145,545.6,588.0,1.4388489208633095,18.705035971223023,507.0,689.0,7.315789473684211,85.9375,,,0.04987160594592416,0.003897987385091628,0.004437178194706953,0.05820677152572274,12.794193777195062,0.8568007576899347,0.06696793659770374,-5.547294914153511,12.47396103079275,47.2639860287998,0.2639210544618873,1852.1860158084035,3.7890118393127654,3.9746547108726813,716.3352105449424,0.4676258992805755,0.4744525547445255,0.7538461538461538,0.0425531914893617,50.73761854583773,50.7209192981524,50.75183404167738,46.715328467153284,0.514423076923077,0.48557692307692296,8.947331698643314,8.692853008688052,0.5395206107723601,0.4604793892276398,34.71637455975477,32.07269419237171,0.5378860925292797,0.4621139074707204,25.350359041823605,23.49705732839807,1.559108639935582,1.4535646329771925,1.6122995726616844,2.030226605451664,-1.5794013430714173,-1.6501132959213436,-0.21248128682521616,0.0030097255104513283,0.17360762218574388,1.7044400028132471,1.2991243743966026,2.721046004987505,2.0714838177892037,3.6113522829616382,1.8101304768212954,-1.0,0.0020434188820735466,0.11291434413826118,0.8158335046833072,1.3862943611198906,6.145140738649471,0.8978076269581187,1.2813492183088453,1.0611968601067763,1.4532755570826397,1.6546503663698917,1.5264585151197416,2.3297851646041767,0.8194464544142167,Relax
104.83973828973026,572.3623188405797,35.29705887728679,,,,,,,17.926858697879076,17.991923668789944,0.061669082179950575,0.03132082268132723,564.0,26.686799999999998,0.04731702127659574,37.75,1.9689483513061201,545.4,596.8000000000001,1.4492753623188406,20.28985507246377,507.0,689.0,7.666666666666667,85.9375,,,0.046532961122040015,0.004594525468236842,0.005817285796889604,0.056944772387166456,10.12791450253885,0.817159489297161,0.08068388502808911,-5.382889799837731,12.722211232792116,48.43803724476639,0.2626491896957844,1935.9717315658752,3.807359928116506,3.9938691215526663,737.6841680093536,0.4782608695652174,0.4852941176470588,0.7424242424242424,0.0425531914893617,49.42708333333333,49.42167854810668,49.43505631491838,47.794117647058826,0.4969791950576905,0.5030208049423092,8.969105470512456,9.023457991127739,0.5396540071714367,0.4603459928285632,35.583137589864165,32.864627966647845,0.5368998742194411,0.463100125780559,25.948068653373614,24.098823264879748,1.3751694018700202,2.417783939869161,1.3751694018700202,2.2220302936761267,-2.300964527907178,-2.132102863066015,-0.14973673708332494,0.008194245648953736,0.506201786232289,1.2512283435539893,1.6206458623461726,-0.3694175187921833,0.440905412380903,1.097303469643656,-2.2370588645239686,0.0,0.0021349754426525317,0.21353112408426475,0.8321611584776778,1.267235001103902,6.235310736024413,0.9012448504872466,0.9817250082017385,1.0691643201288314,1.4910795166145345,1.6764370243607705,1.5577369819763023,2.4787380585203187,0.6696436082472188,Relax
105.74826042869014,567.3741007194244,32.78968408413854,,,,,,,17.293921190549227,17.340116075612332,0.05779200009757507,0.030480632035584133,562.0,23.7216,0.042209252669039146,33.0,1.8960236792369236,543.0,585.8,1.4388489208633095,18.705035971223023,507.0,689.0,7.315789473684211,85.9375,,,0.03287380871128022,0.00531975997942186,0.00563600741763313,0.043829576108335204,6.179566153067845,0.7500371126114658,0.12137374922980797,-5.2363270932963975,12.261313663627346,44.0737774399122,0.2781997454233134,1697.7242397669052,3.594539594126455,3.9368372594307393,633.6997522819269,0.4676258992805755,0.4744525547445255,0.7230769230769231,0.043478260869565216,47.16062736614387,47.34016852087068,46.97357095062195,50.36496350364964,0.48331839216921463,0.5166816078307853,8.532462698894687,8.82204438626811,0.4419456769748155,0.5580543230251845,29.29980427917013,32.92444877329363,0.44492305139341753,0.5550769486065824,21.578709999739388,24.102362894315167,1.3788194905071829,2.5459508565432207,1.4424734383546318,2.4047737811550207,-2.7589196100190563,-2.8312657586062686,-0.12202713366315418,0.00964505317954809,0.6160749705508177,1.2567820159381113,0.5363563323878591,1.606933797918118,1.3387556317241884,1.8461392958869638,0.5995360972834698,-1.0,0.0002082280572203609,0.015988294163627025,0.8230797654212725,1.3504014380592841,6.138991436690669,0.9375946300589562,1.1090098263493513,1.103544165278106,1.5599005793654415,1.6544619611572884,1.5449409534972258,1.9867739950844239,0.6658002442115512,Relax
106.24610383003214,564.7857142857143,29.748293153209495,,,,,,,16.866594629280957,16.927408846713337,0.052671822960026926,0.029863706185649853,561.5,22.238999999999997,0.039606411398040955,29.5,1.763740328564338,543.0,581.4,1.4285714285714286,16.428571428571427,507.0,689.0,6.666666666666667,85.9375,,,0.03143309360346182,0.00679129034642968,0.005896756297018813,0.044121140246910315,4.628442019120392,0.7124270458006351,0.1539237270030721,-4.99211431917311,11.969485583428156,40.47545470444324,0.2957220782528774,1522.0085601984779,3.3815534028030254,3.8893872049958906,547.479646343239,0.4642857142857143,0.47101449275362317,0.7230769230769231,0.0425531914893617,50.30538589672403,50.31004839458294,50.30023030252922,48.55072463768116,0.5176643147965506,0.4823356852034494,8.612007121842542,8.312946076077248,0.5037752824837852,0.49622471751621466,28.72831565259043,28.512213405776883,0.5048922443949426,0.4951077556050573,21.207107144793923,21.0006117263323,1.3564796125685954,2.485105107783758,1.3564796125685954,2.155151712106446,-2.2154254347578632,-1.8515923642128156,-0.17861637037553135,0.006346165231319233,0.46196815447415923,1.836359227586047,1.8352102689315766,2.6876028686938556,1.7699977342280673,2.788644195941238,0.03480080209594316,-1.0,0.0018199849885334586,0.17594678453051615,0.8699057675293567,1.6094379124341005,6.0354781316084765,0.974579629118808,1.3730565234609162,1.072292017802984,1.5540563399782883,1.6174651187616724,1.581256621810017,2.092334984959799,0.8147752019365676,Relax
106.07595058586877,565.6142857142858,29.02878395743226,,,,,,,15.75509509913329,15.799593363550537,0.05132257916854641,0.02785483941452606,562.0,20.7564,0.036933096085409255,27.25,1.842501347962614,545.8,581.0,0.7142857142857143,17.142857142857142,507.0,689.0,6.086956521739131,85.9375,,,0.046620471144414734,0.009563785788421821,0.008030663658418194,0.06421492059125475,4.874687929632922,0.7260068332275388,0.14893401253733368,-4.649771627334316,11.171999607356558,38.8049145735159,0.28790166735688094,1361.9699204959882,3.4734081576554634,3.8411376261238264,539.1412273470941,0.4785714285714286,0.48550724637681153,0.746268656716418,0.041666666666666664,47.54653130287648,47.73875335680653,47.34234847063513,47.82608695652174,0.4201083963713301,0.5798916036286701,7.246938384037012,8.514267650431739,0.5037576751777585,0.49624232482224157,27.54213290954932,27.3359161150781,0.4973455693414101,0.5026544306585898,20.13811313342574,20.245308882229665,1.295020208952868,1.3770851701190843,1.3042209334105614,1.9322947107029762,-1.0553580799440443,-1.8515499312824808,-0.04391072468081136,0.002018369997620386,0.17533556730214003,1.683758138533002,1.355330499475587,2.605472359221384,1.9278071094835905,3.1692806705118812,2.2256547564387787,-1.0,0.003130129874394776,0.2656238178670643,0.8858457469084398,1.5573088469991534,5.9441872812432885,1.0050109276112285,1.4117185410516873,1.1326799171216109,1.5334585947613413,1.6053426653012481,1.6619241168199166,1.9809222964322846,0.6110814014524256,Relax
106.70588683841007,562.2836879432624,21.534134445153004,,,,,,,14.431612126558438,14.47967707872706,0.038297633217711124,0.02566606934543452,562.0,19.273799999999998,0.034295017793594305,26.0,1.4921503056144243,546.0,579.0,0.0,14.893617021276595,507.0,617.0,6.130434782608695,93.75,,,0.05079653043316176,0.011245299168538147,0.008288306384222443,0.07033013598592236,4.517134641938134,0.7222583849877591,0.15989303889287323,-4.487805089341548,10.23867785175932,28.593081979768236,0.35808234519818316,919.7180731319038,2.7926537384761123,3.6706248307342673,319.4023091414149,0.46808510638297873,0.47482014388489213,0.7272727272727273,0.043478260869565216,48.632580261593326,48.67297489897427,48.59216909819081,48.201438848920866,0.45400919130255857,0.5459908086974415,6.900630770876763,7.567442570007366,0.5516199317161297,0.4483800682838703,21.23640232726835,19.146267346303784,0.5405213350120537,0.4594786649879463,15.789292081052587,14.557570888484422,1.2771493424782048,1.4481294260961988,1.3466263113677341,2.001214055526304,-1.5329857705745678,-2.5482234062257407,-0.04797704379008595,0.0019961425077635966,0.19207731845845377,1.1710211789825957,0.6810670078543481,1.7018922873191453,1.402716999020703,0.9816846003705209,0.19935996814865486,-0.939274381005435,0.0027653686212629914,0.10316896145099397,0.8568750944630197,1.7676619176489945,5.870226551073579,1.1880092034283891,1.437141948396837,1.2524617153927033,1.63878282297613,1.7689445297459476,1.6698026244210986,2.389829329330119,0.7595267396168929,Relax
107.50859259778096,558.2978723404256,23.922119077435745,,,,,,,13.935053436772831,13.979326977140671,0.04284830779876067,0.024959889921048896,559.0,20.7564,0.03713130590339893,28.0,1.7166865693035895,539.0,576.0,0.0,13.47517730496454,499.0,617.0,6.409090909090909,85.9375,,,0.047907596787194334,0.01165139626856945,0.006824375129832561,0.06638336818559634,4.111747268988594,0.721680717574514,0.1755167986655057,-4.452329254772678,9.88487690196021,32.20441678452902,0.30694165238567206,1000.084224310534,3.257948187310533,3.7070066865747995,419.6812851461969,0.45390070921985815,0.45652173913043476,0.6825396825396826,0.043478260869565216,48.2608695652174,48.188822157030856,48.33118666160977,48.55072463768116,0.45644817185315983,0.5435518281468403,6.681069573614843,7.290725358905848,0.5337035230920024,0.4662964769079975,23.52694154405256,21.991077327279545,0.527046724220666,0.4729532757793339,17.29383805094676,16.38234046577871,1.3341582466865622,2.1127401633803737,1.3647884308040426,2.390528328376749,-2.393347750796794,-3.4024526265558013,-0.014497847226263814,0.005257151055752764,0.4432451565952753,1.1896822002834175,1.842113286864937,-0.6524310865815195,0.268625556850949,0.9488003606725746,-2.1013717897306776,0.0,0.007395983218207541,0.44749926899835873,0.8229236217647955,1.821612432377736,5.932778459360348,1.0806393601154087,1.1420351024061859,1.199882664368796,1.692790138835563,1.7287780866612859,1.602999778125574,2.8281466417058123,0.8101618555913525,Relax
106.77888890704021,562.113475177305,27.531045384796716,,,,,,,15.45615919764212,15.503305021773585,0.04897773599203029,0.02749651072279819,561.0,22.238999999999997,0.039641711229946516,29.0,1.781234589573628,544.0,584.0,0.7092198581560284,17.02127659574468,499.0,660.0,7.05,117.1875,,,0.047742998979626146,0.00853386601040168,0.005724976661769472,0.0620018416517973,5.594533464836874,0.7700254977545845,0.137638911733105,-4.763712795019023,10.962492111699557,37.24004070977603,0.2943737950539283,1282.5352596324076,3.3970415057386587,3.8150394235922667,506.0238558660261,0.45390070921985815,0.460431654676259,0.703125,0.02127659574468085,52.02741290691034,51.99797537225127,52.054448020972345,47.482014388489205,0.5329047690237704,0.46709523097622957,8.00696639129745,7.496282052078652,0.5442378029637727,0.45576219703622733,27.47289962672867,25.140811804026285,0.5433331481050827,0.4566668518949174,20.234521549713932,18.55066929749145,1.4162424014417871,1.6276263106607454,1.5144534042093587,2.0162574786552834,-1.2015730705148417,-1.5500512555028925,-0.1916957712226868,0.0018458561074988188,0.18994279195116393,1.4975640245078934,0.9275954317129242,1.1979394598941386,1.6617371757506008,0.9232572313400178,-3.095067204636691,0.0,0.004293631216000466,0.14217729156416484,0.8840067055572929,1.7143728056126348,6.057372760739568,1.0247357604630303,1.2738950727992293,1.234498633295057,1.4991871810760917,1.6474639115108543,1.558507299072784,2.161807624140409,0.860796971565812,Relax
106.0953730512979,565.6285714285714,30.952584498764146,,,,,,,16.442181234282973,16.500578973295674,0.054722455799199134,0.029068866151432244,563.0,22.238999999999997,0.039500888099467134,30.5,1.882510845594262,545.8,586.2,0.7142857142857143,21.428571428571427,499.0,677.0,7.368421052631579,117.1875,,,0.05038554943568333,0.009218474520245237,0.006774005524916581,0.06637802948084515,5.465714454710337,0.759069677568889,0.13887839986128891,-4.686545708438206,11.66767128552153,42.31957045109824,0.27570391573335884,1551.2268339751888,3.627079424461743,3.8976454187622966,613.9857729409503,0.44285714285714284,0.44927536231884063,0.6774193548387096,0.021739130434782608,50.702702702702695,50.71471483802985,50.68835505781144,49.275362318840585,0.5171110756293578,0.4828889243706423,8.390816235709687,8.108413951667378,0.5448984462836858,0.45510155371631417,31.239137572903292,28.54929643382984,0.5429352298329696,0.45706477016703034,22.872357917366404,20.985813108839547,1.3808039653807351,1.5387185280070335,1.6185584413162397,2.150163229384252,-1.6081429502969176,-2.60635236877903,-0.1545145987443506,0.001914654924267275,0.20901416912665438,1.613032466693953,1.743361495893987,1.8798472495957212,1.0081665016487278,1.5336295658035364,0.0834948858605904,-1.0,0.006549337780064577,0.4077119999888195,0.7766217754206659,1.3426737386440002,6.082231721059605,0.9816255770212027,1.3135501088747048,1.182104169222798,1.7998989692107668,1.6100170314177455,1.5476667925758516,2.1651285044420674,0.8147752019365676,Relax
105.55647739566439,568.4532374100719,30.635354924127874,,,,,,,16.54988068611486,16.609401249908476,0.053892480344919,0.029113882368790305,564.0,22.238999999999997,0.039430851063829785,33.5,1.8510921924549308,549.6,589.0,0.7194244604316548,21.58273381294964,499.0,677.0,6.95,117.1875,,,0.05193933025158875,0.005562855922367518,0.0031456567833735172,0.06064784295732978,9.336810260130498,0.8564085335752484,0.09172388746424825,-5.1916436474931995,11.744620255258601,41.84189410628245,0.2806904540560743,1543.8325304017994,3.5626434228512354,3.895570297757459,596.2709953495402,0.45323741007194246,0.4598540145985402,0.6825396825396826,0.045454545454545456,50.5952380952381,50.603568261348094,50.584851393531736,49.63503649635037,0.5142335573310757,0.48576644266892416,8.422467346590283,8.186021555377769,0.539602466382205,0.46039753361779506,30.736067342128695,28.390813069397705,0.5377495378154616,0.46225046218453847,22.534903947701327,20.893171320393094,1.4684359501214213,1.3921870673445136,1.5420564060322515,2.164529483793678,-1.1896289320297484,-2.2036775977245187,-0.05288115199292535,0.0022983756274771116,0.1942163903682577,1.1241047481503028,2.2940960890450874,0.7126503879986421,0.388421233174128,1.0680306343636965,5.299438726513946,-0.6413319853395827,0.0029886317260960815,0.4093163426504408,0.7719487648541707,1.2821541018672935,6.040126346261626,0.9959401721132997,1.367338290455059,1.1399590135613478,1.7097571294749712,1.592307793215921,1.5421082873813496,2.213823435371436,0.7682310510133282,Relax
105.4851399684569,568.8201438848921,30.835762175834965,,,,,,,16.758082626999226,16.81674049952145,0.05421003898567096,0.029461127224760228,565.0,23.7216,0.04198513274336283,34.5,1.840053117183881,549.0,591.8,0.7194244604316548,22.302158273381295,499.0,677.0,7.315789473684211,125.0,,,0.05592578357486664,0.009354168329924941,0.002876644397585521,0.0681565963023771,5.978701858074794,0.8205483637526676,0.1372452387209174,-4.671933224338441,11.891231244666066,42.03059296199758,0.2829184745363372,1570.1538719189123,3.5345871337630266,3.9029123244416,594.2431724316298,0.45323741007194246,0.45185185185185184,0.6557377049180327,0.047619047619047616,51.039999999999985,51.02627012196101,51.05044148328314,48.888888888888886,0.5134563282157141,0.48654367178428587,8.521976742003048,8.295632480298002,0.542231353583955,0.4577686464160451,30.949798805818176,28.437311733293217,0.5400982511462668,0.45990174885373303,22.699274588760154,20.94633878348041,1.4035011360090361,1.4122938197070056,1.5815335782461322,2.109648045862539,-1.3152425821259364,-2.3379245150781247,-0.12605906770450262,0.0022292443470108675,0.19625200898460438,1.8716283846217272,2.219984051447362,3.1783512027789023,2.068359177055221,4.300681023739395,1.967261265590225,-1.0,0.001075125270773421,0.22511960656643684,0.8235777652354987,1.4174927319757518,6.05363028110757,1.0107300281108678,1.1258114108768762,1.266263597319798,1.8116978414994576,1.6534659805994267,1.5549647191757567,2.297645036528684,0.7682310510133282,Relax
104.5922732584892,573.6521739130435,32.16237366723948,,,,,,,16.8953412142083,16.949363249267016,0.05606598410993694,0.02945223949725564,571.0,27.428099999999997,0.04803520140105078,38.25,1.9036238013466231,551.0,598.0,0.7246376811594203,23.18840579710145,499.0,677.0,7.666666666666667,125.0,,,0.055559484989182686,0.013641332275067326,0.002718867779090778,0.07191968504334079,4.072878210783739,0.7725212499985367,0.18967452745165225,-4.2946509572114575,11.985009690350761,43.80524114756777,0.2735976192889013,1649.3557455473292,3.655002563980884,3.924284447634984,640.4330748406445,0.47101449275362317,0.4701492537313433,0.6825396825396826,0.046511627906976744,51.90962883270574,51.87983602062395,51.93535980177783,48.507462686567166,0.5289845807655918,0.4710154192344082,8.720960214266748,8.229251985162085,0.543739260653496,0.456260739346504,32.30140563776184,29.589159261819727,0.542710807278229,0.4572891927217712,23.65835955042166,21.716801491663386,1.4187890259094027,1.4689190169554314,1.5532071660956022,2.075539030562322,-0.8651329158890366,-1.6415281011828124,-0.14441071397568545,0.002112890727789506,0.19752039984272254,1.169285932198942,2.1695086706311084,-0.24379568912473015,0.840958646190824,2.799885368098308,-1.0091601945870403,0.0,0.0012766218643041629,0.19163780321785118,0.8054811946769278,1.4240346891027376,6.1131748449209855,0.9827443949839578,1.397488665036976,1.4203036108201728,2.0070711372757875,1.6592951180582205,1.5320016632028643,2.215707916829136,0.8756877954002092,Relax
104.45140348218739,574.463768115942,32.26920509365693,,,,,,,16.603798703515448,16.664020113330515,0.05617274210258661,0.028903126054356073,572.0,28.1694,0.049247202797202794,37.5,1.9434832757171836,551.0,598.6,0.7246376811594203,22.463768115942027,499.0,677.0,7.2631578947368425,125.0,,,0.05696151477631236,0.01328842846155526,0.002118924286309874,0.0723688675241775,4.286550132027099,0.787099711865496,0.18362078772499474,-4.320861662943893,11.783241623965026,44.23882377970468,0.26635521962884534,1637.6392075214628,3.7543848451457325,3.9211883373973744,664.3582782623836,0.4782608695652174,0.47368421052631576,0.6666666666666666,0.04878048780487805,49.42020982882385,49.408342568507436,49.433496790826666,51.127819548872175,0.5154227011570337,0.4845772988429666,8.4598967453023,8.202851010830463,0.5153553099240312,0.4846446900759686,31.75827821677551,30.797488438469248,0.5153597746332618,0.48464022536673845,23.239600773628773,22.536326883761795,1.4885747797981521,1.6084202989508247,1.6858840878055736,2.2430600268755385,-1.1790896752638584,-2.0703514711093014,-0.153588095454023,0.0015995237104270968,0.21575099836157471,1.684491999426397,1.4203344722069928,1.6915147966927062,1.1199104891995169,1.0,3.5554950334217397,-0.9024434516505113,0.0013388261918610676,0.14551570789844703,0.8293500748822269,1.4062551036824287,6.102234446338907,0.9585368626038369,1.0816212869551585,1.3976414087489586,2.1122880464063365,1.6595263875349375,1.4949708538283664,2.4685595162328187,0.8756877954002092,Relax
104.49742377029732,574.3188405797101,33.13299577256652,,,,,,,17.049734034785832,17.108837566747734,0.05769094348206041,0.029686879186439447,572.0,31.1346,0.05443111888111888,39.75,1.94331452355601,550.4,600.0,0.7246376811594203,23.18840579710145,499.0,677.0,7.2631578947368425,125.0,,,0.05543766261513319,0.009214164785275392,0.0014684538177974205,0.06612028121820601,6.016569478302018,0.8384365824486029,0.1393545915944819,-4.687013328400485,12.097775061666473,45.2355376260684,0.2674396215133022,1719.234565896412,3.7391617380458375,3.9423052441966693,676.5719659653112,0.4855072463768116,0.4732824427480916,0.6451612903225806,0.05128205128205128,51.26684636118598,51.21646893670655,51.31478426570123,50.38167938931297,0.532856246076585,0.467143753923415,8.832801500823008,8.27025143653622,0.5235635898957279,0.4764364101042722,32.731391950864186,31.223546327705204,0.5241841067931055,0.4758158932068945,23.972509269932903,22.83973406261424,1.4843879763737524,1.4552970069176463,1.7438719997229182,2.1617670505534905,-0.26839660789636177,-1.167857749338192,-0.21284552304846402,0.0029314202450704614,0.23995070779667216,1.1972452347123603,1.7840533497993807,0.1396164768682162,1.0316431517679066,2.7904253783914728,-2.6049470665320094,0.0,0.005770880409771298,0.2077646593944785,0.7822848278656735,1.4292194058369248,6.11745086278898,0.9546464574444178,1.1332368820595058,1.4377335063623542,1.9954764743434616,1.7123643130914181,1.4852772551567341,2.4730223000875555,0.7726657018237141,Relax
104.41640318937951,574.6642335766423,33.45613400459288,,,,,,,16.822603841260722,16.884478698349934,0.058218577126970046,0.02927379652037647,572.0,31.1346,0.05443111888111888,42.0,1.9887607364643027,550.2,601.0,0.7299270072992701,21.897810218978105,499.0,677.0,7.2105263157894735,132.8125,,,0.0499990734718281,0.008987926227492551,0.0013157273889614412,0.0603027270882821,5.562915427464165,0.8291345331469068,0.14904676225230062,-4.7118731325818635,11.93912938440305,45.951161674752676,0.25982214484389987,1723.5307114580976,3.848786640572135,3.9433891364338978,707.4248686902336,0.48175182481751827,0.4692307692307692,0.6229508196721312,0.02631578947368421,50.391937290033596,50.38901775208352,50.393137067479735,50.76923076923077,0.5202660569528165,0.47973394304718336,8.611792087769128,8.26953355306,0.5124300022364201,0.48756999776357973,32.893778962661685,32.08595588127016,0.5129255597519206,0.48707444024807944,24.043332312799397,23.42961534041906,1.526292824145585,1.5965908003699394,1.5822716317512464,2.269861647395954,-0.8010537180484878,-1.6916005641792857,-0.06933860856182515,0.002020498132930567,0.2317872513263146,1.539309209978761,1.0851395663772776,0.48747659272103494,1.0196619686282977,1.0,2.9953146580031724,-0.009569651317796933,0.00295229656998801,0.22106243591427435,0.7903558418600021,1.449095262358921,6.152608407977523,0.9334996768391236,1.3648397790331483,1.3734736311719342,1.9650568741082983,1.7239781926856896,1.4567635730932416,2.374052259923076,0.7253463442441414,Relax
104.83678626173734,572.2374100719425,34.897486046620905,,,,,,,16.931233465600393,16.9896204179632,0.060984279308536546,0.029587778022886996,568.0,35.5824,0.06264507042253521,47.0,2.0611307568065254,545.2,601.0,0.7194244604316548,22.302158273381295,499.0,677.0,7.722222222222222,78.125,,,0.048282829194986436,0.01094175701227519,0.0016621034867735252,0.06088668969403515,4.41271261469429,0.7929948144268473,0.1797068795702177,-4.515168890471087,12.013475807327202,47.7923536342897,0.2513681560706369,1803.7525979612603,3.9782286492923564,3.9631470795820816,760.5156417801718,0.4748201438848921,0.4621212121212121,0.6229508196721312,0.02631578947368421,48.747276688453155,48.654725253908566,48.837306730250376,53.03030303030303,0.505485338725986,0.4945146612740141,8.54293578489371,8.449722493607592,0.48172640752728585,0.5182735924727141,33.17100623615332,34.40629900448582,0.48313893383752615,0.5168610661624738,24.220832010314385,25.05185842811926,1.521026454107826,1.6332760062695733,1.863092884215805,2.153188564601222,-0.5152677933256999,-1.1496175919020066,-0.3223841657675484,0.0014613639379809872,0.21535652645571499,1.4257529812286935,2.343853288999533,2.422194269132164,1.2502676246323974,3.5562107072425544,1.5752102479043555,-1.0,0.0009251127322771469,0.3066910127491634,0.8087066183357772,1.5512559570513642,6.239057889099059,0.9134061468661963,1.1028420010498248,1.4043850878510662,1.839788331511856,1.739155332690025,1.4401718555649097,2.2753429999221577,0.6145848408106626,Relax
104.44216538717181,574.5869565217391,36.647209045377714,,,,,,,18.080517401032832,18.145537179600986,0.06378009216780957,0.03146698196994099,571.0,37.065,0.0649124343257443,49.75,2.0268893988224184,544.8,607.0,0.7246376811594203,24.637681159420293,499.0,677.0,9.857142857142858,78.125,,,0.051503097872301846,0.010974207676950494,0.0017750865583647196,0.06425239210761706,4.693103993327516,0.8015747925157203,0.17079842970779469,-4.51220751607112,12.830832387968476,50.181489529204754,0.25568855186136225,2022.778145055958,3.911008110141018,4.01291836264779,785.0408501107054,0.463768115942029,0.450381679389313,0.6101694915254238,0.02631578947368421,50.77639751552794,50.73181240029419,50.8196831462779,51.908396946564885,0.543674362524003,0.45632563747599686,9.461415451873,8.668104141723534,0.495928502019729,0.5040714979802711,35.338904527449294,35.627850316423945,0.4988588211623267,0.5011411788376733,25.868480391715295,25.927589047010084,1.519294732070507,1.5151139086234435,1.8011227904641725,2.1438144438264737,-0.21189172513858168,-0.8962582686177951,-0.2738178948712485,0.0024413890450592645,0.22879935267283397,1.6014967709774026,2.189653528853316,0.5991811983711992,0.9909751623802403,1.0,4.134476283865389,-0.3210703388246921,0.007586583728699716,0.6362957465974745,0.8196168505752564,1.4145790749584728,6.23867590592811,0.9058224252886601,1.367182919510585,1.3141595991362547,1.967208359263704,1.7753532364688585,1.4451161115289006,2.5513532894184396,0.5666215146707236,Relax
104.6491326563225,573.3695652173913,36.42652360173002,,,,,,,18.104522159608003,18.1709595194725,0.063530619362259,0.03157565950111728,570.5,37.065,0.06496932515337422,49.5,2.0120124287510452,543.4,601.0,0.7246376811594203,26.08695652173913,499.0,677.0,9.2,78.125,,,0.04701333785510591,0.007365308189483699,0.001276363100159534,0.05565500914474915,6.383078161241411,0.8447278794408652,0.13233863946240298,-4.91097438479928,12.848808696885254,49.94982024714602,0.25723433304285803,2016.2606084713782,3.8875059490343737,4.011516775387184,776.720893455911,0.47101449275362317,0.45801526717557256,0.6166666666666667,0.025,49.97437211686315,49.96912545777143,49.97936473555947,51.14503816793893,0.53755706491482,0.46244293508517986,9.420526711888872,8.737596250416594,0.49307470355545685,0.5069252964445432,35.074403256195176,35.56361594303936,0.49583540543838156,0.5041645945616184,25.68034352678724,25.895138223026514,1.5611296283402492,1.3008002827258212,1.7786286275971257,2.105305295756563,-0.41497867612568484,-1.1377663185327078,-0.2488648545840657,0.0010220155279125787,0.1371379836751796,1.596003352904161,2.2784622781900947,2.365455080251854,1.2262239411568066,2.9961223053761348,0.034884549528910735,-1.0,0.0007404056614241844,0.24432406188086023,0.8202998241334867,1.3822539515828858,6.221541645228108,0.9150523032650623,1.2527098642454961,1.320632554776455,1.8648045035015464,1.7881351034582487,1.4384200495874975,2.202089735890616,0.7211546550354664,Relax
103.80463688868541,578.5547445255474,58.51858926720601,,,,,,,69.40254487620838,69.6591135630975,0.10114615742231112,0.11995847503268335,572.0,37.065,0.06479895104895105,50.0,0.8431764191296469,546.2,603.4000000000001,2.18978102189781,28.467153284671532,499.0,1116.0,8.5625,62.5,,,0.05834085654684641,0.05529497748375339,0.0119046093248771,0.1255404433554769,1.0550841903134505,0.46471762395844046,0.44045548992671335,-2.8950731976571142,49.25643157191005,66.88139418253454,0.7364743539507871,10349.470622737175,1.3578205332413005,4.721888246082858,363.2517212514026,0.48175182481751827,0.4692307692307692,0.639344262295082,0.025,49.950016661112954,50.0360025379183,49.844248633500825,50.76923076923077,0.4817493622848141,0.5182506377151861,34.18798792731913,35.459523090106245,0.4954413656684948,0.5045586343315054,47.076205469979044,47.50738643987773,0.4906264706561392,0.5093735293438609,41.13992975182507,41.91854925999739,0.795938974011935,2.8104148665354347,1.641693333732698,1.3988530835024913,-0.7702380637618553,-0.2282972038932728,-0.5864072607648743,0.007371755500416871,0.6250477242157221,1.2861835318572064,0.9525915147651827,1.3115919297508336,1.159059180357735,1.0,1.1987965331227386,-0.6601239849703032,0.0039682304183905285,0.1618255588912665,0.8211489743904354,0.9996304551192587,6.215595199824901,0.6706202611194181,1.124623796460735,1.2027578315534317,1.4853551857786829,1.1184341064354855,1.5508829638790225,1.543599163886698,0.7253463442441414,Relax
103.68084900706116,579.2205882352941,58.58285568655864,,,,,,,69.6990355425063,69.95799102724627,0.10114083800964753,0.12033245529972904,572.5,37.065,0.06474235807860261,48.25,0.8405117119709871,547.0,604.0,2.2058823529411766,29.411764705882355,499.0,1116.0,7.555555555555555,62.5,,,0.05296887405178416,0.028523766250827833,0.004704333421274964,0.08619697372388696,1.8570084183832796,0.6145096720153806,0.3309137782748318,-3.557017635674092,49.46776985355348,66.79857596718496,0.7405512638151852,10381.005196244147,1.3503454100505916,4.723209518391926,360.80460182081583,0.47794117647058826,0.46511627906976744,0.6166666666666667,0.02631578947368421,50.66137566137565,50.846068284548906,50.43542762740593,49.6124031007752,0.4821263021786332,0.5178736978213668,34.348412377223795,35.59903151458084,0.4954632033044559,0.5045367966955439,47.01894791522982,47.447531950446965,0.49073950060779853,0.5092604993922016,41.17398994444743,41.943767909933925,1.1073189970488515,3.245735060507466,1.8408214225615873,1.793089597447701,-1.0576154896403587,-0.20668731385229178,-0.5147060139611098,0.0040791292548040215,0.7032528021552922,0.5080230700147362,3.843278324556508,0.8922366857805468,1.4993445209297815,-5.778551325320969,-4.777918347075581,-0.34203386175023087,0.003672295625109956,0.5806966814791803,0.8272751321622072,1.0101256225001571,6.207692690575749,0.6744460710291796,1.2451492200192165,1.1335253300110366,1.5032212625783223,1.1279232596861841,1.5599971958706154,1.5264565873896343,0.7295917630698878,Relax
103.82344195421231,578.625,58.608422792481136,,,,,,,69.55030154100301,69.80716707404234,0.10128912990707477,0.12019926816332341,572.0,37.065,0.06479895104895105,48.0,0.8426767604728335,544.0,601.0,2.2058823529411766,27.205882352941174,499.0,1116.0,8.5,78.125,,,0.04803780370177143,0.01521233237991359,0.0010636237956280418,0.06431375987731305,3.157819754530258,0.7469288655088717,0.2365330904138261,-4.185648839305132,49.361121213477624,66.77864227937414,0.7391752741388656,10355.533394022194,1.3528591052575365,4.722142583458234,361.3683769775488,0.47794117647058826,0.46511627906976744,0.6166666666666667,0.05263157894736842,48.744059742023076,48.608940061968454,48.87931757786185,51.93798449612403,0.4798170981948706,0.5201829018051293,34.19293372054978,35.60217585166859,0.48912892101702377,0.5108710789829763,46.703481490597106,47.73019884029472,0.48583865688646416,0.5141613431135358,40.929035535671105,42.10514699361116,0.5621915572534466,2.856195901195586,1.567138898600391,1.1828509011070794,-0.2633632739283378,0.2542929731447444,-0.6345453921183946,0.011292670400577935,0.7956792759588477,1.221479255751749,3.951208789257648,1.7689776767490408,2.4683409015198365,-4.371145755526783,-3.957236303861851,-0.32300018498840405,0.0033520668612357922,0.7888882685601034,0.8257692038500557,0.9869983040384415,6.20408809501933,0.654859066139712,1.1297576407162908,1.140442730645199,1.372497433249244,1.1025232464094763,1.6070364276825662,1.5488483976012861,0.7295917630698878,Relax
104.36227891443309,575.0289855072464,37.143230765026644,,,,,,,18.63302930341435,18.695343983105246,0.06459366693013177,0.03240363490020894,571.5,37.8063,0.06615275590551181,49.25,1.993408058356912,541.8,605.8000000000001,0.7246376811594203,27.536231884057973,499.0,677.0,8.117647058823529,78.125,,,0.04587706244791777,0.013113501868669095,0.0012544723299639316,0.060245036646550794,3.4984600534146937,0.7615077523659265,0.21766941475368629,-4.334112902560248,13.219604507068837,50.860573944525136,0.25991850822383133,2112.270783072495,3.8473597237594195,4.031719701880384,782.7156948858151,0.47101449275362317,0.45801526717557256,0.6166666666666667,0.05128205128205128,51.63234555499749,51.68604283143543,51.575618767673014,49.61832061068702,0.5491012298959319,0.450898770104068,9.799084591099794,8.87971084584866,0.4777495722206857,0.5222504277793143,35.154539241836645,36.75535814899205,0.4822676217890599,0.5177323782109403,25.80565527291801,26.737666477897417,1.5037888637802022,2.5673095818882796,1.8128738830386726,2.644502682491477,-2.1526847767608963,-2.7574214350537094,-0.17606991952987078,0.0050520666323161205,0.5688165880455638,1.8637979034782737,2.0094543889962653,3.1821264782078185,2.7810494216188686,-3.0538836325267944,-4.053883632526794,-0.6995950038902304,0.005903759239771845,0.517983188784553,0.7637976125330566,1.2486729832438428,6.241504598142337,0.910090121132109,1.2006425927189206,1.2191263397660537,1.5856538338238437,1.7164291707475166,1.47121255743499,2.1261606884435835,0.7211546550354664,Relax
103.86433647888707,577.6934306569343,34.04615423643487,,,,,,,18.218042123771955,18.28276448254429,0.05893463977549249,0.031535830523561584,572.0,34.099799999999995,0.05961503496503496,44.0,1.868815211048913,549.2,606.4000000000001,0.0,25.547445255474454,513.0,677.0,7.611111111111111,62.5,,,0.043078900541136375,0.009961156906270264,0.0009423207954952597,0.0539823782429019,4.324688482119927,0.7980178336585382,0.18452608481694763,-4.609062058883111,12.927866744443628,46.49337924614095,0.2780582300977116,1888.286344477349,3.5963690038902754,3.9830379624222485,668.8293920277468,0.45985401459854014,0.4461538461538462,0.603448275862069,0.05263157894736842,48.932926829268304,48.91460258250993,48.95437090879837,50.0,0.5054056449111614,0.4945943550888387,9.191985236747968,9.093139457040412,0.470401792438677,0.5295982075613226,31.88787631331727,33.83485862172428,0.47291460413841113,0.5270853958615889,23.46624435615991,24.773805149161635,1.436169474661404,2.2392790341456577,1.486520734190151,2.5470805133807963,-1.8467971396101888,-2.8293401829033153,-0.026383374729681296,0.005277747111524608,0.504276004014299,1.3152839641232061,2.2797887429383175,-0.6566612247535168,0.4832331467156419,1.0,-5.324739246230766,0.0,0.008457768631830795,0.5835469274194743,0.761912338221439,1.3728110107826037,6.195486531925896,0.9682513634451312,1.1880312906407569,1.1564841666932233,1.600990176263041,1.7582798770907464,1.5117248465222746,2.812498907072927,0.7771567974044372,Relax
104.23934905832908,575.5839416058394,31.771852677878268,,,,,,,17.445714120564702,17.491379762988164,0.05519933823941821,0.030309591459227243,571.0,31.1346,0.05452644483362522,41.0,1.8211838425362115,549.2,601.0,0.0,24.087591240875913,513.0,675.0,7.611111111111111,109.375,,,0.047800521582938724,0.010700632024061584,0.0007113198307282609,0.05921247343772857,4.467074606009611,0.8072711509545138,0.1807158425042828,-4.537452471589396,12.368273242718077,42.50054337727735,0.29101447322508106,1651.4043586778382,3.4362552106697595,3.924823536489842,584.1708545458617,0.46715328467153283,0.45384615384615384,0.6271186440677966,0.05405405405405406,47.089947089947074,47.2738096734992,46.894721256893206,50.76923076923077,0.47748357170467726,0.5225164282953227,8.555699854482976,8.950067245764341,0.41290299639062433,0.5870970036093757,27.30979875670064,32.56487493039619,0.4179552733519008,0.5820447266480993,20.236416532225856,23.880690766140436,1.4573466073282149,2.4785025655911737,1.7708621358076604,2.4106288815746653,-1.6113229908138518,-1.891895658347476,-0.24187368024192163,0.004110420496697763,0.48802438330291914,1.121349328915832,2.8570706541470603,1.5191885934076785,2.3601600122820896,-3.0720731980534186,-3.697408255459111,-0.20565256492564007,0.0023779346431367855,0.5489853137801506,0.796686426387847,1.3613968094981632,6.203657447829282,0.9790399585915587,1.1670349470142454,1.1657421716789185,1.724357391759037,1.7460744763408125,1.4982456665396366,2.000332527200208,0.7771567974044372,Relax
105.04425516587736,571.1739130434783,24.883352111674007,,,,,,,15.483685786899876,15.535655467713845,0.04356528115768457,0.027108531102892377,565.0,19.273799999999998,0.0341129203539823,27.25,1.6070690437755337,552.4,587.0,0.0,18.115942028985508,530.0,670.0,5.75,70.3125,,,0.055409239390259976,0.010133896021049632,0.002815431011713424,0.06835856642302304,5.46771343175089,0.8105676038811463,0.14824617529773934,-4.591869432386659,10.985367331398324,33.37299129347898,0.3291693943402923,1151.7536344904572,3.037949509261512,3.7683297013546304,405.5418500904527,0.5,0.4962406015037594,0.7575757575757576,0.0425531914893617,51.561579257513266,51.53765889319119,51.58395183677567,45.86466165413533,0.4879585933932106,0.5120414066067894,7.676118427802366,7.86326155948924,0.5699634610812832,0.43003653891871707,25.195248298609055,21.885063651862236,0.5619421510373983,0.4380578489626019,18.624222546809968,16.44364456863202,1.3884331983284313,1.4749137996133281,1.6193694977521247,2.125890098135095,-1.652238018131582,-2.6818901158061275,-0.15657613311655028,0.001974157509013678,0.19636661367422434,1.2549936197880363,1.087032893141687,0.21192891087917687,0.7554453574500204,1.0,-2.43029235985077,0.0,0.002543967619890986,0.19339959641362833,0.8041291314656878,1.4577533251020356,5.72394533725421,1.1330335401471778,1.3096809770302884,1.254547575266117,1.6135544218392635,1.708349518022635,1.6112865434009782,2.2344632576163774,0.9787098889767044,Stress
104.43258248839628,574.5766423357665,25.680652659076554,,,,,,,15.79091324706936,15.848128622265996,0.04469491233524509,0.027482692618475073,568.0,20.7564,0.03654295774647887,29.0,1.6262930621724891,555.4,590.8,0.0,18.248175182481752,530.0,670.0,5.708333333333333,85.9375,,,0.043146767322104616,0.01156064449927686,0.004099309336305428,0.058806721157686904,3.7322112382924266,0.7337046934891845,0.19658712935682374,-4.46014866475942,11.206319217920901,34.64120325512615,0.3234968235770681,1219.5674674888328,3.0912204606601508,3.7931759408088523,428.33438513653186,0.5036496350364964,0.5037593984962406,0.746268656716418,0.043478260869565216,50.755813953488385,50.77067035436369,50.739679342512645,47.368421052631575,0.47390304317055915,0.526096956829441,7.715064628518819,8.128823886502756,0.5572245940244475,0.44277540597555276,25.858784505678358,23.05073159038237,0.5493299919953174,0.4506700080046826,19.081390912789,17.283142142411915,1.3723696219840549,1.8732768980005132,1.5067725385995026,2.3090080709843113,-1.9366663088793725,-2.9723401249315757,-0.0717474905919706,0.004950805293224483,0.37325267197985745,1.4182095198346938,2.4987598385289163,2.5112488732192633,1.2618689539548051,3.889761040671047,1.9834493963145825,-1.0,0.0015652585170955044,0.3776627737256494,0.8761686503927457,1.4288539755386866,5.847211553400238,1.117516278259476,1.2911915975060213,1.3959160693648642,1.636660883473344,1.7210511751125064,1.6015234586159404,2.225430722074912,0.9325881568853247,Stress
104.61215371264696,573.6423357664233,25.947553785381302,,,,,,,15.623794071110595,15.680712657763285,0.04523298258785884,0.027236124492513603,568.0,20.7564,0.03654295774647887,26.0,1.660771619702797,554.0,588.8,0.0,17.51824817518248,530.0,670.0,6.2272727272727275,85.9375,,,0.047560597837753245,0.006671664302251904,0.0029209752640773153,0.057153237404082465,7.128745644726158,0.8321592966202818,0.1167329202208123,-5.00988592960219,11.087938254142149,35.030448940046085,0.316522870520984,1220.2431395355436,3.1593293664816064,3.793416484601981,442.69090422928826,0.49635036496350365,0.49242424242424243,0.7230769230769231,0.021739130434782608,50.65320665083135,50.67986508880258,50.62609660363805,47.72727272727273,0.46921501295258755,0.5307849870474124,7.59556400753707,8.078549558117654,0.5586568840890462,0.44134311591095404,26.182932163128275,23.272009287601257,0.5505112108434004,0.4494887891565996,19.27742889043518,17.419089804653428,1.4143126646443502,1.6707290516161315,1.5557664924773014,2.1377933997522565,-1.5141165003987034,-2.1836611023955683,-0.15163297620763333,0.0014894249656216497,0.20401704154383585,1.2566380656393545,1.0735400893665468,0.20123972121645028,0.7380097658997237,1.0,-2.353726769324929,0.0,0.002217468965647907,0.18353891721343008,0.9109407976254165,1.5058395117696732,5.846482608362939,1.102443852934601,1.3374866797146627,1.4220261717481142,1.7210194480116627,1.7185804872531532,1.569073634193708,2.124812655058715,0.8807777037250288,Stress
104.05864879373298,576.6715328467153,27.35123115011867,,,,,,,16.363742201083753,16.423028029970677,0.04742948037525009,0.028376192111139616,571.0,20.7564,0.036350963222416814,30.0,1.671453315141278,557.0,599.4000000000001,0.0,19.708029197080293,530.0,670.0,6.523809523809524,62.5,,,0.05117086579648794,0.007897853732125424,0.002339017575459961,0.06140773710407333,6.479085018800055,0.8332967181279449,0.12861333285641524,-4.8411642358985105,11.612834487609012,36.99984948152861,0.31386166836723145,1349.8579426695737,3.1861170088153536,3.8372581762635076,471.543399026825,0.49635036496350365,0.49242424242424243,0.7076923076923077,0.022222222222222223,50.76487252124645,50.76305747070251,50.764999216920245,47.72727272727273,0.4792267347667298,0.5207732652332702,8.039716228638735,8.380974927819599,0.5503641483493726,0.44963585165062725,27.4489050591268,24.810209042062027,0.5439840239358811,0.45601597606411887,20.22473023283616,18.517386606262196,1.4226880531679589,1.8807433190241278,1.569640151666282,2.363059712680023,-1.708834997731424,-2.7163812737381274,-0.07813511658495371,0.004477293582882989,0.3678588624237087,1.5235358719701118,2.417752551480856,2.4285040820479535,1.2196278063075254,3.4924511211019933,1.4019194345353694,-1.0,0.0016468031016991132,0.35215413922302385,0.8792124467490336,1.636518871036771,5.930969517637374,1.1044011477428946,1.3407159369115802,1.3851481099259495,1.7151058092620868,1.7483158834079549,1.5579508324609628,2.4059008410597436,0.8807777037250288,Stress
104.09656144389415,576.5328467153284,27.77537289814023,,,,,,,16.50668313851375,16.567469503567345,0.048176566272649386,0.02863095005350869,571.0,23.7216,0.041543957968476354,33.0,1.6826743849789016,554.0,600.8,0.0,19.708029197080293,530.0,670.0,6.523809523809524,85.9375,,,0.05286498931207198,0.007813787647776915,0.00198133698276841,0.06266011394261731,6.7656035325086545,0.8436784740047636,0.12470114010537232,-4.851865458585317,11.714970033073794,37.57667542436015,0.3117617484988901,1382.9593287741764,3.207577596722261,3.847779518163167,482.1204090019263,0.49635036496350365,0.49242424242424243,0.7076923076923077,0.022222222222222223,49.66254218222723,49.65103830866774,49.67416739751463,47.72727272727273,0.4617066062176167,0.5382933937823834,7.9603182515943836,8.595218308907445,0.5478437085985723,0.4521562914014276,27.81292680066264,25.26752142036678,0.5402130284105657,0.4597869715894343,20.456362871802074,18.8722735316452,1.4249207702648339,1.880917713206475,1.647652645240794,2.365379626868071,-1.832297722174907,-2.8605704306050503,-0.11841659707497798,0.004864482761997665,0.37671373798266466,1.8118755342747712,0.7203789249363886,2.0714249174493116,2.0913522247343233,0.927552546225157,0.08897809024244197,-0.4723377425474085,0.002465608077772711,0.10033791324114777,0.8449832621700777,1.7157735622501329,5.944650561293777,1.096347025764056,1.3976922991566227,1.345407276461098,1.8541336869375624,1.7815278857819747,1.5387449022270414,2.358031915874268,0.828967250564733,Stress
104.31618403199195,575.2028985507246,28.44078479423978,,,,,,,16.20669412022604,16.266161827846904,0.04944478698890233,0.028175612746493908,568.0,23.7216,0.04176338028169014,34.5,1.7548788533465027,552.0,600.6,0.0,17.391304347826086,530.0,670.0,6.2727272727272725,62.5,,,0.04442422691704698,0.0071246423174645855,0.0018751251095524488,0.05342399434406401,6.235292234692285,0.8315407236483244,0.1333603450086508,-4.94419575514514,11.501913332348312,38.632041475903954,0.2977298867190963,1395.942797236814,3.358749136741805,3.8518377321505106,519.0213438310641,0.4927536231884058,0.48484848484848486,0.6875,0.046511627906976744,50.057405281285874,50.06183834438922,50.05282274441155,46.21212121212121,0.45875944864384166,0.5412405513561585,7.790454188979499,8.461852112656578,0.5573685778068282,0.44263142219317153,28.841570110002582,25.702110072633516,0.5493392942942863,0.45066070570571387,21.124953761852147,19.133758169296485,1.4209798437472696,1.6821627223475837,1.6009977287839918,2.1939644715268956,-1.4740629826336313,-2.3355896890720462,-0.1474973943570844,0.0014963017806161763,0.21868246828139223,1.3861235482245424,1.4933152057706605,-0.10719165754611804,0.6394659453392122,1.0538214016365206,-1.48028956475054,0.0,0.0033995390952756125,0.2638696161008646,0.8771661054555291,1.8004931491968095,5.964224435051828,1.0630934247798254,1.585267739186148,1.2841701493215643,1.6960264910580485,1.7606385852536026,1.5160827957191731,2.243094223782583,0.8241767486119617,Stress
103.76450993487575,578.4598540145986,30.50868116535226,,,,,,,16.487294573487222,16.534006350944466,0.052741224742940095,0.028502054998394293,572.0,29.651999999999997,0.05183916083916083,42.0,1.8504358631653526,552.0,606.8,0.0,18.97810218978102,530.0,670.0,8.058823529411764,85.9375,,,0.043676300797882206,0.006541005878203313,0.002030296132068794,0.05224760280815431,6.677306458846852,0.8359484158202493,0.12519245911091742,-5.029664321333031,11.691308010934273,41.19509318613539,0.28380341217116356,1513.068063177154,3.523565810395873,3.8868285745331628,580.6144876269547,0.48175182481751827,0.4732824427480916,0.6774193548387096,0.022727272727272728,52.62267343485618,52.5379916366005,52.70843578783781,45.80152671755725,0.4977413508615327,0.5022586491384673,8.255413487636574,8.292790264462882,0.5618815556046337,0.4381184443953661,30.879330635581624,27.267244857389038,0.5570928855657635,0.44290711443423647,22.601824178077106,20.152828740442114,1.5170263065763987,1.8228269999917794,1.717734431081765,2.3592876081249106,-1.2752749331141153,-2.1357749367587155,-0.14804494499695325,0.0030094774086146833,0.30731580098499456,1.8422772019892355,2.9505891520130234,-0.8145564997661507,0.660738076240361,1.1555082549369855,-8.193493102974703,0.0,0.00972357762772925,0.6934404564823619,0.9665565004389647,1.641074997377283,6.042059159599956,1.0279053277997299,1.3194877767288284,1.2469213091921818,1.5494422701450936,1.801061191934401,1.4820633375803902,2.274783354581461,0.7253463442441414,Stress
103.57937049155714,579.4705882352941,30.73276479986805,,,,,,,16.753993443244994,16.814492025257277,0.05303593560021894,0.02891258639073849,572.5,29.651999999999997,0.05179388646288209,43.5,1.8343545915770385,553.0,608.0,0.0,19.852941176470587,530.0,670.0,8.5,117.1875,,,0.045017661336721894,0.005834364721850945,0.0018538068749724833,0.05270583293354532,7.7159491192110625,0.8541305360543845,0.11069675588292595,-5.143989892889567,11.889641333266544,41.813754974056124,0.2843476109869497,1561.844513844489,3.5168222322286207,3.9006079063785637,588.2061724228826,0.4852941176470588,0.47692307692307695,0.6935483870967742,0.046511627906976744,49.056603773584904,49.00999197113402,49.102869044156584,47.69230769230769,0.45843669182456337,0.5415633081754367,8.051142497955682,8.750692936314909,0.53819287590311,0.46180712409689006,30.67525222107967,28.41511932411247,0.5322254438579899,0.4677745561420101,22.425342743749106,21.023720330488864,1.4919614564477528,1.679555969123061,1.736361030748469,2.247843409209345,-0.9455370613636607,-1.7794062125639236,-0.19546571363862653,0.0020245511908211925,0.24765051816888925,1.6121376758870998,4.9255828547541745,1.696214467677908,3.4967573415980753,-9.96333085208559,-9.24973810678198,-0.13445079962825465,0.00697648511492197,1.2149067397137119,0.9689538674340379,1.66392609771817,6.068577363086456,1.0359321239105501,1.291272048484091,1.1828684845825446,1.5547230466506705,1.7828911023821856,1.4584599756499745,2.460523590075724,0.7295917630698878,Stress
103.63703500838649,579.0955882352941,30.91562679927672,,,,,,,17.006316909160983,17.06959707428992,0.05338605133133097,0.02936702895800873,572.5,31.1346,0.054383580786026196,46.25,1.817890785195415,551.0,608.0,0.0,21.323529411764707,530.0,670.0,8.5,117.1875,,,0.0492496366407222,0.006291784899555343,0.0017313054341670242,0.05727272697444456,7.827609720765056,0.8599142950308213,0.10985656231041305,-5.068510480709419,12.070027843352454,42.05897567757668,0.2869786448410218,1594.8389589072258,3.4845798388725826,3.9096869460766586,586.2314347588641,0.5,0.484375,0.6935483870967742,0.05,50.16339869281048,50.17428438399446,50.1525171817494,46.875,0.46775432844995396,0.532245671550046,8.25503012641745,8.805739308889367,0.549745638335436,0.45025436166456423,31.184557625820528,28.221991438041112,0.5435068636803485,0.4564931363196516,22.81032832628874,20.90480621178997,1.5447779887706614,1.941232191273379,1.7120423521471384,2.515394084407351,-1.4650961479254967,-2.463335828729443,-0.08616401692100394,0.005527810432190853,0.4221270137261452,1.5725470656606106,2.341135841930939,-0.5413530663108648,0.6292148546546048,1.7217113622585565,-4.825331888578502,0.0,0.0034236125621058245,0.34639227878928114,1.0133660678892684,1.8758425864385964,5.996449632096333,1.045528770345815,1.1914467879620052,1.208304340277204,1.6544579049162973,1.8363073769960738,1.463181121078633,2.244236722386302,0.7295917630698878,Stress
103.84263809146822,577.9197080291971,30.541210922620742,,,,,,,16.89631007402643,16.956454545763016,0.052846806395946216,0.029236431703714823,572.0,28.1694,0.049247202797202794,44.0,1.8075669059583432,551.0,606.8,0.0,20.437956204379564,530.0,670.0,7.611111111111111,93.75,,,0.045176876239499696,0.006316033515740501,0.0011170670482843795,0.052609976803524576,7.152729023193458,0.8587130993844707,0.1200539118146382,-5.0646638761207905,11.990023994190487,41.592937382290586,0.28827067162839026,1566.7132528663572,3.4689619805968332,3.9019596271110295,577.1372737620433,0.48905109489051096,0.4809160305343511,0.7142857142857143,0.046511627906976744,48.990435706694996,48.980696697014444,49.00219923378314,47.32824427480916,0.450316798021944,0.549683201978056,8.04708366773675,8.890694261104947,0.551138136371977,0.44886186362802316,30.87804700113838,27.866084286864467,0.5434007462041183,0.4565992537958817,22.56334795813851,20.682880577026488,1.4925947274347409,1.6692008901912292,1.5945701287841274,2.3015197251298014,-1.6600026017902785,-2.587466579676277,-0.07647422757803375,0.0024597012360134713,0.24779482982311166,1.2579837022694114,1.4003862975024473,0.10985550500230867,0.6662848595233075,1.0,3.469770394601334,-0.10266009777917978,0.00748593923365294,0.39046418539429045,1.0291355659669503,1.8509483406183855,5.960166597929344,1.0532211612724927,1.0349266611591907,1.281273127475822,1.5756037057737717,1.8771833814277987,1.4874186449159088,2.8622353698055214,0.7253463442441414,Stress
