Subject_id,HRV_SDNN,HRV_RMSSD,HRV_SDSD,HRV_CVNN,HRV_CVSD,HRV_MadNN,HRV_MCVNN,HRV_IQRNN,HRV_Prc20NN,HRV_pNN50,HRV_pNN20,HRV_MinNN,HRV_HTI,HRV_SD1,HRV_SD2,HRV_S,HRV_CVI,HRV_CSI_Modified,HRV_SD1d,HRV_SD1a,HRV_SD2d,HRV_SD2a,HRV_Cd,HRV_Ca,HRV_SDNNd,HRV_SDNNa,HRV_SampEn,HRV_ShanEn,Labels
1,102.91381946700908,113.10926971982325,114.02012775900698,0.1031708723183786,0.1133917882430729,97.85160000000016,0.0965958538993091,121.0,909.8,52.54237288135594,86.4406779661017,782.0,11.8,80.62440553015034,119.72783021204268,30325.747189288133,5.188781620116629,711.1868041953173,55.02654861638679,59.0013380758169,83.16388998991061,86.13083494910383,0.4770789516944282,0.5229210483055717,70.5129550185125,73.82302697589218,1.421385680931161,5.814846439192349,Relax
1,85.21949031073851,90.660571836462,91.47158915956706,0.0830741371547423,0.0883782424866318,68.19959999999999,0.0662132038834951,79.0,962.8,57.89473684210527,82.45614035087719,800.0,9.5,64.68018098063975,102.06261685720318,20738.999372045768,5.023757908413924,644.2021405511053,43.56019868057204,47.821543262425145,65.90093001043857,77.9348778372016,0.4273920551752095,0.5726079448247904,55.85885554382417,64.65580091337334,1.475906519809578,5.69253913697176,Relax
1,94.95546978946422,128.389040664349,129.48092882459997,0.0967978556418473,0.1308801257239617,79.31909999999999,0.0792002995506739,116.75,901.4,55.00000000000001,76.66666666666667,779.0,15.0,91.55684280620731,99.21083259654807,28536.438857165664,5.162369885286336,430.01872947209023,63.17101856236684,66.28270175335446,69.79668023682036,70.50682755889204,0.4862165565641256,0.5137834434358745,66.56633592998733,68.42736763950326,2.70805020110221,5.873557262275184,Relax
1,95.15060538387569,138.00712541990964,139.16493892496305,0.0999188646459126,0.1449230430996314,105.2646,0.1089695652173912,142.0,856.0,50.81967213114754,80.32786885245902,768.0,15.25,98.4044720172531,92.42032757544492,28571.44541678504,5.162902321666027,347.2003568152867,70.15273893199763,69.01436843764823,60.32044548963309,70.02114541397296,0.46965909719681,0.5303409028031899,65.42156725319569,69.51957945763266,2.995732273553992,5.897950452316984,Relax
1,70.74162763312935,97.62461019706572,98.4123048997676,0.0751048625023112,0.1036459461141749,75.6126,0.0798443505807814,93.5,878.4,53.96825396825397,88.88888888888889,792.0,12.6,69.58800814682375,72.25464052735055,15796.105405158276,4.905520133021098,300.0938360943697,48.98669943271821,49.43384385249427,49.50894795069672,52.62696220144052,0.4819920226488434,0.5180079773511566,49.248515959855446,51.05537223732991,1.6094379124341007,5.774821391719543,Relax
1,73.2323096677295,114.39541719583802,115.34363484111576,0.0773769696041041,0.1208697466920356,74.13,0.0775824175824175,94.24999999999989,886.8,67.74193548387096,88.70967741935483,781.0,12.4,81.56026636285787,65.11792161799234,16685.108639989234,4.929299148737693,207.9612490220128,55.50037537410594,59.76551402495143,51.45279666713616,39.91182069233795,0.5258347103301045,0.4741652896698953,53.51486686677041,50.817664732079145,1.504077396776274,5.748472318416495,Relax
1,93.0287602326009,129.12303460078735,130.1238487874844,0.0989517279483674,0.1373440574693073,105.2646,0.1109216016859852,143.0,852.2,71.42857142857143,85.71428571428571,774.0,15.75,92.01145587172311,92.74002331737606,26807.664271169768,5.135229085886761,373.8974388970892,61.871363115503534,68.15405644447044,73.81495894934534,56.143243228494704,0.5433318490768423,0.4566681509231578,68.10548340061918,62.43812605311749,2.833213344056216,5.9137878600078535,Relax
1,108.57895065154278,167.9264223799618,169.32298808426845,0.1130142987022508,0.1747860588536612,127.5036,0.1311765432098765,171.0,857.0,75.40983606557377,90.1639344262295,725.0,20.33333333333333,119.72943308515518,94.871285833524,35684.99051376926,5.25945569560516,300.69668397426534,84.02622673701953,85.31243675107856,77.71091980064172,54.42034380123342,0.5612619683063147,0.4387380316936856,80.93019781244448,71.55342648626697,2.9444389791664407,5.799589796579279,Relax
1,103.6453986609848,135.68916090497711,136.79608821693057,0.1110543074585785,0.1453886616156191,126.021,0.1319591623036649,158.5,823.2,57.14285714285714,82.53968253968253,745.0,15.75,96.72944161798478,109.2652616744152,33204.019757986985,5.228160773576526,493.7027324495024,62.691084941541256,73.66489254348113,91.81736523133998,59.23232943885579,0.580430175898785,0.4195698241012149,78.61488627853132,66.83930447048266,1.5755363607584192,5.67958329648145,Relax
1,97.76126976151964,115.0586806807726,115.96439998332272,0.1082775151992566,0.1274356202268001,130.4688,0.1467590551181102,170.0,800.4,50.76923076923077,78.46153846153847,744.0,13.0,81.99921360443666,110.52227204978924,28471.435501144133,5.161379474351775,595.867793463166,55.897440098128,59.998280398638514,85.88022929337195,69.56837525460456,0.5543938907017261,0.4456061092982737,72.45666840604096,64.95980482713571,1.83258146374831,5.764600312995171,Relax
1,84.37854542322312,105.9642900661858,106.73833029350868,0.0935586317776481,0.1174928288483345,83.76689999999999,0.0943852394366197,121.25,835.0,50.0,71.21212121212122,744.0,13.2,75.47539716306947,91.42116717528992,21677.14293888541,5.042972151313268,442.9432700902349,53.50102218649657,53.287692059236335,64.64845144632841,64.64060282271525,0.500846244130628,0.499153755869372,59.337094845502335,59.23675235140775,2.4849066497880004,5.851138248113551,Relax
1,85.62498630185159,75.2038026983909,75.74538092712696,0.0982004160515062,0.0862487111834746,88.2147,0.1016298387096774,109.5,799.8,38.23529411764706,70.58823529411765,698.0,13.6,53.56007249712965,108.91961836827528,18327.24307153985,4.970067249835748,885.9945636650514,37.47868080858123,38.28837943815329,76.6902380109008,77.34397623165047,0.4945009822288688,0.505499017771131,60.35745240365985,61.024956613348415,1.8191584434161696,5.910992253015046,Relax
1,102.67598432287458,111.65429601310385,112.48750979615409,0.1162435104703041,0.1264082094099012,106.7472,0.1219967999999999,127.5,793.2,47.76119402985074,77.61194029850746,698.0,13.4,79.54068097564874,121.81666122107002,30440.085615528784,5.190415979555051,746.2495301287136,56.83660792130368,55.66721172771689,88.88951177478744,83.29437944716842,0.525862750297563,0.4741372497024368,74.6047763335568,70.84063843948378,3.4011973816621555,5.946686205383145,Relax
1,101.238531763108,56.81006054145168,57.09826486711352,0.1625510929655933,0.0912156396545018,78.5778,0.1316211055276381,108.5,539.8,29.47368421052631,70.52631578947368,479.0,15.833333333333334,40.37457028152157,137.26629313932938,17410.918856720116,4.947791801462409,1866.7230487736813,27.10364416239485,29.940532458040348,103.83652248872568,89.77756863304258,0.5625256149934722,0.4374743850065281,75.88356518190666,66.91953120551443,0.9604619501872924,6.3303304767292286,Stress
1,101.92594613351422,75.6407142156843,76.07430762164086,0.1478782537195867,0.1097425842254681,114.9015,0.1742251705837756,167.75,597.0,39.53488372093023,68.6046511627907,532.0,14.333333333333334,53.79265879333371,133.6347021302677,22583.545930118016,5.060762243165363,1327.930912064043,37.99334214857976,38.09621278515003,95.80443761391416,93.16514019163502,0.5118276484703191,0.4881723515296807,72.87655423432635,71.17255361267586,1.0340737675305385,6.1704508012137245,Stress
1,115.4149637596838,98.8257726169309,99.49083528801188,0.1483859260354908,0.1270576475375424,123.7971,0.1597381935483871,158.25,678.0,46.05263157894737,73.68421052631578,569.0,19.0,70.35064429806704,148.08825162810948,32729.43872373606,5.221908667629271,1246.9043028151953,48.64126820892906,50.82601483279781,109.38243082402664,99.82792243304122,0.5331404742056338,0.4668595257943664,84.64776767861615,79.2114192559415,1.5141277326297755,6.09003277660148,Stress
1,155.21662978074812,114.03694576758885,114.746829194216,0.2127802564394976,0.1563286781724355,182.3598,0.2546924581005586,245.0,587.0,49.38271604938272,82.71604938271605,400.0,20.25,81.13826104288462,204.51234062607185,52130.8837722633,5.424065197523833,2061.927230422066,53.51286370844379,60.99911806791383,148.03924505863856,141.1016633169956,0.5118640489473377,0.4881359510526621,111.30868038884056,108.6981411889966,1.1913940221190764,6.182382255944334,Stress
1,131.71145307234457,124.1062762961324,124.80989982084982,0.1969617460595497,0.1855889393522125,128.9862,0.1961767300380228,169.5,559.4,46.590909090909086,80.68181818181817,346.0,17.6,88.25392652253656,164.64275072069128,45648.50120986322,5.366396632752773,1228.601896050645,58.48737689291556,66.10566770198741,118.6149211650588,114.18290520862828,0.5011831295561544,0.4988168704438457,93.51543396361656,93.29441340243308,1.211940973975113,6.254886164091841,Stress
1,104.69118485358028,99.65617362299471,100.24076338624774,0.1518568688527029,0.1445534741955092,94.1451,0.140096875,113.0,615.0,41.86046511627907,75.5813953488372,346.0,9.555555555555555,70.88092354173196,130.74223148025646,29113.5478835762,5.1710652433418725,964.6336553373465,45.575813343315794,54.29214404277938,101.32811470966288,82.62048330663757,0.5581138193418617,0.4418861806581383,78.56380080074842,69.90629859527782,0.9416085398584448,5.988943353836553,Stress
1,133.75894959230033,105.0229924700702,105.68927230661473,0.1745904380018837,0.1370824928837029,143.8122,0.1940785425101214,210.0,646.0,57.14285714285714,77.92207792207793,511.0,11.0,74.73360114667885,174.04533665262713,40862.80488104814,5.318298283872343,1621.320463392254,47.66668997668428,57.58761440911868,136.01003545665853,108.59580777177726,0.5788938773503568,0.4211061226496434,101.90888842062512,86.91772776291995,0.7316134613877411,5.997242547160313,Stress
1,114.06249827113425,134.13058907413006,135.0955087047106,0.1321675024697474,0.155420977371404,133.434,0.1541698440207972,178.75,754.0,72.05882352941177,88.23529411764706,599.0,17.0,95.52695031294712,129.53776937696804,38875.16095487758,5.2966423101103945,702.6303525942794,62.80127387243033,72.02640509079313,100.68661154780862,81.49993834464692,0.5434502345077343,0.4565497654922657,83.91005227319106,76.9091768922418,1.5686159179138452,5.881580488309163,Stress
1,126.47718965531134,184.5541042385792,185.8734214862476,0.1505117689958144,0.2196250942963609,149.0013,0.1796278481012658,205.5,731.4,80.0,94.28571428571428,565.0,11.666666666666666,131.432356775271,120.02987248953934,49561.16573654435,5.402111622899764,438.4664672638902,87.59259806224563,98.02085612406228,97.25118586624087,70.35180976680657,0.5405960238223386,0.4594039761776614,92.5479777944506,85.31548913520643,inf,5.986425874087824,Stress
1,132.86100429419872,213.20043731331376,214.76369755099904,0.1559772909160464,0.2502948612416825,160.1208,0.1915320574162679,240.0,726.4,88.40579710144928,95.65217391304348,565.0,13.8,151.86086689100813,111.08756156520832,52998.207508893385,5.431231291219921,325.04611852007395,102.7241633275408,111.86675843069308,87.84278402448453,68.00067374174843,0.515962228670274,0.4840377713297258,95.57355396896024,92.56960427462882,2.0149030205422647,5.9056259060535305,Stress
1,146.87725758262297,201.71881140151365,203.1370472359942,0.1780390340743603,0.2445158830416678,157.1556,0.193660628465804,208.75,702.6,75.0,88.88888888888889,454.0,18.0,143.63958361078352,148.20889874091895,66880.3120059752,5.532268400441754,611.6942729524013,96.26095484967634,106.62886234840116,108.21817597186782,101.26551266506196,0.4924055573004515,0.5075944426995481,102.41422029984308,103.9817732610675,0.9903987040278768,6.086591668108979,Stress
1,141.0385545653169,207.97033962121176,209.38347688499024,0.1788618801555422,0.2637432443623754,118.608,0.1544374999999999,208.0,690.4,74.66666666666667,89.33333333333333,454.0,18.75,148.05647637379332,132.71578344108082,61730.50887941432,5.49746996707811,475.85839149411305,97.6957115476136,111.2547674828869,102.234120111137,84.62661436853936,0.505779357696191,0.4942206423038094,99.9906679888001,98.8415073416849,1.871802176901592,6.14881869049588,Stress
1,124.47991194538172,181.55979272221407,182.80074101461668,0.1531350450288652,0.2233546489504824,115.6428,0.1458295081967213,168.0,713.8,82.1917808219178,87.67123287671232,540.0,14.6,129.2596435773613,119.41072016357806,48490.44216851009,5.392626254284956,441.2489372663465,83.38114590815927,98.80133716378596,96.77918646808632,69.94790316056462,0.526865510372425,0.4731344896275749,90.32891681621771,85.59910449856307,1.7227665977411033,6.080235517784125,Stress
2,149.05286946160024,200.22855361863483,201.2902908413868,0.243252336942636,0.3267703853425293,37.065,0.0633589743589743,57.25,558.0,32.29166666666667,53.125,478.0,10.666666666666666,142.333729640957,156.91170654420878,70163.7912806426,5.553083157933468,691.9311034067371,98.8177454130109,102.44043417123676,107.34817077879184,114.44498189550838,0.4743415124105941,0.5256584875894061,103.17116016131467,108.6086931010928,0.5226321363529796,6.181265755906956,Relax
2,39.32984010147704,43.819783995220185,44.04063618043888,0.0665252126304264,0.0741198143745288,29.652,0.050861063464837,42.5,563.0,18.181818181818183,46.464646464646464,478.0,6.6,31.141432490957943,46.20921843413616,4520.81860723514,4.362187191767761,274.2702178409681,21.443043713786068,22.587173625115955,32.808705822413394,32.540446993734534,0.4947112918154581,0.5052887081845419,27.71475510854284,28.009472530941927,1.4529857356185627,5.944766342192567,Relax
2,34.93382146410793,32.1099831891604,32.218035140961085,0.0588551840466064,0.0540976878888887,31.1346,0.0534041166380789,50.0,566.0,12.12121212121212,34.34343434343434,523.0,6.6,22.78159112468007,41.30892593213137,2956.49962892492,4.177747938787912,299.61513264412605,15.415215404897248,16.828884104603773,26.84079101075895,31.400625783303703,0.430149004947183,0.5698509950528167,21.88671889597228,25.191373918360057,1.4127276181880462,5.884160281586507,Relax
2,34.54409723042921,34.09208119197184,34.26158876418992,0.0590657336381748,0.0582928473546048,32.6172,0.0563336787564766,50.0,559.0,12.871287128712872,32.67326732673268,487.0,7.214285714285714,24.226601749383512,42.61423091841123,3243.3739765170617,4.21796713775092,299.8311848361293,17.260189495313817,17.002673586554234,29.59154933712861,30.66452159411524,0.4883831923476929,0.5116168076523071,24.22368606948433,24.79318246702981,1.0498221244986776,6.026781408387268,Relax
2,40.64566149024761,42.414858269481485,42.62826329055444,0.0690630239584177,0.0720691524127597,34.099799999999995,0.058742118863049,53.5,556.8,18.0,45.0,487.0,6.25,30.14273404295661,49.01671787472168,4641.696518666317,4.373646852161582,318.8348645197272,21.725326140667423,20.89734384058981,32.86747745848892,36.36437207935512,0.46877299636767,0.5312270036323299,27.859117631420457,29.656926141439698,1.2086131838824383,6.033660689688184,Relax
2,34.77856686051464,34.51231664203375,34.68603771146557,0.0589813660131303,0.058529829247677,26.6868,0.0456184615384615,37.0,563.0,9.9009900990099,34.65346534653465,528.0,6.3125,24.526732478269626,42.73006889625604,3292.4801084920573,4.224493269814828,297.7744857773412,17.371025451956637,17.31511280105132,29.50880539702677,30.90451733839556,0.4830313560925156,0.5169686439074843,24.21282843052544,25.048975260799825,1.3581234841531942,5.893021259829574,Relax
2,23.177609543661227,17.233687939614086,17.318221851010225,0.0397827874838091,0.0295804510630155,22.239,0.0380153846153846,30.0,565.0,0.99009900990099,19.8019801980198,527.0,6.3125,12.245832108942372,30.516493305036928,1174.012714614128,3.77664291032897,304.1872060147958,8.816020770292129,8.501633829904566,21.22339332534796,21.92769799577556,0.4884638502273543,0.5115361497726457,16.250456093055455,16.629818356971267,1.55814461804655,5.607586394252243,Relax
2,50.92045048139032,68.40014619867416,68.74472174412206,0.0869713785406098,0.116826441067171,20.7564,0.0355417808219178,27.0,565.0,4.950495049504951,20.7920792079208,522.0,5.941176470588236,48.60985891605101,53.50638779952852,8171.087593995822,4.619249976119045,235.5845994367362,35.74354501306509,32.9441676449441,37.00699065819535,38.6447432101415,0.506542856414985,0.4934571435850147,36.380752931163805,35.90775932577776,0.7569137989189345,5.534220953319401,Relax
2,60.13980024638438,90.92064868024008,91.3727118742107,0.1035527807341775,0.156553330048018,22.239,0.0384093264248704,28.5,558.4,16.666666666666664,32.35294117647059,393.0,6.0,64.61026418165895,55.804991969472326,11327.248792144395,4.761094549438462,192.7989100900104,44.54514563900313,46.80112178142742,41.10507093334888,37.74347986443789,0.5040460354250363,0.4959539645749635,42.85963635190832,42.514205110040734,0.7455683109235524,5.809296910429262,Relax
2,98.09296113862251,129.93774019325798,130.60445018030936,0.1649853579233045,0.2185460029413795,34.099799999999995,0.0592010416666666,46.0,552.6,24.24242424242424,42.42424242424242,393.0,6.1875,92.35129237563734,104.38097108152296,30284.065928246862,5.188184292931754,471.91054260962267,63.80939723314844,66.76300599188268,75.72195238050342,71.84408849450665,0.5048027724082458,0.4951972275917544,70.01947317558509,69.35009740684819,0.673977264452225,5.997747276514149,Relax
2,96.21442375071142,118.08890587486044,118.69399203710552,0.1597352746543177,0.1960513099618208,45.2193,0.077897157622739,62.5,551.0,16.3265306122449,41.83673469387755,482.0,9.8,83.92932665553938,107.48501254110823,28340.76200488681,5.159381633010442,550.6074399180081,60.13063036700458,58.5613549336648,75.17422340172884,76.8235904973802,0.4982675759129598,0.5017324240870401,68.0692903311999,68.30555009871391,0.7633514392331936,6.129916221622074,Relax
2,105.5216177049601,134.93320226009962,135.63339226097656,0.1746899088650791,0.2233804723463986,46.7019,0.0770023083264633,66.5,560.8,17.346938775510203,43.87755102040816,369.0,9.8,95.90729142307153,115.28693193618145,34736.141912007675,5.247751690354608,554.3301860805308,71.10262536174972,64.36403628321227,75.31976975223341,87.28120622292221,0.47705391041328,0.52294608958672,73.24155599406252,76.68356449199183,0.5819215454497209,6.126196548391459,Relax
2,71.00274368212548,93.57317337522652,94.05362607662268,0.1187517379509472,0.1565006700817229,45.9606,0.0759679338842975,62.0,565.6,25.252525252525253,36.36363636363637,369.0,9.9,66.5059567939638,75.87910617865012,15853.77261631177,4.907102734969087,346.2931161073639,46.142987091560926,47.89496669851172,51.80863785754899,55.43919008982908,0.472785803490805,0.5272141965091952,49.05767123695649,51.804592619128606,0.8204089601708725,6.048449801854085,Relax
2,175.23731613894088,259.88937098025934,261.1805494403069,0.2999480835389903,0.4448442858818689,110.4537,0.2113946411483253,220.75,449.8,61.76470588235294,78.43137254901961,324.0,12.75,184.68253762326933,166.43281015782225,96563.8676581063,5.691784762131185,599.9458455251292,129.46858692362406,131.7074029810018,122.20202880089433,112.98913422969086,0.5127980601921771,0.4872019398078228,125.88774929089526,122.7057139133608,1.116761607173787,6.383113822321232,Stress
2,191.6378518139315,256.3671731150078,257.6304333843059,0.3355894239320436,0.4489411205897141,65.2344,0.1328602851323828,127.5,453.0,50.48543689320388,68.93203883495146,343.0,10.3,182.17222648607185,202.01307847987732,115614.29249714222,5.769981635819265,896.0593975072752,125.19493710700814,132.33917944373684,151.9285222060777,133.1428106102408,0.5237536336872732,0.4762463663127267,139.20497142155227,132.74160318648413,0.8642416747601168,6.290822007744738,Stress
2,149.51777553467554,193.0584590932264,194.0103180103241,0.263208526406966,0.3398567986088245,63.7518,0.1178406654343807,87.5,485.2,23.300970873786408,40.77669902912621,343.0,11.444444444444445,137.18601148525877,161.87165632000733,69763.86178037975,5.550600622934024,763.9972278834898,94.51578002253024,99.43371840797086,124.55087184256384,103.39010321611931,0.5429735662151849,0.4570264337848149,110.55802175783106,101.43120279153612,0.299536571986329,6.271404532016582,Stress
2,145.65475950446992,191.85817372092703,192.8054699254111,0.2532442097358316,0.3335762713873075,41.5128,0.0767334565619223,50.5,510.0,18.446601941747574,40.77669902912621,311.0,9.363636363636363,136.33405523411713,155.74625327326018,66707.06508940572,5.531141943381348,711.6899843404145,100.4930666048338,92.13114845073562,102.46803233013333,117.29108132781988,0.4807814861060367,0.5192185138939631,101.48535383308472,105.46408458309574,0.4181349608492161,6.276163997993992,Stress
2,152.14378100668426,199.92851222374463,200.93555804000567,0.2609227222534955,0.3428723232743824,51.891,0.0953878676470588,69.0,508.0,27.72277227722773,55.44554455445545,311.0,11.22222222222222,142.08289567159107,162.8499741814812,72690.78623083924,5.568449476217066,746.6096173098107,105.16482973951612,95.54025012495724,106.86930130237864,122.87825898038471,0.4813058966754143,0.5186941033245859,106.02049088501714,110.06135998612297,0.7189648635858861,6.171880636427404,Stress
2,124.51044664225368,171.22809005396695,172.07333995547464,0.2160583588144975,0.2971257522374547,40.0302,0.0716103756708407,53.5,525.8,25.24271844660194,48.54368932038835,325.0,8.583333333333334,121.6742255439342,128.04261357489196,48944.39827216265,5.396673103573847,538.9772835716707,89.49392921498438,82.4348827923598,84.39173743047748,96.29613462935288,0.4849785380485522,0.5150214619514475,86.98025268091398,89.63385366462984,0.8314587963574576,6.191165090205997,Stress
2,136.3682405463346,188.2082357390345,189.1557788883773,0.2324628651146819,0.3208329559932233,37.065,0.0658348134991119,49.0,534.0,24.75247524752476,48.51485148514851,325.0,7.769230769230769,133.75333395259477,140.11145202980018,58874.62076218461,5.4768982326223785,587.0872421574702,97.0541346388965,92.03567599885196,95.133523942813,102.86316936649972,0.4922510014301161,0.5077489985698839,96.09862753516,97.59968562625308,0.6692316291633874,6.113463462864134,Stress
2,115.1494150127467,148.17874136980444,148.9327586692187,0.1959356378579637,0.2521375918763369,41.5128,0.0736695652173913,57.0,532.6,17.0,45.0,492.0,9.090909090909092,105.31136359582412,125.22520014925982,41430.182211381485,5.324286953306513,595.6185625933341,73.30649245963616,75.60855150857269,89.77605640987301,87.30183530667313,0.5017802028547117,0.4982197971452881,81.95603132547168,81.66475221641821,0.6412271233815855,6.2487584397314535,Stress
2,104.12482801784444,140.10501718919335,140.80265735003613,0.1796227245606165,0.2416911066381024,37.065,0.0660695187165775,49.0,530.2,20.588235294117645,46.07843137254902,327.0,8.5,99.56251382129642,109.21819155404758,34161.79697245797,5.240510817256763,479.2411484405529,69.79047212908077,71.00806292245971,74.36523549792402,79.99015636736144,0.4761995886088034,0.5238004113911965,72.11413956590516,75.6325661196119,0.7434613480723525,6.211449361494497,Stress
2,115.64869478753576,168.78603992252224,169.6450026445933,0.1959615948006232,0.2860004743163248,30.3933,0.0539366459627329,41.25,537.0,25.0,47.0,327.0,7.142857142857143,119.95713176440168,112.35286720746473,42340.90199740861,5.333730215613173,420.9225940656989,82.97768325500144,86.62804607831657,80.8093782556633,78.05774244539313,0.4966316441735613,0.5033683558264387,81.90070675041277,82.45431924107514,0.630233355149376,6.10120956470982,Stress
2,134.64063869926895,191.0970521314584,192.02710768982408,0.2210436320125429,0.3137298432190011,32.6172,0.056923560209424,47.0,551.8,22.68041237113402,47.42268041237113,496.0,6.928571428571429,135.78367001911403,123.17742783509556,52544.65519586981,5.427498656453684,446.9662287352917,91.389594017792,100.49469742492046,85.24934087010027,88.91135253320368,0.4645355933041238,0.5354644066958762,88.37281259958684,94.879957893672,0.485106397431492,5.902503146395946,Stress
2,104.98732775863472,150.41286614857887,151.17820790801534,0.1765620526699988,0.2529562849358899,34.8411,0.0609110139860139,51.75,548.8,13.0,31.0,498.0,7.6923076923076925,106.8991359793874,104.08074700210496,34953.80573944867,5.250464578216897,405.3466586897388,77.81758497031532,73.29302386270317,69.9362279033495,77.08259157012651,0.4917579354273863,0.5082420645726137,73.98193192922676,75.21167884745597,0.4743609346146913,6.053660689688185,Stress
2,122.39605224041972,157.3447852434232,158.16186071189475,0.2043687916506701,0.2627238627727027,45.9606,0.080561963190184,64.5,536.4,18.367346938775512,34.69387755102041,437.0,8.909090909090908,111.83732423446295,133.22280682597506,46807.47563655318,5.37728532988271,634.790446931021,84.17241110759907,73.63858109034963,79.94008389183853,106.57344531334662,0.4453805303807572,0.5546194696192428,82.08353002978383,91.59841666469154,0.4317278476552315,6.129916221622074,Stress
3,78.21414025846238,122.87877837428756,123.4796465438878,0.1369336664289697,0.2151304302968858,24.4629,0.0434895999999999,34.75,543.2,32.69230769230769,42.30769230769231,367.0,7.428571428571429,87.3132954097011,68.61965223154144,18822.563251284384,4.981648875178803,215.7131580148572,59.91366337342033,63.513507904023925,50.37470293585909,46.5944843999978,0.4968475425955914,0.5031524574044086,55.35005760927255,55.70014211281757,0.6603573577369541,6.125685511306309,Relax
3,67.57286610030471,101.26611102791716,101.7530296381796,0.119228700662205,0.1786786255455089,20.7564,0.0374664259927797,28.25,541.6,13.461538461538462,23.07692307692308,449.0,4.16,71.95025726343255,62.59134425305571,14148.047286445728,4.857666612631797,217.79915871937376,49.40553473797341,52.31419032923974,44.55049357460448,43.965098631342286,0.4865837565852473,0.5134162434147528,47.04069164290621,48.32030839857904,0.576915735594981,5.71346661319788,Relax
3,22.36785091860596,28.111972873989554,28.230243192855475,0.0406688198520108,0.0511126779527082,14.826,0.0270054644808743,20.0,535.0,4.672897196261682,17.75700934579439,486.0,3.566666666666667,19.96179639621348,22.8305410114415,1431.7450731726742,3.862835807284017,104.44623169766108,15.328933116045308,12.803459353962564,16.008166758671518,16.277966700472035,0.533873613200712,0.4661263867992879,15.672230113318689,14.644124612455466,1.504077396776274,5.508847216196187,Relax
3,30.543028091198185,41.67314415059448,41.86980311987858,0.055234315943723,0.0753621285849379,19.2738,0.0351071038251366,26.0,535.2,13.084112149532707,27.10280373831776,442.0,5.095238095238095,29.60642171301181,30.85457368010668,2869.824532000198,4.1648254536944975,128.6213817001374,22.35546167420093,19.41207282668627,18.83674892970898,24.43729949769899,0.4673464934389478,0.5326535065610521,20.67111241452137,22.068191794626163,1.199964782928397,5.76115060332095,Relax
3,49.34818982177144,58.72372372521467,59.0093917868654,0.0873627437010899,0.1039605635689634,21.4977,0.0387345945945945,31.0,541.0,24.03846153846154,34.61538461538461,442.0,6.117647058823529,41.72594108618629,56.25718813136455,7374.52469914317,4.5747041444843575,303.39602981374105,32.4039304079359,26.28930297631324,38.91420883215705,40.627030009773215,0.5226912688141979,0.4773087311858019,35.80733412944255,34.21756141512283,0.907446707077702,5.791752280987073,Relax
3,45.848900088039706,51.18432329782539,51.434458505918656,0.0805331218084434,0.089904737843467,23.7216,0.042246838824577,33.25,543.0,16.346153846153847,31.73076923076923,454.0,6.5,36.36965439619318,54.04011384550887,6174.549862888226,4.4975754121057285,321.18357492461973,29.172828480773465,21.71879099657578,36.40974683366122,39.93324730026669,0.5130038918944194,0.4869961081055808,32.99032878026476,32.143196187507534,1.1295745142720766,5.802515891359802,Relax
3,39.73129066460663,45.61618724160908,45.82902337895233,0.070458638379025,0.0808947906630571,19.2738,0.034665107913669,29.0,542.0,11.428571428571429,27.61904761904762,452.0,5.833333333333333,32.40601320641401,44.9936800598966,4580.64877502515,4.367897103131411,249.88340681557804,27.218907620234045,17.59688851578293,27.582909001353,35.5473539993544,0.4883609415848012,0.511639058415199,27.4015127412316,28.04696830133616,1.2546659186414542,5.786778108282751,Relax
3,39.26312337477569,47.907262176321126,48.13832814964152,0.0698561060449953,0.0852355721925192,22.239,0.0399982014388489,32.0,541.0,15.23809523809524,29.52380952380953,452.0,6.176470588235294,34.03893826959479,43.82482984966119,4686.47297076655,4.37781622653782,225.69631239847925,24.931070021705537,23.17619300769859,29.935624998177268,32.00740644476304,0.4928701405808885,0.5071298594191116,27.547231226192952,27.942888090266862,1.339377441332139,5.824873346377989,Relax
3,33.81773061373918,43.51617105004923,43.7098009981366,0.0605673641134806,0.0779372160396252,19.2738,0.034665107913669,26.5,543.0,15.09433962264151,25.471698113207548,468.0,4.24,30.90749669009691,35.18744546967453,3416.657482510553,4.240571553228921,160.24025900202224,20.26305372232542,23.3525447468546,26.056724967128137,23.64748195197027,0.4965816139224362,0.5034183860775636,23.34035413362879,23.500476046482607,0.9873866535578852,5.765287435531994,Relax
3,28.38155446992741,39.68756485019354,39.8740478654451,0.0517876576798026,0.0724176691866747,18.5325,0.0337876025524156,24.25,529.4,12.037037037037036,24.07407407407408,473.0,4.695652173913044,28.195209639013207,28.80727831775994,2551.6871657252423,4.113797539208713,117.73053574726688,19.047359050336947,20.78892121498897,21.27961647293145,19.41744594023186,0.5019717357590834,0.4980282642409166,20.19435520173284,20.11487574066573,1.1430640512389434,5.811244881809441,Relax
3,32.09714196157894,44.28380116782614,44.48823085194231,0.0596722149772458,0.0823285919493793,14.826,0.0277121495327102,21.0,521.8,13.636363636363637,27.27272727272727,431.0,4.074074074074074,31.457929718400983,33.00479145396118,3261.797559531985,4.220427113414541,138.51086434111843,21.923583614877348,22.56020751152265,23.41993610643973,23.255598287073813,0.4950337526972039,0.5049662473027962,22.6841015443442,22.91054140186034,1.095549499137564,5.578833068298884,Relax
3,55.894965987216096,63.04745143204023,63.34583127264684,0.1015633562693314,0.1145597042340126,20.7564,0.0385806691449814,36.5,524.2,18.69158878504673,31.77570093457944,437.0,5.35,44.79226685278744,65.51468358009659,9219.16445913094,4.671661672313469,383.29596300242383,34.39206719164007,28.698514977342672,41.985289455655895,50.29323248633924,0.4676566503354675,0.5323433496645326,38.376938494293,40.94517062993956,0.6230015711931858,5.950539972540488,Relax
3,47.79182957743901,59.68354044458154,59.97171896966312,0.0854239089205892,0.1066793501750146,19.2738,0.034916304347826,24.0,535.8,20.0,31.428571428571427,437.0,4.2,42.4064091628627,51.15230036213,6814.69685024378,4.540416651101725,246.8077711827587,33.29479973389821,26.264247173898784,27.51651500814112,43.12075178083412,0.4225910284188937,0.577408971581106,30.542611934096627,35.70161000400373,0.6852420010528325,5.858299774990626,Relax
3,89.43669025261568,127.98697850432544,128.60080565889632,0.1602943571813614,0.2293867359021101,43.7367,0.0806206451612903,63.25,511.0,49.0566037735849,67.9245283018868,418.0,8.833333333333334,90.9345017474589,88.34650551453655,25238.755718240125,5.109038050152642,343.32865465326614,64.80173163640708,63.795157460301134,63.439196504593575,61.486367460450914,0.5116149100131969,0.4883850899868033,64.12408313662411,62.65139862312019,1.4343035803062512,6.310329298841593,Stress
3,99.8357809113704,145.95415507828267,146.66091316481044,0.1773582098924607,0.2592874762409217,34.099799999999995,0.0622259124087591,46.0,518.8,51.42857142857142,61.90476190476191,418.0,9.545454545454543,103.70492623384888,96.79956174022342,31537.16502522492,5.205792760614842,361.41600957201,75.46544891924069,71.13145904604669,65.93972072339984,70.86683557221501,0.4990382026454849,0.5009617973545151,70.86282787774734,70.99927059498138,0.9075570519054004,6.137775755637735,Stress
3,77.83137866923968,114.34852384556775,114.88247676693004,0.1401163859884354,0.2058565861006082,40.0302,0.0730478102189781,55.0,508.4,46.728971962616825,64.48598130841121,443.0,7.133333333333334,81.23417836140224,74.26187605629028,18951.9796489319,4.984624691321428,271.5520164857182,61.02747234608673,53.6255980097636,47.39550645123053,57.17072855606429,0.4928389507600901,0.50716104923991,54.63829432147848,55.42651425778075,1.170524870258396,6.250538715251797,Stress
3,58.37497736803928,83.50788009365253,83.9016623720118,0.1055944444546287,0.1510573297609687,48.9258,0.0899371323529411,63.0,510.2,46.728971962616825,73.83177570093457,426.0,10.7,59.327434416073736,57.73067561926955,10759.995275862258,4.738782190616752,224.70757013246816,45.001375640349146,38.66350561791657,36.387515102281824,44.81941155502305,0.4887293681452719,0.511270631854728,40.92172445561524,41.85478657695676,1.955388893009857,6.294976916206596,Stress
3,61.22388714978533,87.89197915623473,88.32176649877597,0.1085881655537915,0.1558873378966934,42.9954,0.0779608340888485,70.25,522.0,49.03846153846153,69.23076923076923,426.0,8.666666666666666,62.45292001765932,60.57247045202099,11884.417721879532,4.781948018249844,234.99456394503216,47.65171848432965,40.36931226252213,38.00469831669701,47.16637661001534,0.4907981321579012,0.5092018678420989,43.098975444045976,43.89959256682698,2.072061434382214,6.197894886347915,Stress
3,60.527476883440784,87.16281184789055,87.58425741607176,0.1078353650190254,0.1552887071404321,42.9954,0.0784587591240875,54.0,516.2,49.523809523809526,63.8095238095238,463.0,9.545454545454543,61.931422344092496,59.63749051107491,11603.26704477729,4.771550397443136,229.7141024598353,47.39285309275909,39.86822955882716,36.325140172679326,47.298144423367695,0.4823467799648776,0.5176532200351225,42.223206491434574,43.741228801035575,1.4685324593568627,6.1974392080805005,Stress
3,58.0672182173542,80.18086526002419,80.55628972364808,0.1029699708306118,0.1421838622627599,47.4432,0.0850236559139785,63.0,518.6,51.42857142857142,66.66666666666666,457.0,8.75,56.96189873081974,58.78409463071961,10519.477373079744,4.728964273769463,242.65832835967112,43.80949491446111,36.42008141255435,36.41513275005164,46.14659129718591,0.4842868090291979,0.515713190970802,40.28233941731834,41.56879970871544,1.9459101490553128,6.357009565243964,Stress
3,54.04840348370584,76.90724159351842,77.2638159344156,0.0969674994376185,0.1379782273905007,40.0302,0.073181352833638,53.5,519.0,45.28301886792453,67.9245283018868,456.0,7.571428571428571,54.63376818757449,52.94543894892652,9087.398675562496,4.665409691475167,205.23713435765168,42.3014025044815,34.58886270285456,32.588494119544585,41.72780315946328,0.4925565628762435,0.5074434371237563,37.75856593427342,38.32491995811496,1.6441234704219905,6.055427883665613,Stress
3,53.42084100207776,77.44687887590466,77.81621063353468,0.0959780529537829,0.1391442085602449,41.5128,0.0752725294650951,54.75,516.0,39.62264150943396,61.32075471698113,423.0,10.6,55.024370225213104,51.91949953759601,8975.020533339446,4.660005560806111,195.95931193405983,40.309619008561526,37.45638489270914,35.14086249886005,38.21981443009168,0.4996514898179316,0.5003485101820683,37.81365891962304,37.84002500198311,1.7147984280919266,6.190000171462691,Stress
3,63.27943337156818,95.96581106416951,96.43464017074976,0.1117650437417096,0.1694961933100153,70.42349999999999,0.1247537643932683,83.5,509.0,62.5,76.92307692307693,423.0,14.857142857142858,68.1895880060218,58.50702649467026,12533.603903918356,4.805046075651998,200.79735040755835,49.00630211573633,47.41566300326524,40.74774198907941,41.984445596428486,0.5031622547968575,0.4968377452031425,45.06659585695046,44.78246738445013,1.858898772065683,6.339768804637948,Stress
3,56.56679683319141,88.59506140671938,89.00949856941962,0.1017217448346523,0.1593168560807867,40.0302,0.0733153846153846,52.5,519.4,49.53271028037384,68.22429906542055,441.0,7.642857142857143,62.93922002845091,49.12968563691072,9714.382833980642,4.694385324541377,153.40043996036655,47.66969687338068,41.10375953144733,30.36403861596912,38.623194711333845,0.5010277096374853,0.4989722903625145,39.96482729270867,39.88276706378743,1.264597426142371,6.219277238915847,Stress
3,72.88814401291667,84.95276156849292,85.34730747411872,0.1325036342680318,0.1544359484161936,34.099799999999995,0.0626834558823529,46.0,509.6,38.31775700934579,60.74766355140186,424.0,8.23076923076923,60.34965987096266,83.40812232463618,15813.68355571914,4.906003153935096,461.1071468900725,46.09679257512702,38.96072503481032,64.92268651954272,52.36372451236312,0.5981140303081709,0.4018859696918289,56.30217362868462,46.15136910236116,1.2008429113170085,6.2600672200055705,Stress
3,69.07480027003345,75.99461133778469,76.35909357870332,0.1243850985920928,0.1368458133322887,31.8759,0.057798549410698,42.25,515.0,36.79245283018868,52.83018867924528,424.0,6.625,53.99403287475928,81.25220594356789,13782.588820790204,4.846300909898134,489.0852280665395,40.50397653792298,35.70411256208665,57.19068118182816,57.71608923562352,0.5160453209080412,0.4839546790919589,49.55474815507657,47.98922071934805,0.7808979291174538,6.042739412269892,Stress
6,67.15220628021106,87.30889494922555,87.73877811885214,0.1175625870561535,0.1528506676372545,29.652,0.0522962962962962,38.0,539.2,11.650485436893204,44.66019417475729,458.0,6.866666666666666,62.04068498086222,72.36834557507542,14105.06530047593,4.856345211057268,337.6608393597884,46.340592303611146,41.2517626386083,47.94218158582603,54.21000522104036,0.4892955026284245,0.5107044973715754,47.14818803653975,48.168623536786384,0.8619367311353237,5.919320430011822,Relax
6,34.246653374114274,25.880494585691363,25.99514329153572,0.0585541710249448,0.0442498976360175,29.652,0.0511241379310344,41.0,557.0,4.950495049504951,41.58415841584159,509.0,5.941176470588236,18.381342099360896,44.59330021698803,2575.1154526023083,4.117766814913405,432.73497952286414,14.233088494097409,11.649121005553171,29.944664252112048,33.0436000924643,0.4724266575353598,0.5275733424646402,23.444228770131524,24.77480098076196,1.8458266904983307,5.887178779970338,Relax
6,35.79831672745914,27.67117412671569,27.813254200006742,0.0599941319387614,0.0463739142847807,32.6172,0.0548188235294117,44.0,568.0,6.0606060606060606,43.43434343434344,509.0,7.071428571428571,19.66694065168999,46.576061191564335,2877.7259865409205,4.166019548555184,441.2134077262156,14.411836486993428,13.382555193428296,31.27131281363297,34.51716197824292,0.4638258414206892,0.5361741585793108,24.34744376742578,26.17754051221593,1.7414976344471669,5.972593488679067,Relax
6,104.317965135177,152.08364859580652,152.89907110156025,0.167881396009585,0.2447518526977625,26.6868,0.0442567164179104,35.5,582.0,12.63157894736842,46.31578947368421,448.0,5.588235294117647,108.11597001303733,101.51155276280036,34479.04218765876,5.244525302775945,381.2423028003062,80.41729204726464,72.26429984617621,67.45014782408248,75.86219679671966,0.5008925607942252,0.4991074392057747,74.21746189983065,74.08509274841425,0.7764001638637298,5.911652187141677,Relax
6,104.83710369617955,150.62424492057957,151.42302824419667,0.1711771741616334,0.2459380476635026,28.9107,0.0483052631578947,38.5,576.0,7.291666666666667,43.75,448.0,5.647058823529412,107.07225009927356,103.64513926671631,34863.88187997476,5.249345851461893,401.3108861972035,79.60106649558185,71.61131789782834,68.84647737399867,77.47565712408323,0.4987731010055563,0.5012268989944435,74.41830162682616,74.60113369739209,0.7310921121240687,5.815438511336498,Relax
6,27.563083320850257,21.880006715665125,21.98940126848464,0.0461716624156374,0.0366517878993375,26.6868,0.0450030354131534,40.0,575.0,0.0,37.37373737373738,539.0,7.071428571428571,15.548854751177558,35.85504514808213,1751.453263950909,3.950368662989165,330.7212738542424,10.775832065368824,11.212336725471673,24.41587672169309,26.257365185450208,0.4663117627273902,0.5336882372726098,18.871322062721863,20.18868149889256,1.5533484457830569,5.707293867401384,Relax
6,28.47301593737093,19.609972473416764,19.70733693250248,0.048099593505558,0.0331272144370394,29.652,0.0501725888324873,40.0,567.6,0.0,29.29292929292929,532.0,8.25,13.935191584100592,37.91020539998944,1659.6593388130827,3.92698906399194,412.5335959095526,9.853828603356662,9.856966765411812,24.40315416494223,29.01154494802803,0.4245398388430016,0.5754601611569985,18.60929702248673,21.665981792730783,1.7197859696029658,5.964968362394587,Relax
6,30.1998905887828,37.01351104664349,37.1980703215041,0.052001972450129,0.0637345216887979,23.7216,0.0410408304498269,30.0,558.0,4.901960784313726,33.33333333333333,497.0,6.375,26.30300777138961,33.60452144259964,2776.8537108777305,4.150523110982472,171.73151773379553,19.34244038377784,17.824701961042717,21.97758518499405,25.42143998325957,0.4706703236618361,0.5293296763381637,20.70198360741876,21.954152350096194,1.4522523289116878,5.750473381017498,Relax
6,36.37674972825471,36.75363927558739,36.938795953098506,0.0623767291311476,0.0630229973486753,26.6868,0.0461709342560553,35.0,557.0,8.91089108910891,41.58415841584159,497.0,6.3125,26.11967310730215,44.58972284998398,3658.91552647004,4.270322492989963,304.4821235963385,17.799103370902728,19.116204982404145,29.022616281239724,33.85160451190316,0.434049312404858,0.565950687595142,24.074055917274947,27.489638238430818,1.2498432583920331,5.853417299433535,Relax
6,34.771982386339545,25.48946588862012,25.61616135903811,0.0600725293170277,0.0440359330065421,31.1346,0.0541471304347826,41.75,552.0,3.92156862745098,36.27450980392157,522.0,7.846153846153846,18.11336140494465,45.90021031466732,2611.942431195765,4.123933710555051,465.2541866371776,12.628341142050289,12.985761433200596,30.50705133021908,34.295030632236966,0.4477144117447644,0.5522855882552354,23.34689680519256,25.93047556511519,1.8672670217362,6.059392743805016,Relax
6,31.636563668412,18.39366012171768,18.47543190722252,0.0544877749215342,0.0316794713610456,32.6172,0.0562365517241379,43.75,554.0,0.0,29.411764705882355,522.0,7.846153846153846,13.064103186947351,42.797229715101054,1756.4877793042956,3.951615242513306,560.8047778180827,9.430270409696638,9.051243008559654,30.8451842653516,29.66778520421831,0.5195392159210718,0.4804607840789279,22.80740441570997,21.93288032753148,1.509354453877118,5.96875438598309,Relax
6,33.09283019930274,17.8672220493947,17.954612744692692,0.0571348309945814,0.0308477910770029,36.3237,0.0629526863084922,47.0,549.2,0.0,24.509803921568626,518.0,8.5,12.695828425350612,45.20737366473932,1803.1015828294155,3.9629903045818766,643.8986303824206,9.377366368016128,8.560373823613078,31.502806190289693,32.42344577308852,0.4899774129695428,0.5100225870304569,23.24179207659077,23.71244225929092,1.6094379124341005,6.069388332125153,Relax
6,26.96403112220008,19.74452212250664,19.83979901847177,0.0478821435815083,0.0350618955650052,25.2042,0.045168817204301,34.0,539.0,4.761904761904762,23.809523809523807,518.0,6.176470588235294,14.028856423339596,35.62897973787715,1570.2743236952194,3.9029456393518944,361.9465931806498,10.032229615990712,9.80662545999496,25.714765963252287,24.66120452486502,0.5196249995347304,0.4803750004652696,19.51787411083492,18.766258438083018,1.5198257537444133,5.894825517501289,Relax
6,47.57625752473334,48.4467478644416,48.68340243026695,0.0837142506145379,0.0852459483614233,42.2541,0.074852258635961,57.75,534.0,25.0,50.96153846153846,449.0,7.428571428571429,34.424363989675406,58.15124909060543,6288.90226800383,4.505544955637001,392.9272618441802,23.50886357667394,25.14721362181457,44.58463538482011,37.3333370916703,0.5563103924992241,0.4436896075007761,35.64026079494944,31.828920900192813,1.5998684614179497,6.0679932036140025,Stress
6,43.00494926780808,32.9202839908652,33.08050691685575,0.0748367057153226,0.0572874900920629,40.0302,0.0697390243902439,52.0,538.8,14.563106796116504,47.57281553398058,476.0,6.4375,23.391450765997188,56.33258147798304,4139.679172273432,4.323936794292744,542.6529149849104,16.4102720788831,16.671550439578375,43.00560891604516,36.3851252263033,0.5694729160623686,0.4305270839376315,32.54826744961084,28.30033508452841,1.6283063967384823,6.035825284380753,Stress
6,40.413761012901546,28.53559181092973,28.67889802484035,0.0693462540952932,0.0489644208033146,35.5824,0.061775,49.0,549.0,7.920792079207921,39.6039603960396,496.0,8.416666666666666,20.27904327032209,53.56207764469336,3412.359267967972,4.240024859269138,565.8839272392544,15.264502956370722,13.350935351033453,37.354916596606046,38.38627837752401,0.4964393385468607,0.5035606614531394,28.53414484827296,28.738074417262563,1.4832866271072,6.101135616350901,Stress
6,72.58834197075188,84.85980364406817,85.2784520588654,0.1261511333961132,0.1474776819366429,34.099799999999995,0.0605680284191829,45.5,537.2,7.766990291262135,32.03883495145632,496.0,8.583333333333334,60.30097173991561,83.58176432630204,15833.82052325738,4.906555827854817,463.402902230396,45.442815768287225,39.63827782973083,56.33375928409431,61.74478838589708,0.4931713462526684,0.5068286537473317,51.17881368314811,51.88261733049973,0.8979415932059585,5.94092783281942,Stress
6,69.06742425055695,82.65080362468247,83.05486960398122,0.1221040019388703,0.1461179998464477,29.652,0.0532351885098743,40.5,534.2,2.8846153846153846,24.03846153846154,508.0,6.5,58.728661507539584,78.51788310236127,14486.66968623344,4.8679386677499465,419.9011391454647,44.18832247480384,38.68405204154473,51.87100704440282,58.94452133214403,0.4829571918799933,0.5170428081200066,48.18303236066479,49.85435024864192,0.8444135203431171,5.911602217974672,Stress
6,32.17252029715829,19.81816377429088,19.913852459805177,0.0572542393681844,0.0352684179570276,28.1694,0.0505734290843806,40.0,537.0,2.857142857142857,25.71428571428571,498.0,5.833333333333333,14.08122011387665,43.43512960231416,1921.4597068838727,3.9906013916783856,535.9224465813516,10.582317179767571,9.28983158479132,27.29544452801663,33.78711576308038,0.4110643228623737,0.5889356771376263,20.700564350703544,24.77771339794676,1.3862943611198906,5.9238291513833525,Stress
6,42.991773570158585,39.869394621074704,40.06349067167098,0.0751655465393525,0.0697064714484433,37.065,0.0658348134991119,51.0,537.4,16.50485436893204,40.77669902912621,499.0,8.583333333333334,28.329165931942537,53.88406199841507,4795.611445630033,4.38781409801354,409.9650719579016,20.73560576724619,19.30513192940885,33.08438973317449,42.531344834515366,0.4113551797320812,0.5886448202679191,27.609257419851364,33.02728729584325,1.4663370687934267,6.02752671183441,Stress
6,39.83972628096103,37.72087058472939,37.90487256505229,0.0702033503315872,0.0664696206444002,32.6172,0.0575766990291262,43.0,535.6,13.461538461538462,33.65384615384615,496.0,7.428571428571429,26.8027924307604,49.85015047499449,4197.554941953571,4.329966499305791,370.8624776764117,19.45532841978178,18.436297318700664,30.98134533054196,39.05372893705924,0.4177857986179724,0.5822142013820276,25.868451465171454,30.53760634621538,1.5730702682632256,5.93458644418201,Stress
6,34.191280551745855,28.332212862999,28.46454642059843,0.0614013441277582,0.0508795202703536,31.8759,0.0571765022421524,40.5,527.0,5.660377358490567,25.471698113207548,496.0,7.571428571428571,20.127473797404416,44.094358530456624,2788.188757111611,4.152292281610533,386.3996989951488,15.261345086398965,13.126602466277872,29.687566816692,32.603080080214845,0.4742484012828396,0.5257515987171604,23.60360435761566,24.8522486208451,1.791759469228055,5.884674435834388,Stress
6,33.41527182500244,30.55682617956624,30.69436825604956,0.0610004793208408,0.0557823097546213,26.6868,0.0493742830712303,38.5,520.4,7.4074074074074066,30.55555555555556,502.0,8.307692307692308,21.70419593808974,41.9811404365589,2862.515232132731,4.163717916301383,324.80653185794955,16.428231568030387,14.190749046141503,29.858694462608025,29.51058314135291,0.5199617983601534,0.4800382016398468,24.098012651090222,23.15439349058045,1.5960148921019597,5.990727085376608,Stress
6,23.496856738477067,23.68485216804661,23.79374239635188,0.0433235344231608,0.0436701606359774,22.239,0.0411833333333333,29.0,523.0,4.587155963302752,23.85321100917432,502.0,6.055555555555555,16.824716598266267,28.74033240017985,1519.110679753746,3.8885595269155626,196.3793450305,12.74736549655668,10.982356283271375,18.996254883099187,21.567313390618644,0.4718657778045478,0.5281342221954521,16.176418433733616,17.113754065398226,1.9203768470501483,5.790851067777102,Stress
6,37.08388599647483,35.63388254043699,35.798342053795444,0.0668786267149181,0.0642636300050017,23.7216,0.0432875912408759,30.0,528.4,12.149532710280374,34.57943925233645,480.0,5.631578947368421,25.313250421474315,45.950997376859206,3654.2035111197833,4.269762840524871,333.65832119874267,19.4108462561773,16.252765332471302,30.258809895531005,34.581766635529725,0.4695406261704832,0.5304593738295167,25.420233365125085,27.01898373909184,1.11514159061932,5.891991724816277,Stress
6,52.10544570894172,37.47024460514277,37.64209821302493,0.0933215945048081,0.0671097411308973,44.478,0.0814615384615384,68.0,514.4,13.333333333333334,40.0,479.0,9.545454545454543,26.616982904519944,68.68039622766852,5743.03536149673,4.466111600325426,708.8702491804256,20.794650170852965,16.62551554058674,50.03060261022903,47.05247738904816,0.5410200769760615,0.4589799230239384,38.31108634110243,35.28699048826054,0.910211685797773,6.164012779467863,Stress
7,61.612146339634826,52.64298418387567,52.99778379333246,0.0781470121505236,0.0667707938947536,65.2344,0.0836338461538461,91.0,734.0,42.66666666666667,70.66666666666667,653.0,15.0,37.47509230812389,78.81981957473265,9279.573593159708,4.674498130319395,663.1139324982147,26.65096569737652,26.350508819916424,56.4316616952599,55.02755233612654,0.5113181925007836,0.4886818074992163,44.129391647126766,43.14151614844823,2.169053700369523,5.995355023771521,Relax
7,66.2997036511126,62.440257160630864,62.8880516420844,0.0810830929158383,0.0763630739540916,69.6822,0.0851860635696821,93.0,762.0,45.07042253521127,73.23943661971832,653.0,14.2,44.46856777172767,82.55481208221363,11533.082745160124,4.768915517886655,613.0439849481863,32.34707611722168,30.517398221390017,58.48343582247791,58.26649751210136,0.5079807915026787,0.492019208497321,47.2580448121546,46.5096566668182,2.302585092994046,5.762285499725431,Relax
7,72.21280032783054,67.97972386780383,68.4674969357429,0.0869664799130857,0.081868550498076,66.717,0.0809672330097087,90.5,779.0,42.25352112676056,77.46478873239437,679.0,14.2,48.41383137413296,88.35412525329738,13438.356478668456,4.835316267378195,644.9769603193416,36.27152034869502,32.070009467513046,60.96639131164987,63.94959405430299,0.4957878172354735,0.5042121827645267,50.16235669289778,50.5867378220642,2.0149030205422647,5.868056978659612,Relax
7,85.08123707027566,65.84841900694568,66.26690026244908,0.1029652933795181,0.0796897414176918,88.95599999999999,0.1109177057356608,119.5,758.0,40.845070422535215,71.83098591549296,678.0,10.142857142857142,46.85777454379035,108.14006569964624,15919.087146350585,4.908888270180695,998.2782087608592,33.137941825131456,33.18590586116472,76.32816916263357,76.60472832537297,0.4983634255417912,0.5016365744582085,58.839241141118585,59.03214696091566,1.6964492894237304,5.924395006828627,Relax
7,72.10910326947022,63.98811030863128,64.43347779321368,0.0857668636919598,0.0761077212989004,86.73209999999999,0.1050661417322834,109.25,778.8,34.285714285714285,72.85714285714285,731.0,11.666666666666666,45.56134908301421,91.46618431406915,13092.030545411431,4.823977119864497,734.4877218391443,33.910457349423325,30.453677455904,68.06299167652588,61.102307951635055,0.5536975763308986,0.4463024236691016,53.77029827705017,48.274830437841416,1.6314168191528755,5.843568731230682,Relax
7,84.27228791878383,60.64015642648501,60.99440968172707,0.1007023771750648,0.0724628232509835,85.9908,0.1026143198090692,109.0,775.0,35.2112676056338,76.05633802816901,639.0,11.833333333333334,43.12956070041962,110.3795165832838,14955.92900879287,4.881783504986184,1129.9570395152095,31.707677486599405,29.323779735412938,67.096620792251,87.64520043573573,0.3920117519141218,0.6079882480858781,52.475391057777415,65.35122499766666,2.512305623976115,5.783549936406092,Relax
7,95.28011854183174,63.08856209065687,63.53040749165976,0.1174252300837998,0.0777516761369161,69.6822,0.0861337453646477,96.0,727.0,34.24657534246575,67.12328767123287,636.0,10.428571428571429,44.92278194889725,128.01196882617776,18066.21161338048,4.963837202871655,1459.131732437739,34.70884938098802,28.52031645519077,81.14591188607923,99.0070964473303,0.4232158869970849,0.5767841130029151,62.40738434342304,72.8553827717458,1.4552872326068418,5.823319250631203,Relax
7,92.57323605387002,74.98842503272681,75.50698622446201,0.1138834889102209,0.0922506745431253,81.54299999999999,0.1018014981273408,108.0,733.8,34.24657534246575,65.75342465753424,636.0,12.166666666666666,53.39150198627632,120.31694215220726,20181.28413452146,5.0119189068871295,1084.5296371380243,43.68436726864625,30.706814401761463,75.40149434025626,93.75916605918536,0.4382486551226064,0.5617513448773938,61.61862256009002,69.76277542793908,1.4781019103730133,5.830034661530834,Relax
7,80.93452902147244,71.45698006493137,71.92784658163788,0.0984453163475791,0.0869172291824729,71.1648,0.0882937965260546,95.5,758.0,36.61971830985916,67.6056338028169,703.0,11.833333333333334,50.860668074021774,99.4700039057938,15893.665486258633,4.908194178149347,778.147991498551,40.54832507843778,30.75522814044816,59.97186336848964,79.35778021800914,0.4197894524067745,0.5802105475932254,51.18979909393792,60.18114878888927,1.1394342831883646,5.829255746234775,Relax
7,65.19819343018146,61.95413049760513,62.3600312617369,0.0787324046865019,0.0748149207471717,45.9606,0.0556423728813559,58.5,782.0,38.0281690140845,71.83098591549296,711.0,10.142857142857142,44.09520098017926,80.21850078064799,11112.60148611579,4.752785850163577,583.7377060952597,31.222901294040422,31.178541487301203,61.195190230160485,51.86671919631405,0.5630795470822944,0.4369204529177055,48.57839474768037,42.791693174403925,1.9459101490553128,5.857424760319283,Relax
7,71.97507393261665,61.91907160618147,62.16480467240761,0.087529422078615,0.0753002429480993,56.3388,0.0679599517490952,72.0,767.0,42.25352112676056,74.64788732394366,658.0,10.142857142857142,43.9571549349966,87.2528630579034,12049.225570530238,4.787929244735462,692.7711425418105,28.97212553422711,33.24731655293423,57.22702264380313,65.86448201517176,0.4304655011241829,0.5695344988758168,45.355904679795394,52.1704612261474,1.4307461236907246,5.896225992744119,Relax
7,70.69331850735932,60.659454699530926,61.01245255025553,0.087019631914158,0.0746684910472439,62.2692,0.0766862068965517,91.0,752.4,39.72602739726028,73.97260273972603,657.0,14.6,43.14231893510815,88.73046909783797,12026.136677609791,4.787096245276562,729.9650404202495,30.68169156326128,30.40281213827913,61.24015933912991,64.20855885659138,0.4817561225877322,0.5182438774122677,48.4340960123399,50.23479877712189,1.519825753744413,5.970646476688235,Relax
7,90.20098060114675,68.68686711654357,69.1824245563483,0.1102283928172361,0.083937479608857,77.09519999999999,0.0947115479115479,98.0,750.0,39.436619718309856,71.83098591549296,621.0,17.75,48.91936154272061,118.73207830329363,18247.304646654145,4.9681688328071605,1152.6974983848445,36.54062658609384,32.52557522132792,83.45897036152893,84.45061683855775,0.5033594439676589,0.496640556032341,64.42288849900675,63.99148274532774,1.308332819650179,6.008902049082148,Relax
7,97.43097690680536,67.5949864396822,68.02189581673157,0.1213092218444593,0.0841610693632682,98.5929,0.1265634146341463,134.5,717.6,36.48648648648648,70.27027027027027,644.0,12.333333333333334,48.09874380117573,129.2629167094154,19532.487628137944,4.997727667861714,1389.5499396237317,36.33142196807361,31.56419824914156,94.94048101351424,87.72232726705218,0.5431576073138974,0.4568423926861027,71.8806898871306,65.92232289694788,1.455287232606842,6.047291203466787,Stress
7,95.14156391538351,69.58125268085995,70.05447581894884,0.1132252545745808,0.0828066590897687,88.95599999999999,0.105211117681845,112.5,765.4,40.0,72.85714285714285,644.0,17.5,49.53599490404774,124.52749142682156,19379.207019574515,4.994306112084744,1252.18812308865,36.90169771321703,33.08533974258618,94.13735821740836,81.51842680587289,0.5691315134682429,0.4308684865317573,71.49677442469103,62.20889652930201,1.9459101490553128,5.986425874087824,Stress
7,72.22031627974543,65.79346025073241,66.28255656394978,0.0845269502205522,0.0770049319350771,74.13,0.0856004618937644,94.0,797.6,43.47826086956522,72.46376811594203,652.0,11.5,46.868845220749805,91.44807809740188,13465.072886889271,4.836178818566219,713.715129811319,34.49129243347288,31.73396880504238,63.08803992015893,66.20158764516867,0.4895853926131677,0.5104146073868321,50.84166615434092,51.9119205137912,1.466337068793427,5.847654891560778,Stress
7,69.63868448507334,60.30394031397372,60.72171439003903,0.0826375750386535,0.0715603895976904,74.87129999999999,0.0891855866587254,101.75,781.2,38.57142857142858,72.85714285714285,717.0,11.666666666666666,42.93673601046936,88.82092221632753,11981.03060866569,4.78546428764824,734.9563060811399,30.90295531270146,29.83336071857654,60.47364808844446,65.05454719106025,0.4738001119853957,0.5261998880146042,48.02111389890829,50.60693392213458,1.9095425048844383,5.757854445516395,Stress
7,78.3201190389651,73.29139493438893,73.49134679559374,0.0952848481256793,0.0891668644140854,66.717,0.0815611246943765,88.0,768.0,32.3943661971831,67.6056338028169,528.0,11.833333333333334,51.96622967769658,89.13061576510432,14551.17246182409,4.869868098004386,611.4945583651814,26.83929630387049,44.77042890511353,62.147322630544,63.89035104397015,0.4295280763158733,0.5704719236841269,47.86772156804564,55.16506258887758,1.810108607896252,5.896225992744119,Stress
7,154.2815178479989,197.75914936968223,199.204782029174,0.1852754546124536,0.2374873984538987,104.5233,0.1293605198019801,159.25,728.6,35.714285714285715,67.14285714285714,526.0,14.0,140.85905221761698,167.9539902439793,74323.29597288689,5.578095070784534,801.0430964790121,100.6795294340355,98.51668267205248,120.69829393165334,116.79239992766178,0.5141356057771529,0.485864394222847,111.14055471579807,108.04166197714837,1.2305398317106575,5.986425874087824,Stress
7,101.02749524025896,71.22333809144926,71.70924463988699,0.1254957229829479,0.0884731853025642,84.5082,0.1089023195876288,150.0,722.0,38.35616438356164,73.97260273972603,649.0,18.25,50.70609315862918,134.24092475948493,21384.29603353488,5.037065067908212,1421.5747858077632,40.609701886666734,30.380219658173527,92.5669177146127,97.22135375059229,0.4961839149662743,0.5038160850337254,71.47650712824397,72.02412572040245,1.5939337258981352,6.02544099723618,Stress
7,87.44714925235165,68.49200631882135,68.95918951752174,0.1070599344698064,0.0838535020397064,88.95599999999999,0.1109868995633187,124.0,743.0,40.27777777777778,70.83333333333334,658.0,12.0,48.761510532967904,114.16503462437484,17488.805029193532,4.949730246086729,1069.175666489871,35.94589187733617,32.96935806819071,77.70686196291301,83.63790250037054,0.4756106400974696,0.5243893599025302,60.54115764907522,63.569950865523175,1.7730673362159024,5.919925001442312,Stress
7,99.28300074533982,83.97750048813845,84.60186544351883,0.1165372729216869,0.0985718483546807,91.9212,0.1103495798319327,128.0,773.2,43.47826086956522,68.11594202898551,640.0,13.8,59.822552756144006,128.11811513868784,24078.274142816044,5.0885954647604965,1097.5293209970396,46.49771299142395,37.63909526725255,89.09521619882032,92.0667903056012,0.5051768017396507,0.494823198260349,71.0633339456691,70.33134212324138,1.770706060030223,5.894685507471452,Stress
7,95.94543188663128,73.57329577194615,74.00631031561419,0.1117938548370618,0.0857262527843101,108.9711,0.12708,147.25,779.0,45.588235294117645,72.05882352941177,640.0,11.333333333333334,52.33036387476672,123.38578254498326,20284.70738047914,5.014138857079295,1163.687787126495,36.94477861168837,37.18341109427779,86.29272135558631,88.19080210138152,0.4902937491986651,0.5097062508013349,66.37526054796142,67.67652338843618,1.7047480922384253,5.793345194191517,Stress
7,71.23943966634742,61.674578419219095,62.08832020228399,0.0848102990976771,0.0734233658624353,67.4583,0.0819165755919854,93.75,779.2,41.42857142857143,75.71428571428571,734.0,11.666666666666666,43.90307224751672,90.183928047576,12438.66961251548,4.801744042499817,741.008814347875,30.68866431839383,31.433286029116253,66.46283222048228,60.95763128044253,0.5325558374095509,0.4674441625904493,51.7643805353403,48.49682609156304,2.833213344056216,5.814997302659252,Stress
7,61.0397897736688,55.92469426444304,56.31730571853953,0.0734770790059761,0.0673197465798965,56.3388,0.0691273619631901,96.5,778.0,39.436619718309856,73.23943661971832,701.0,10.142857142857142,39.82234877173524,76.80208761827949,9608.37112601198,4.689619879425987,592.487469419434,29.21732660448323,27.070225367537585,52.57867520830808,55.98252920211026,0.4833887049713946,0.5166112950286053,42.533335518001614,43.97067589493254,1.8607523407150064,5.896225992744119,Stress
7,73.1369396078949,67.15051136417792,67.64779125075876,0.0857160857584799,0.0787000252085517,83.0256,0.0987224732461355,107.0,787.8,40.57971014492754,75.36231884057972,701.0,13.8,47.83421192570352,92.40475900294082,13886.18141297088,4.849552944664376,714.0194553349269,37.29531201783225,29.95506585119208,57.29749459151914,72.49576953123821,0.431697839131007,0.5683021608689931,48.342234045256056,55.465947076001775,2.6741486494265287,5.8657000002250745,Stress
8,58.4982385414185,81.03405239193474,81.5129915235286,0.0851142591327929,0.1179036071143246,51.891,0.0749328519855595,76.0,632.0,39.53488372093023,81.3953488372093,552.0,8.6,57.63838906108864,57.89658388687805,10483.701487842029,4.7274847563427365,232.6237412511748,40.24715310842909,41.26150633171194,42.61708045160399,39.18926995431046,0.5148132633837995,0.4851867366162004,41.44905837019594,40.23873000178885,1.9021075263969205,5.920337138372714,Relax
8,67.99017178216415,91.59091302545907,92.11026892581992,0.1002532955670703,0.1350532089287641,74.13,0.1091752577319587,99.5,620.8,47.12643678160919,78.16091954022988,515.0,12.428571428571429,65.1317957743638,70.33563321382415,14391.906431389489,4.86508843675403,303.8209673645637,43.0144982398206,48.92389047105237,52.2863931989295,47.045025091252114,0.4987668518107077,0.5012331481892923,47.87543196973052,47.99365293796707,1.7147984280919268,6.1584045590422525,Relax
8,78.45851457096501,117.11518223138668,117.78067868134148,0.1185153820807529,0.1769081487906008,74.13,0.1131755725190839,107.0,597.0,60.67415730337079,83.14606741573034,510.0,14.833333333333334,83.28351658833039,73.83244775987895,19317.734555742,4.992926304110177,261.81557002020617,54.50798739318094,62.97372194155602,59.62998281040442,43.537288526573725,0.5268674606833512,0.4731325393166487,57.12641919298066,54.13494780369952,2.583997552432231,6.22006053768366,Relax
8,78.45878264767688,107.8406231436002,108.46492159074414,0.1141662770752294,0.1569201311351497,83.0256,0.1206767441860465,110.5,617.0,59.30232558139535,81.3953488372093,510.0,14.333333333333334,76.69628157768234,80.1562741855965,19313.53200763225,4.99283181363013,335.08942854335857,49.96778724243012,58.20003477334912,62.51887578532739,50.1639159342184,0.5203804110089569,0.4796195889910431,56.59235633619596,54.33075790689091,2.833213344056216,6.193706615167214,Relax
8,77.05361183700101,103.00205594749924,103.61198085661142,0.1126821285876426,0.1506287717909967,71.9061,0.1059780397936624,99.5,630.0,51.16279069767442,79.06976744186046,433.0,14.333333333333334,73.26473427588067,81.45942262877882,18749.348393528016,4.979956289011526,362.2827599443575,45.45523700772631,57.46028649258132,64.49683456042152,49.75736997369958,0.5186837099880416,0.4813162900119583,55.79435562735246,53.74700173269735,2.512305623976115,6.161673039560662,Relax
8,81.37918817252984,115.16248402701603,115.82244579460088,0.1225963598523165,0.1734903192119643,85.9908,0.1293094736842105,116.0,600.0,56.17977528089888,84.26966292134831,433.0,11.125,81.89883683497361,81.76550075291614,21037.673335180243,5.029967817232168,326.52952699910145,53.7707457959091,61.77480422293226,66.2283571122143,47.95207844913652,0.5433793280076579,0.4566206719923422,60.32200423241615,55.29705355791461,1.871802176901592,6.189106745524522,Relax
8,69.45218105349471,92.1446032439054,92.67179336729008,0.1033355523344798,0.1370988401864069,68.19959999999999,0.1016387481371087,86.5,619.2,51.72413793103448,81.60919540229885,511.0,14.5,65.52885351472935,72.65993350583595,14958.134653551831,4.881847548398032,322.2681706699356,46.00818341530636,46.67446713517939,55.365601402512695,47.05439531447182,0.5412273344046091,0.4587726655953905,50.90237106382367,46.864816231174586,2.240709689275958,6.181393064789377,Relax
8,57.822305538294174,78.26737257117682,78.72017580384721,0.0862668331644155,0.1167694423278102,46.7019,0.0706534039334341,69.75,628.4,37.5,65.9090909090909,532.0,11.0,55.663570127097536,60.280876030207615,10541.453206052523,4.729870595208886,261.12475406605654,35.80851853958776,42.617552885559824,48.18757628822901,36.21797214692408,0.5353739366729885,0.4646260633270117,42.45169318492427,39.54742292734671,1.9278916435526348,6.0730679822736615,Relax
8,66.05527137484557,62.27340947860401,62.61344759893611,0.1011153250967122,0.0953261702397244,67.4583,0.1024423690205011,89.75,589.0,27.77777777777778,48.888888888888886,532.0,10.0,44.27439339067628,82.33344378362104,11451.932338602925,4.765848883378921,612.4349038917135,31.9797521168402,30.63197972410829,52.98740155199944,63.01691234928804,0.4382664450413998,0.5617335549585999,43.76282251344957,49.54517849325015,1.0986122886681098,6.141744485170488,Relax
8,66.75337001656503,49.59572191413195,49.880019103851474,0.1004033117653908,0.0745966043113407,71.1648,0.1056641425389755,94.0,600.4,28.40909090909091,54.54545454545454,532.0,8.8,35.27049975404791,87.83695878456736,9732.821906193005,4.695208886572012,874.9897372958334,25.59410360873933,24.271597910238192,54.01479550290716,69.2656711170902,0.3987562140078649,0.601243785992135,42.26497529134355,51.89818715724656,1.421385680931161,6.0331841754063085,Relax
8,50.019673284201644,45.95752514710794,46.22830932051326,0.0730313385358959,0.0671003898450185,47.4432,0.0695648093841642,65.0,649.0,24.418604651162788,60.46511627906976,592.0,7.818181818181818,32.68835100332421,63.137407397557546,6483.800296606488,4.518799739917191,487.7985080960209,23.58709796639236,22.633335086611897,43.66913327159175,45.59976986995781,0.4873131834949735,0.5126868165050265,35.09518764138633,35.99726982241827,1.6625477377480486,5.920337138372714,Relax
8,46.75902657613253,45.09258449535343,45.356338906393184,0.0683007725651776,0.0658666055200828,39.2889,0.0577353416605437,52.0,645.0,18.6046511627907,62.7906976744186,603.0,10.75,32.07177481050586,58.051456214529615,5849.058769287901,4.474056094985434,420.30372045684686,21.4469167503219,23.849603171301847,45.22989964483333,36.38994018607006,0.5696428969094032,0.4303571030905967,35.39572050387541,30.76549461795087,2.374905754573672,5.998882341886242,Relax
8,41.24078694492857,38.42338248825942,38.64550435280545,0.061465843288966,0.057266744444259,39.2889,0.0591255079006772,51.5,635.0,9.090909090909092,54.54545454545454,604.0,9.77777777777778,27.326498190242976,51.47718226592269,4419.250513684414,4.352318731036881,387.887284435908,18.042424165489567,20.523950841383705,39.697428329763454,32.77216010644279,0.5597892664792488,0.4402107335207514,30.83354411808792,27.34270502512375,1.7730673362159024,5.871085737832556,Relax
8,43.9537958914186,38.515839332903965,38.7497073254472,0.0631120639797467,0.0553038495746044,39.2889,0.0565307913669064,52.75,665.6,16.666666666666664,67.85714285714286,593.0,6.0,27.40018081881775,55.96186939105941,4817.209288274295,4.389765625026104,457.1839647994145,18.97720069824481,19.764775269742245,40.34457467753885,38.7820334669352,0.5119930611192477,0.4880069388807526,31.526329093735068,30.77899008490936,1.6582280766035324,5.808751351247166,Stress
8,45.69646842908932,52.016366472028594,52.32647606645215,0.066006182518312,0.0751349480019445,38.5476,0.0555440922190201,46.0,659.0,23.52941176470588,65.88235294117646,577.0,6.538461538461538,37.00040606218389,51.26611175034491,5959.183281215514,4.482156852794945,284.12814817024486,24.62355126923072,27.61940124805758,39.25942763095959,32.9683417248775,0.53725942806205,0.4627405719379499,32.76905502924205,30.41169907609161,1.727220948090484,5.794512553708405,Stress
8,64.97388615707807,77.1380950911138,77.58895474149155,0.0941698692746711,0.1118000593848734,59.304,0.087340206185567,89.0,639.8,40.0,80.0,566.0,10.625,54.8636760428848,73.80634753404814,12721.211991130383,4.811498599889373,397.1572690141064,37.72083569836613,39.85130494756849,53.23725664843365,51.11918857792544,0.5032966770222357,0.4967033229777644,46.13603223747316,45.83283728338013,2.995732273553991,6.000509906700483,Stress
8,80.35562852077722,90.10150102969916,90.60280992283784,0.1127521836493188,0.1264272481989625,85.9908,0.1211138028169014,114.5,640.8,46.98795180722892,80.72289156626506,553.0,13.833333333333334,64.06586129099445,92.46978111009363,18611.28550304372,4.976746481351405,533.8668830009515,43.97754758235189,46.63934385325043,71.33480894865,58.83880905327906,0.554717823020068,0.445282176979932,59.25655937994721,53.09064816834488,1.7346010553881064,6.124980545778692,Stress
8,95.59674302991884,118.15573527246902,118.88630189293372,0.1328475084049916,0.1641969646371186,91.9212,0.1273146814404432,119.25,645.4,59.7560975609756,78.04878048780488,304.0,13.666666666666666,84.06531025868452,104.9139954944872,27707.677218136683,5.149570229622469,523.7331030717365,61.28963003640991,57.54324460785992,73.83677071428947,74.53239390427981,0.5094603726727964,0.4905396273272035,67.85384093592107,66.58191474080152,2.079441541679836,6.113649565593695,Stress
8,91.3753118684014,112.99720814081668,113.6758452405992,0.1313241044386338,0.1623989769198285,94.8864,0.1377161103047895,124.0,624.4,61.1764705882353,74.11764705882354,304.0,12.142857142857142,80.38096102674021,102.15466538431804,25796.528896420747,5.118531382492963,519.3058419050451,60.31748332930281,53.13100426735628,61.01748835749299,81.9294927015003,0.4356674519330513,0.5643325480669487,60.66849545125342,69.04833592775073,1.4190841839428814,6.141686377288718,Stress
8,77.53423929661865,95.76639484157468,96.33172853205537,0.1107687839758741,0.136816033775381,90.4386,0.1299405172413793,119.0,628.4,61.1764705882353,82.35294117647058,562.0,14.166666666666666,68.11681848843794,85.86293890328022,18374.26507319209,4.971180087321272,432.92945505726,47.66133033853077,48.674911278314696,58.84686004152633,62.52592534590308,0.477350800011082,0.5226491999889181,53.54696698406708,56.03007374755656,1.4586150226995165,6.291743877314172,Stress
8,76.58877125521985,108.58599635611934,109.21542925026716,0.1136952376753937,0.1611947869327779,80.0604,0.1202108108108108,109.0,610.4,66.66666666666666,83.9080459770115,515.0,14.5,77.2269706330635,76.29634112424164,18510.688958023475,4.974392693225746,301.5077049496188,51.673864141305685,57.398862460546255,60.10212180525401,46.99858107914599,0.5330460120217938,0.4669539879782061,56.046647004025616,52.45710645478726,2.2772672850097555,6.22737007628363,Stress
8,112.18099260837006,134.53064378663717,135.32901912511946,0.1638457485194087,0.1964884916553581,72.64739999999999,0.1080258736059479,95.75,614.0,54.65116279069767,76.74418604651163,515.0,12.285714285714286,95.69206711469594,127.7141317152331,38394.12407232844,5.291234873958828,681.807800022786,68.37153403768754,66.95005245561441,86.28684177843238,94.1566799312703,0.4758970047884956,0.5241029952115045,77.84627714529093,81.69391011418539,1.7090677533829417,6.106383650000622,Stress
8,114.21092090418288,132.4977088750702,133.29336033052903,0.1645132736291398,0.190854181568903,83.0256,0.12191718061674,107.0,622.0,51.76470588235295,69.41176470588235,534.0,14.166666666666666,94.252638976859,132.05146100446467,39100.88633952828,5.299156712063626,740.0360793163551,67.18769788427008,66.10137340679888,86.45820571432978,99.81265960824952,0.4554968339421119,0.544503166057888,77.4248283250577,84.6521074289865,1.4733057381095205,6.174096818490641,Stress
8,81.71263713254558,80.06018569384743,80.50870487437562,0.126290357836608,0.123736423820719,83.0256,0.1324172248803827,120.5,571.0,40.65934065934066,60.43956043956044,535.0,13.0,56.928251161217446,101.26003317992988,18109.888670350098,4.964885890480088,720.4573553867253,36.877796980193374,43.36881290264087,73.20010459320842,69.96669927289587,0.4978522338691863,0.5021477661308139,57.957860651377615,58.2073575234614,0.9351592161785378,6.213784887427669,Stress
8,67.43081255551967,37.54802168669169,37.7563623899245,0.1020733854174883,0.0568383138811244,63.7518,0.0954368263473053,95.5,601.0,17.77777777777778,48.888888888888886,535.0,12.857142857142858,26.697779878852334,92.01420899955669,7717.55827960198,4.594450027729009,1268.5121678631583,18.14603011931009,19.58721753871874,67.3113846055636,62.73589212162357,0.5294485856231942,0.4705514143768057,49.29554192119716,46.47284826221157,1.1252805357502709,6.180741985218566,Stress
8,40.74900284047448,33.614587253013774,33.8164254630174,0.0592555598761454,0.0488809798728238,38.5476,0.0564386530014641,51.0,655.0,12.941176470588236,52.94117647058824,599.0,8.5,23.91182376038904,52.60577342995808,3951.809345656982,4.303766093922313,462.9287043756732,16.84550635443617,16.970740234190888,36.96874263482746,37.42565251487241,0.4942760078446186,0.5057239921553813,28.72680817927271,29.057576380871485,1.7764919970972666,5.959218436061343,Stress
9,57.86858456334559,77.16538083881916,77.47589177577508,0.123178728502577,0.1642537754787852,17.7912,0.0385926247288503,24.75,449.0,5.555555555555555,26.1904761904762,390.0,5.727272727272728,54.78372845312562,61.213250726588015,10535.299879445787,4.729617011950047,273.5894157128945,38.114270039516185,39.351753250280574,44.03366535262647,42.52174008820702,0.5025934158696528,0.4974065841303473,41.180464209575504,40.967419152297104,0.750088556960084,5.657818816945374,Relax
9,13.08126975358776,14.977502508607664,15.035088965277142,0.0287802103297862,0.0329521277775351,11.8608,0.0261827814569536,15.75,445.0,0.7692307692307693,11.538461538461538,414.0,3.5135135135135136,10.631413363090498,15.154235710870411,506.14495822145534,3.4112450251016626,86.40463958551668,6.701504028947531,8.254023640019454,11.81788931409492,9.486219064538895,0.5385996260238347,0.4614003739761653,9.606577540680108,8.89149195552752,2.5552874465498,5.314451537488648,Relax
9,19.39421989294505,14.82522855050819,14.88389007373523,0.042242417450218,0.032290728716202,12.6021,0.0276059145673603,16.25,447.0,0.0,12.5,414.0,4.129032258064516,10.524499601573323,25.44355548435672,841.2578470877454,3.631899238226232,246.04476799591004,7.366537383049991,7.516648189186453,16.79617851687831,19.111852419760226,0.4436875950678275,0.5563124049321726,12.968760268173622,14.521757863886428,1.997467958720164,5.407205059911622,Relax
9,18.873986388803093,13.08843331396746,13.139317706459346,0.0409552834096222,0.0284010216347025,11.1195,0.0242519083969465,15.0,449.0,0.0,9.375,414.0,3.657142857142857,9.29090065040188,25.05881844685131,731.422436787668,3.571138388391517,270.34812041611644,6.623371318222135,6.516462668832356,16.842010719521923,18.555081699517373,0.4585364567401993,0.5414635432598007,12.796920971380947,13.906030033587053,1.4307461236907244,5.354050320556694,Relax
9,16.899447550715372,11.638768727833714,11.683339873950263,0.0367298828036035,0.025296129359772,16.3086,0.0356082969432314,22.0,445.6,0.0,6.976744186046512,414.0,4.3,8.261368851777416,22.48642895078409,583.6095320471812,3.473092486537703,244.8211651268294,5.92804624505111,5.755175691852899,15.440892632425324,16.34681380797416,0.4766707449575381,0.523329255042462,11.695360139165258,12.254394495785364,1.17760069998674,5.44685734526693,Relax
9,43.51916830832959,61.73689694537979,61.98322148801033,0.0935690115656168,0.1327383001297357,19.2738,0.0418086767895878,26.0,444.2,3.149606299212598,14.960629921259844,408.0,5.7727272727272725,43.82875623395983,43.5294215408675,5993.657402831602,4.484662025029203,172.92852478568707,30.55486867914834,31.422412383520136,31.12129470518512,30.4347754313311,0.4984919759743803,0.5015080240256198,30.83938216085873,30.932535909261908,0.8826175167675674,5.681164116313021,Relax
9,44.26143482088104,61.92895374943775,62.17228996322762,0.0969031107547886,0.1355832292467579,19.2738,0.0429260579064587,26.0,437.0,3.875968992248062,16.27906976744186,408.0,5.375,43.962447834894576,44.88807404738001,6199.586313123189,4.499332820762955,183.3327570157493,30.420866750608337,31.73748125695284,32.2396649444951,31.23368687730868,0.4977219552788152,0.5022780447211846,31.343461276569105,31.486591689838367,0.8960219765397033,5.806396418194093,Relax
9,20.40908239926149,13.87922233051982,13.932960888274009,0.0444432152721135,0.0302236648261627,23.7216,0.051793886462882,32.0,440.0,0.7751937984496124,6.976744186046512,419.0,7.166666666666667,9.852091126105494,27.186472738308428,841.4555074816171,3.632001267271774,300.0801720123567,5.978965754715692,7.8311411463172655,20.425311779685693,17.941876675906016,0.5416798758950198,0.4583201241049804,15.04894336479193,13.842646248224426,1.4014845266138658,5.808448065531226,Relax
9,17.18580809854457,12.841465095792287,12.89351982184368,0.0362490257381177,0.0270857556481115,16.3086,0.0344790697674418,21.0,459.8,0.0,8.799999999999999,437.0,5.0,9.117095299388833,22.562333157815463,646.234850078116,3.5173604848574485,223.3425716448896,6.214002022707378,6.671441379589632,18.18467455195055,13.35576613167141,0.6236206776264263,0.3763793223735738,13.588528428394469,10.556623964251116,1.7458497679239768,5.59148263682879,Relax
9,19.37296985505512,13.360983235371304,13.413636747491369,0.0416122716164124,0.028698793608432,13.3434,0.0290073913043478,20.0,453.0,0.0,10.236220472440944,429.0,3.4324324324324325,9.484873504524211,25.659868611176805,764.6027298668206,3.5904059542123914,277.67533508118635,6.646502839839911,6.767274192760332,20.8412138292747,14.9690568595789,0.6394062611104241,0.3605937388895757,15.468228629638736,11.616123778294249,1.5421047923655131,5.558584341389424,Relax
9,57.044084347591365,80.65250629492888,80.97181188975526,0.1239583525141194,0.1752600978838601,14.0847,0.0309214050493962,19.0,444.0,2.34375,9.375,389.0,3.45945945945946,57.255717272207455,57.25823957519209,10299.276644925214,4.719776833681615,229.04304795717,37.03585778545924,43.66430382556704,43.89912953273029,36.76101774323803,0.5031146980206164,0.4968853019793834,40.61273405987459,40.36052436533803,0.6119927440337185,5.460556008531233,Relax
9,57.46089298142018,81.16506637710586,81.49168728633732,0.1228526040700277,0.1735326279591288,16.3086,0.0350722580645161,21.0,452.0,2.380952380952381,8.73015873015873,389.0,4.666666666666667,57.623324690502685,57.7378251375379,10452.22152761788,4.72617871568628,231.4102124109022,37.23855095756755,43.974286841582845,44.09206709426493,37.27661560506454,0.5005662733731269,0.4994337266268731,40.80943553925069,40.7632430885568,0.4887549396466804,5.649627443220993,Relax
9,16.650794402438684,9.226374382820616,9.262506450566264,0.0361231450909671,0.0200162017762586,16.3086,0.0353,23.0,446.0,0.0,3.90625,415.0,5.12,6.549581121979544,22.43807738166144,461.6884816062292,3.371319149691067,307.4806203382111,4.298393941484479,4.942125370182668,15.522236994205628,16.202699629417964,0.4748008291851414,0.5251991708148586,11.388942702913123,11.978148405654029,1.4505139538541845,5.609473149067329,Relax
9,45.59055665605708,59.57541128376396,59.79682108649971,0.1047793106079216,0.1369202523800912,16.3086,0.0381042056074766,21.5,414.0,10.294117647058822,24.264705882352946,375.0,5.037037037037037,42.28273768366268,48.9518874589454,6502.530729917891,4.520052523240656,226.6917817593576,28.80920250985319,30.94976671481536,38.469266343971576,30.272146153681124,0.552049302586694,0.447950697413306,33.98422135563176,30.61283139838035,0.90078654533819,5.657311485204856,Stress
9,68.26023470836849,88.56957346101252,88.8945703228811,0.1593678079067952,0.206784210895644,14.826,0.0352161520190023,22.0,405.0,10.869565217391305,22.463768115942027,345.0,5.111111111111111,62.85795348597364,73.7181850946829,14557.431141414352,4.870054854476045,345.81913742174714,47.30734926116287,41.39009188057394,48.03240336900655,55.92190125747672,0.4842681897432031,0.5157318102567969,47.67125479531978,49.19552188021451,0.4409772556614299,5.569995246690176,Stress
9,68.43846948853141,87.6840094158928,88.0034419015688,0.15966142893669,0.2045597212045433,23.7216,0.0562123222748815,30.5,402.0,10.071942446043163,15.107913669064748,345.0,5.148148148148148,62.22783053635566,74.59026712552507,14581.986623150757,4.870786805459356,357.6347047231013,46.81525267700345,40.99554898396106,49.09882334080554,56.15170074366009,0.4877444929093615,0.5122555070906387,47.9706281836256,49.16120692630475,0.362170469768,5.863706094917355,Stress
9,18.25538837694308,13.641983129431868,13.68987634008226,0.041703472347509,0.0311643912721135,14.0847,0.0320835990888382,19.0,428.0,1.4705882352941175,7.352941176470589,389.0,4.533333333333333,9.68020439367744,23.84600029853436,725.1868913937006,3.5674200550724726,234.96682801825887,6.093488082775363,7.524338618230246,18.94668409608392,14.47946449289133,0.5980081402354436,0.4019918597645563,14.073155922743924,11.53842631476866,1.4343035803062512,5.634543154531084,Stress
9,15.673263979084702,17.333160748647707,17.4001298838873,0.0345627065273983,0.0382231135101902,14.826,0.0324420131291028,21.5,441.0,1.5267175572519085,10.687022900763358,385.0,3.9696969696969697,12.303749834423405,18.50794684996348,715.3945192241767,3.5615157185734354,111.36250369548446,7.489268808556794,9.761893957804032,14.376497407166696,11.655917763213782,0.5320065314370303,0.4679934685629698,11.462391220532748,10.750697478447933,1.168993085429909,5.440167330754378,Stress
9,57.504220444735566,60.345379984686346,60.57702085014805,0.1275509510788959,0.1338529685427423,27.4281,0.0617055118110236,33.5,423.0,3.0303030303030303,23.484848484848484,398.0,5.076923076923077,42.83442222721856,69.47998144423676,9349.8034170492,4.677772589733958,450.8026554796329,30.968594513698005,29.59281357668809,61.567452939596514,32.20118879827348,0.7129123987201511,0.2870876012798488,48.73194592679055,30.92451434870618,0.4858208864860582,5.774719290617401,Stress
9,57.53042859812896,61.21862942140484,61.44493966163355,0.1330059859925017,0.1415328264661727,14.826,0.0348028169014084,20.0,412.2,5.839416058394161,32.846715328467155,355.0,4.566666666666666,43.44813350433933,69.1202821080239,9434.665322185489,4.681696608918912,439.845214360304,31.063376077518253,30.377745265365025,62.203975979894494,30.13766366169611,0.7252829872069575,0.2747170127930425,49.16435680978967,30.25794258036165,0.7637647477738988,5.615311762178713,Stress
9,20.45576658142418,32.57023401642813,32.688016340265975,0.0485448667028187,0.0772944715864583,14.826,0.0351327014218009,18.5,409.0,11.428571428571429,39.285714285714285,334.0,4.0,23.11391801773874,17.558979064950137,1275.0367494024626,3.812492812247607,53.35620651881506,15.795683688539912,16.874537030686206,13.474981264285676,11.258002741628165,0.5116228240428972,0.4883771759571026,14.681259197719656,14.34385976176753,1.7827096337081372,5.652552128219642,Stress
9,24.01294935854813,37.9073083821178,38.039338082952725,0.0570465953436517,0.0900548637134359,18.5325,0.0442831541218637,27.0,404.0,17.142857142857142,49.28571428571429,357.0,5.6,26.897873910303552,20.14471546204648,1702.2720310490354,3.937999073550084,60.3481988799664,17.162057915181908,20.71598836437797,16.48496040272369,11.57824000301629,0.5013644716384699,0.4986355283615302,16.826915215859174,16.78105800419762,1.9328380674879608,5.872943220878737,Stress
9,22.818567689675618,36.09323244836113,36.2228251616671,0.0542291933970042,0.0857769387362029,16.3086,0.0388299999999999,22.0,406.0,12.76595744680851,44.680851063829785,355.0,5.035714285714286,25.613405305549502,19.72171436441916,1586.944940329248,3.907531968962387,60.74100851985755,16.413168077215783,19.663536717970977,16.160065033263724,11.304791709378108,0.5076970849300423,0.4923029150699576,16.287108218008626,16.038282199964822,1.868949107919185,5.830441866857716,Stress
9,21.22424718437444,31.05873351468524,31.17183888732028,0.0496193884322532,0.0726110730378977,19.2738,0.0450322429906542,25.5,411.6,10.79136690647482,41.00719424460432,371.0,5.791666666666667,22.04181865927869,20.25243278063965,1402.4083766670724,3.8538446071215606,74.43324706995841,15.029532970583904,16.123157394864133,14.866494926029654,13.753121905540654,0.4987695180018761,0.5012304819981238,14.948236228725015,14.98506867732384,1.7788560643921472,5.827594224351499,Stress
9,27.3315707625556,44.71100618498844,44.87328513917684,0.0625089317028094,0.1022567365872097,16.3086,0.0371494305239179,24.0,421.0,17.647058823529413,47.05882352941176,316.0,5.037037037037037,31.730204216029463,21.70369332706713,2163.49743253744,4.042126494111518,59.38194419781429,20.64030978594317,24.103399772584257,18.235426292401225,11.76943210056376,0.5132133006767713,0.4867866993232287,19.475024520206635,18.96698991098476,1.076353818067167,5.886725893116901,Stress
9,29.68186392195919,49.75319685221167,49.939888116540494,0.0679368558113406,0.1138768026694343,17.7912,0.0405266514806378,24.5,421.0,15.555555555555555,32.592592592592595,309.0,5.0,35.31283353890326,22.93186947055192,2544.028082375956,4.112492010945086,59.56708479200262,22.9374763116798,26.84899292436556,19.269583363677835,12.431966634635964,0.5062109703143403,0.4937890296856596,21.183067088580465,20.92154649467067,1.2264456601779945,5.734543612841531,Stress
10,149.69078987131547,170.3228551897836,171.4860843120399,0.1845693380728997,0.2100087565045892,83.0256,0.098255147928994,132.0,730.6,64.38356164383562,83.56164383561644,301.0,10.428571428571429,121.25897309617142,174.12474589281632,66332.17752276617,5.5286943643172926,1000.1545075989152,73.34219430033936,96.59272710498168,151.14057159201818,86.46360362069059,0.6267685989914069,0.3732314010085931,118.79088737346544,91.66817790447612,1.4469189829363254,6.02544099723618,Relax
10,113.52023485953356,145.9424850933541,146.9857892871773,0.1320228488190231,0.1697295875893291,51.1497,0.058860414269275,68.0,822.8,52.94117647058824,82.35294117647058,301.0,7.555555555555555,103.93464834302009,119.81972173590704,39123.57480467782,5.299408640305751,552.5304966439269,64.62314999403475,81.45434675976847,96.41513908739591,71.13990913424257,0.5352899016973769,0.4647100983026231,82.0732312035825,76.47122752280394,1.4929040961781488,5.752832142689113,Relax
10,128.1158303878793,141.14966727353124,142.1686252744337,0.1553263884010011,0.1711284856463358,63.7518,0.0740439024390243,105.0,778.0,54.929577464788736,80.28169014084507,346.0,7.1,100.52839900352129,152.23368491899737,48078.33273037884,5.388919508670468,922.1312605686596,65.52856440990591,76.2364266845134,124.4899961414888,87.62040678237385,0.59468477873717,0.40531522126283,99.47801740317074,82.12590467791468,1.409824858530085,5.874961556063458,Relax
10,126.20800251283022,133.7670878909192,134.71463542610329,0.1550599146958991,0.1643470526789786,94.1451,0.1108241318422601,117.75,748.2,48.61111111111111,76.38888888888889,346.0,10.285714285714286,95.25763223487112,152.28388849834727,45572.57966375531,5.365673722744918,973.7963101580316,61.20749253855399,72.9950096141608,120.96582440584596,92.5075781868226,0.5696290531128956,0.4303709468871045,95.8621088257584,83.32443654343702,1.5184661342283738,5.964996008356708,Relax
10,115.88461792568398,148.45661873779432,149.55484648486487,0.1342180216008761,0.1719430414252254,88.95599999999999,0.0997264573991031,137.0,775.6,59.42028985507246,82.6086956521739,457.0,8.625,105.75124610876104,125.95882089404628,41846.96374854207,5.328634062730976,600.1111152752281,71.37811864216879,78.03410085034868,103.62374026430528,71.6082747638444,0.5853176853768731,0.4146823146231267,88.97391574854882,74.89013923800859,1.6094379124341005,5.8367144929786985,Relax
10,135.58759851147727,161.36037002338742,162.50670192030262,0.1659466086357918,0.1974900836622678,91.9212,0.1092349376114081,130.5,739.0,69.44444444444444,87.5,312.0,14.4,114.90959091610692,155.05986122585136,55976.47448085522,5.454975652149709,836.955744831917,81.74385079537875,80.76204023461234,111.324265226525,107.93733614998374,0.5121103209453647,0.4878896790546352,97.66050678519652,95.32307086432888,1.6094379124341,5.909440452801153,Relax
10,103.31253766210888,116.48889205340993,117.28300910767985,0.1260506797205964,0.142127028872865,78.5778,0.0935449999999999,106.0,762.0,51.388888888888886,73.61111111111111,312.0,10.285714285714286,82.93161105800402,118.41944769995077,30852.68791395794,5.196263116105708,676.3725153610384,60.50625705542479,56.751651958335096,72.10974785184462,93.93268791163574,0.4238629814535165,0.5761370185464838,66.56133591700872,77.60186807772335,2.093234863812172,5.975480556997868,Relax
10,120.8324896784652,159.0266099952054,160.21733176112096,0.1403325186271051,0.1846904319255686,90.4386,0.1053449039021549,127.5,770.8,51.47058823529412,75.0,401.0,11.333333333333334,113.29076175190345,129.01836966315386,45919.369814005135,5.3689660292433,587.7174609167478,72.65735275311721,86.93231431825149,106.31004217540465,73.10208371313297,0.562407008254537,0.4375929917454628,91.0519521384007,80.31544657140734,1.504077396776274,5.910992253015046,Relax
10,188.07477108081932,246.47723743061664,248.1853995435345,0.2257037125693115,0.2957910156275676,142.3296,0.1654995348837209,191.5,723.0,66.19718309859155,88.73239436619718,345.0,17.75,175.4935790087259,198.8370963635034,109624.72482047298,5.746878626173059,901.1427338501844,112.87924803825176,134.43963140664147,146.14290004836357,134.82745883433077,0.4846984562071288,0.5153015437928714,130.57463741521005,134.63368476810842,1.6863989535702284,6.065240077251162,Relax
10,132.64742615410907,190.27579664234435,191.73246949888235,0.1510251593509492,0.2166376939357498,68.19959999999999,0.0772362400906002,90.0,823.4,62.68656716417911,89.55223880597015,395.0,11.166666666666666,135.57532935630255,131.5781278541526,56042.07972859636,5.455484353597188,510.79510739315486,94.79305394871017,96.92891923783831,82.62494495352138,102.40079199416031,0.4430077552759259,0.5569922447240739,88.91739032803288,99.70240113870548,1.9980959022258835,5.886984712845832,Relax
10,88.9833396312744,146.63560277095056,147.7743813672097,0.0994109453029793,0.1638192491643573,57.8214,0.0654088235294117,86.5,836.0,54.54545454545454,81.81818181818183,657.0,9.428571428571429,104.49226715040098,70.57839170029308,23168.91959910549,5.071875892431672,190.68623969389623,74.55099974178749,73.21975698197856,48.78863533139659,50.99978860250305,0.4992475374865323,0.5007524625134676,63.00072420218675,63.09560701823859,2.268683541318364,5.80196987693421,Relax
10,92.43309216107949,135.6605612504529,136.69954462676714,0.1052983503042188,0.1545424151355178,83.0256,0.0947780821917808,105.0,817.0,61.19402985074627,79.1044776119403,657.0,9.571428571428571,96.66117499070012,88.48788520190675,26871.11939438736,5.136255868567622,324.02278694663795,68.06976059670188,68.62921557739992,62.67401531804661,62.46658011624364,0.4985291827454155,0.5014708172545844,65.42753435587746,65.62028216256128,1.6863989535702288,5.816016242664287,Relax
10,141.75332144534303,165.8107879219695,167.011934782402,0.1684960519812194,0.1970921235275575,96.369,0.1106417910447761,126.25,778.0,57.14285714285714,77.14285714285715,380.0,14.0,118.09527162372186,163.1832935613438,60542.18299224721,5.489028186384038,901.9425394904216,87.99431799837986,78.77667615406448,92.24510636810332,134.60916628768268,0.4005209493046031,0.599479050695397,90.1447714758396,110.28461441775856,1.3545456628053103,5.832784624056918,Relax
10,143.84005278194846,206.7165222913623,208.25345609477176,0.1669323629964585,0.2399031206476158,84.5082,0.0986093348891481,109.0,793.6,47.82608695652174,73.91304347826086,431.0,13.8,147.25743101014805,141.6427927946158,65527.19438941505,5.523391683575189,544.968919070057,116.73586078849056,89.76353679146914,71.51899600745975,122.26084393927364,0.4489432276856458,0.5510567723143543,96.80451431608158,107.25018997199226,1.2139231351791042,5.7787434784859455,Stress
10,146.12086005771812,212.90063836959675,214.53134099799087,0.1646916918810179,0.2399586638197154,65.2344,0.0730508398656215,86.5,831.4,46.26865671641791,59.70149253731343,431.0,13.4,151.69656599672297,142.3685428082762,67848.4080683031,5.538509772196865,534.4564485867091,119.11720149628974,93.93135791629972,72.4963675521567,122.52786896496072,0.4492668031670146,0.5507331968329853,98.60180272328972,109.17000199939218,1.1616252564968437,5.845866988932945,Stress
10,111.68991923939014,137.08026845611298,138.11466699542905,0.1295331043657757,0.158979725666701,59.304,0.0680481927710843,78.25,813.4,48.52941176470589,69.11764705882352,424.0,13.6,97.66181761378972,125.62439889395374,38543.280196893975,5.292918782159543,646.3729626608498,69.2111941375049,68.90331390192105,103.47034906261028,71.24167644243636,0.6120340840694947,0.3879659159305053,88.02358357019388,70.08224856907582,1.3714792753347498,5.969815782426812,Stress
10,150.00453823362554,184.2591118231472,185.58558504815,0.1790091321960139,0.219887105384096,81.54299999999999,0.0944878331402085,110.0,788.6,65.71428571428571,85.71428571428571,364.0,14.0,131.22882567801958,166.54563081652734,68661.3532990884,5.543682468977744,845.4681203085995,96.57216899049855,88.87726997183846,128.9920534429453,105.34940575365086,0.5774803532192391,0.422519646780761,113.94106738783223,97.46195773299044,1.4759065198095778,5.87214015980211,Stress
10,106.85142980288968,140.54212732216203,141.60156005191516,0.1240867086772521,0.1632117608728036,63.7518,0.0736589254766031,85.75,817.4,52.94117647058824,79.41176470588235,364.0,9.714285714285714,100.12742333930332,113.98408464050688,35854.7855160026,5.261517238849587,519.0334922454475,72.245687718641,69.32706848152765,68.99486159593502,90.73081408591024,0.4335610036337076,0.5664389963662926,70.6389776277291,80.74132476289459,1.540445040947149,5.800554385304356,Stress
10,75.85231172135225,80.3442592846558,80.96689731945062,0.0851736661212591,0.0902176210556388,73.3887,0.0812271167681239,111.25,827.0,27.27272727272727,66.66666666666666,672.0,11.0,57.25224214621844,91.52147709270632,16461.34787364337,4.923435502813706,585.2124182552402,39.26910363122642,41.664958298311056,67.94004054111102,61.32154320059923,0.5283850678678712,0.4716149321321287,55.48833935489424,52.422802340694055,1.3437347467010947,5.862575937540271,Stress
10,82.44274650697236,87.9055578264207,88.59392265058997,0.0876428913964979,0.0934502740890369,37.065,0.039769313304721,48.0,897.4,33.33333333333333,71.42857142857143,794.0,7.875,62.645363478148646,98.38605039711967,19362.98605802108,4.993942442713144,618.0706360572716,46.194173218537664,42.34537929386137,79.22532327680175,58.33663569688292,0.6181118267302145,0.3818881732697857,64.84810516760689,50.97202277706771,1.5314763709643884,5.818549764769758,Stress
10,190.19107366351025,234.0716016647093,235.8109925085854,0.2209290249626634,0.2719013554691067,66.717,0.0733153846153846,108.0,817.2,68.11594202898551,84.05797101449275,301.0,13.8,166.74355188115086,213.21225698269748,111689.17641899522,5.7549811984824,1090.5241255759693,121.65463717536072,114.0341334078948,147.65789954308084,153.80705845370449,0.4996062904255104,0.5003937095744896,135.28249340499164,135.38905940339276,1.1561821404895871,5.8766403988071545,Stress
10,151.61807724336032,166.0146609401074,167.13593892629018,0.176009410306401,0.1927220230301728,57.8214,0.0643890868596882,79.0,824.8,52.17391304347826,79.71014492753623,301.0,11.5,118.18295579476045,173.89679200977403,64564.871450694925,5.516966400640187,1023.5010308527512,75.31813125351948,91.1772506976171,121.01068714919928,124.8859794651474,0.4593748602953882,0.5406251397046119,100.78791420563223,109.33846283843882,1.167605160155061,5.8367144929786985,Stress
10,88.52504902988763,86.9243837185429,87.58894247462315,0.1005131129997537,0.0986956855588533,40.0302,0.045079054054054,52.5,863.2,26.86567164179105,67.16417910447761,430.0,7.444444444444445,61.93473518076444,109.8451718172527,21372.982501269096,5.0368352401494345,779.2694510662371,48.93166349418025,37.97023125474036,50.94544777234776,97.3166127793028,0.3137808988926601,0.6862191011073399,49.94870539379727,73.86562659442896,1.2866645201710494,5.666762511321005,Stress
10,184.1845683652151,232.7422506204677,234.4978873225764,0.2150432788852482,0.2717364280449126,40.0302,0.0455665338645418,59.0,834.8,36.76470588235294,72.05882352941177,338.0,8.5,165.81504629971263,203.378964413698,105944.84766072663,5.732049950792228,997.8106110159416,105.61081355331912,127.8327209498982,148.46076893435827,139.00504758247922,0.4820691185704674,0.5179308814295325,128.82981768980125,133.5357776007274,0.6962288470973538,5.881580488309163,Stress
10,208.05372767544645,206.91533346729187,208.4759779412528,0.242125814754674,0.2408009904977811,64.4931,0.0735802624073017,94.75,780.8,33.82352941176471,72.05882352941177,338.0,11.333333333333334,147.41477771675693,256.9793428124001,119011.54925679884,5.782559218708242,1791.906718040964,96.3684532815526,111.55468152299557,151.49022604083598,207.579127193438,0.367281240477533,0.632718759522467,126.95701511492456,166.63364158549507,0.7039580966641612,5.969815782426812,Stress
10,114.42328521222316,125.09057587969224,126.00158999795175,0.1363016466689745,0.1490085819817993,57.8214,0.0669616676317313,77.25,807.6,31.428571428571427,70.0,302.0,8.75,89.09657872783875,136.26954758609125,38142.54913748077,5.288379824349457,833.6746422572058,57.96626808148096,67.66678740450931,90.57008017010692,101.81576585823234,0.436204505451675,0.5637954945483252,76.03626653549513,86.4443297589421,1.3281867303126098,5.7756417669140605,Stress
12,52.38483781474093,33.57743951590776,33.794555589331814,0.0656372729695008,0.0420719363667164,63.7518,0.0793920298879203,83.0,757.4,12.32876712328767,53.42465753424658,676.0,10.428571428571429,23.896359424402267,70.3234979661648,5279.369747285815,4.429552189386999,827.8071614786797,16.5276124056376,17.277152543170995,54.290599463819184,44.69815629370341,0.583758976643495,0.4162410233565052,40.12873759521865,33.88528571560477,1.882731247433782,5.905511031453121,Relax
12,58.19147460663785,40.253364248635584,40.53550000386551,0.0723256997017836,0.0500305715624748,63.7518,0.0789007425742574,88.0,759.4,24.65753424657534,63.013698630136986,665.0,10.428571428571429,28.66292693152062,77.37157060188316,6967.096439657167,4.550021932111268,835.415022576636,21.35151807117381,19.12302645621425,50.97994242490881,58.2014210114768,0.4487176766060708,0.5512823233939294,39.08223287883306,43.31913866064423,1.897119984885881,5.888454695866318,Relax
12,68.15082693018189,39.2103392515973,39.48756267021052,0.0834670262463954,0.0480224608102845,76.3539,0.0931713239780353,100.0,764.2,19.444444444444446,62.5,665.0,14.4,27.921923336634624,92.29398832908966,8095.9649021681,4.615238726697169,1220.285605542647,20.49198449568584,18.9680181960508,62.83023639599906,67.60578138083322,0.4697368159801323,0.5302631840198676,46.73093212289133,49.650414854252375,2.70805020110221,5.947702779220088,Relax
12,58.09995716720496,33.50186561969348,33.68717998677923,0.0714853427922327,0.0412202084953502,63.7518,0.0783191646191646,82.0,759.4,13.6986301369863,54.7945205479452,692.0,12.166666666666666,23.82043340770334,78.3763186174963,5865.221155245668,4.475254502319911,1031.5257014668337,15.611705611901474,18.03791000041576,60.21327012587189,50.17179905863534,0.5764896443033052,0.4235103556966947,43.98501592226546,37.6999709413892,2.3272777055844167,5.703389284848141,Relax
12,43.0533300246626,32.07226429465655,32.288516932850655,0.0541266105201242,0.0403212238630771,48.1845,0.0607240075614366,64.0,759.2,9.45945945945946,52.702702702702695,718.0,7.4,22.83142927767536,56.49788017466987,4052.426303849556,4.314685235611277,559.230948778579,15.087016124984938,17.1417699721405,43.8713301500004,35.599394027160336,0.5795960009405189,0.420403999059481,32.80481416412757,27.9388361683052,3.4657359027997265,5.827498466892592,Relax
12,41.49354383435281,31.84702304317201,32.06243314975481,0.0524642422810735,0.0402672266205571,34.8411,0.0440469026548672,45.0,762.0,6.756756756756757,52.702702702702695,682.0,6.166666666666667,22.67156390153198,53.33866090685421,3799.0364473746295,4.286643570091334,501.9526239465346,14.593329907110911,17.35495446391158,38.39201012593334,37.02791252321158,0.5021807408147785,0.4978192591852217,29.04231154098745,28.915919060882825,2.079441541679836,5.617906912780065,Relax
12,51.88710523335944,37.2838213349079,37.54495479652262,0.064878878456292,0.0466191455833694,45.9606,0.0580310606060606,60.0,761.4,13.6986301369863,53.42465753424658,682.0,9.125,26.548292135963536,68.70716477480933,5730.446842679019,4.465158598202031,711.2584820472059,18.695672467554743,18.84947789466351,50.24614945137208,46.86148692373281,0.5297577738562447,0.4702422261437554,37.90912623434959,35.716255218069755,1.466337068793427,5.79592199035723,Relax
12,49.5252691371286,30.15400286676528,30.316842109509984,0.0617933691184027,0.0376235699877598,50.4084,0.0637274336283185,75.0,759.4,12.32876712328767,46.57534246575342,723.0,10.428571428571429,21.437244639796383,66.38339981302195,4470.728819875506,4.357348437713196,822.2616002720356,13.286390368120474,16.867336548890023,51.47475483701478,41.9178408938813,0.5805874913268911,0.4194125086731088,37.591079756671405,31.950058117773967,1.4307461236907244,5.850716510905175,Relax
12,48.6977850501369,33.80889078172206,34.007794119625,0.0613907341347552,0.0426210888900755,45.9606,0.0587731457800511,75.5,754.8,17.56756756756757,51.35135135135135,687.0,9.25,24.04714183518283,64.26602193494213,4855.0617235941245,4.393164865533504,687.0041527013868,16.312699551780714,17.701812524898877,46.55144037893116,44.30671477315016,0.5166364761191576,0.4833635238808424,34.87936903113249,33.73750984183591,1.1394342831883646,5.864726676381287,Relax
12,49.114764469108266,35.290768710307,35.53133331131491,0.0617806281037245,0.0443916586133151,54.8562,0.0695262357414448,74.0,750.2,14.864864864864863,59.45945945945946,687.0,10.571428571428571,25.12444672903024,65.05660513849548,5134.968410091809,4.417507886158961,673.8236933601092,17.7035777928267,17.831191460160166,48.10007269739532,43.80348021163849,0.5401273712174989,0.4598726287825011,36.24247273684138,33.44171248261887,1.6341305250244718,5.901954885869983,Relax
12,47.79999265947239,32.48281596988373,32.70155518796793,0.0613234206975,0.041672755126792,53.3736,0.0688247582205029,75.25,738.0,9.210526315789473,61.8421052631579,672.0,9.5,23.12349142875824,63.570464556773246,4618.050384561323,4.371428776875037,699.064667879349,15.901087843119242,16.788429091232786,48.74810706419626,40.8022796130513,0.5745804297954368,0.4254195702045631,36.25756843017011,31.19837634375364,1.648658625587382,5.744445112042396,Relax
12,50.75920189065798,34.947450898804114,35.150588405247184,0.0648674369854032,0.0446608986063643,50.4084,0.0647922879177377,68.5,740.4,12.0,65.33333333333333,672.0,9.375,24.855219424047515,66.99430258644982,5231.248425585467,4.425575454592384,722.3008580165518,17.58579750743772,17.600202364963625,49.39510889119382,45.258809050525215,0.5382798048230911,0.4617201951769091,37.07517401405891,34.33749350170724,1.4271163556401458,5.898753523800367,Relax
12,48.643205298331935,37.59626912414043,37.8541923468775,0.0609522688986142,0.0471099281222296,43.7367,0.0553278937381404,60.0,757.6,17.56756756756757,60.810810810810814,710.0,10.571428571428571,26.766956104816988,63.78077047110176,5363.380647705201,4.436408730592864,607.9117350448809,17.73081905734883,20.05426665602886,45.85593037464603,44.33080567013172,0.505199489316383,0.4948005106836171,34.764553031563835,34.404897489122774,2.772588722239781,5.783645595300207,Relax
12,58.58278691197977,35.11172643623969,35.35529479596438,0.0729437034279614,0.0437189743782066,54.8562,0.0688283563362609,78.0,761.2,16.43835616438356,50.68493150684932,655.0,10.428571428571429,24.99996870107587,79.51937982899581,6245.429668200777,4.502532431952911,1011.7343495899628,17.741691171751434,17.616213722462977,60.54585427164744,51.55124924678875,0.5728729898579904,0.4271270101420097,44.61259953823231,38.521826831161775,1.62924053973028,5.915851956140291,Stress
12,49.35858861708133,31.67188197925896,31.88797031593651,0.0626537047690801,0.0402029474222632,35.5824,0.0452127064803049,49.5,754.8,10.666666666666668,53.333333333333336,655.0,8.333333333333334,22.54820004867404,66.54672135919171,4713.987378086137,4.380358525308585,785.5999350898647,16.296272369799325,15.583843055663824,52.28643556360184,41.16545614603606,0.6075564500078069,0.3924435499921932,38.72621745728191,31.124354965965,1.7346010553881066,5.798623190409341,Stress
12,38.49383711057519,29.04237351628581,29.212634392418828,0.0490900985069653,0.0370369150961798,41.5128,0.0530176245210727,57.5,751.2,9.333333333333334,58.66666666666666,700.0,9.375,20.65645187520272,50.01617657607538,3245.757638293403,4.218286197762089,484.4235465805721,13.744737473636158,15.446327754385196,35.54772149543787,35.18490323664307,0.495901822723845,0.5040981772761549,26.949566895744297,27.17136780572361,1.88706964903238,5.718623190409343,Stress
12,42.78934362581328,30.81088786144941,30.953097169125865,0.0541545860940937,0.0389945425178654,50.4084,0.0639700507614213,64.5,751.4,10.666666666666668,58.66666666666666,700.0,8.333333333333334,21.887144907015024,55.39817917767161,3809.2061474533793,4.287804586502719,560.8695458890629,13.22694427275327,17.49872793811181,41.46092895500271,36.74166063734226,0.533492651057251,0.466507348942749,30.77304571054272,28.77633668347728,1.540445040947149,5.8720868571337,Stress
12,51.22169981946528,33.48092894081235,33.695899194510844,0.0642561458346544,0.0420008601878335,55.5975,0.0701988636363636,71.75,748.2,12.162162162162163,59.45945945945946,705.0,12.333333333333334,23.826598818616937,68.60367644385681,5135.223086241724,4.417529425084821,790.1193884098965,16.205708870641853,17.482729573305573,49.75163850072066,47.23599144833315,0.519049848224855,0.4809501517751449,36.99899007747637,35.6151984512254,1.1557707025080584,5.912156068331652,Stress
12,49.455788804538905,33.93446544746918,34.16148752370968,0.061662455081395,0.0423101623075048,53.3736,0.0665506234413965,71.0,759.6,10.81081081081081,58.108108108108105,705.0,12.333333333333334,24.155819483434755,65.34180851980811,4958.642504789473,4.402332908756268,707.0017961621517,16.788306115335825,17.37594921467921,46.79818138888183,45.6013394466937,0.5093246665532538,0.4906753334467462,35.156201469505405,34.50656292970725,1.1856236656577397,5.702564514219126,Stress
12,58.64153240215639,48.73467444387707,49.066700478944085,0.0742094773541208,0.0616725820652387,38.5476,0.0489182741116751,50.25,749.6,12.162162162162163,54.054054054054056,647.0,8.222222222222221,34.69539663911058,75.7761839952554,8259.513366152842,4.623924570282132,661.9933036776487,26.29229397032945,22.643830408205137,51.88062227006865,55.23070788749006,0.4870221020221296,0.5129778979778703,41.12714243265489,42.2088506672997,1.6357552207514738,5.912156068331652,Stress
12,67.21225228125995,52.0133017760249,52.36304162148988,0.0847338353745142,0.0655726657028492,53.3736,0.0676900443880786,75.5,743.8,18.91891891891892,64.86486486486487,647.0,12.333333333333334,37.02626181410892,87.75486040735382,10207.77103676626,4.715901030098266,831.9409141302737,28.06490493283184,24.162787044912218,64.40126105731954,59.61034389551138,0.5439755965569867,0.4560244034430131,49.67474868915751,45.48204798114806,1.4604023332736122,6.074318230493815,Stress
12,57.16229997833175,34.98868864838082,35.20242991595155,0.0716085991525786,0.0438311786132823,65.2344,0.0817473684210526,87.0,746.6,15.068493150684931,63.013698630136986,676.0,18.25,24.89187690781353,76.85104831269749,6009.762554881999,4.485827423371913,949.078070510087,17.455375700484662,17.77737920132227,55.85853386638668,52.78169967951292,0.5247381925276744,0.4752618074723258,41.38155353866828,39.38237570491336,1.5686159179138452,5.850716510905175,Stress
12,51.016248957147546,31.5339799564199,31.746779609116203,0.0652994056111624,0.0403626332747076,57.8214,0.0745121134020618,78.5,735.2,10.666666666666668,50.66666666666667,687.0,10.714285714285714,22.44836314244088,68.99854386800652,4866.026586916365,4.39414458745415,848.3111264187371,14.30298369102592,17.304089310024814,49.96796998082995,47.58151985697911,0.513100276648821,0.486899723351179,36.751689528992245,35.801065198883485,1.5723966407537515,5.882152023829213,Stress
12,43.60439982628503,26.796268396924223,26.974282045902388,0.0565430972512355,0.0347475029119459,40.0302,0.052429862475442,56.75,735.0,7.894736842105263,35.526315789473685,700.0,6.909090909090909,19.07369775229612,58.61237301347106,3512.1582329940024,4.252544183872426,720.4497659310371,12.49243014032141,14.41564465470798,43.860019718756725,38.8807013895138,0.5474092735732492,0.4525907264267509,32.247187013292645,29.321662225659644,1.529395204760564,5.895889519994064,Stress
12,51.49215576437986,32.98868492882572,33.17367891827755,0.0670126346466123,0.0429319506591108,48.1845,0.0631513761467889,63.25,723.0,11.842105263157894,44.73684210526316,655.0,6.333333333333333,23.45733332001927,68.51912076136055,5049.406016770253,4.410210403167361,800.5803295472044,16.942869025369074,16.260963037868294,44.96872974250724,51.69800049571796,0.4401627081842916,0.5598372918157085,33.97975474797799,38.32167907447541,1.580450375560848,5.932138039759375,Stress
12,61.22872082831752,36.14681321033928,36.38467722602614,0.0799113784158861,0.0471762537237893,63.7518,0.0841052770448548,91.0,711.4,12.987012987012983,53.24675324675325,655.0,11.0,25.727851997806823,82.85755002708702,6697.08003592106,4.532855599125112,1067.3838759763494,19.138442987871297,17.19670511076662,53.88539669549993,62.94233566892663,0.4344029214301439,0.5655970785698562,40.43461374263018,46.13818530310062,1.6397432619294294,5.805620631547799,Stress
13,31.59982009332876,19.236025872253983,19.312712502326825,0.0439288178152944,0.0267411609792972,25.2042,0.0349088642659279,38.5,693.2,0.0,23.17073170731708,631.0,7.454545454545454,13.656149973501517,41.63785300023448,1786.3496857194614,3.958936587869929,507.8183253210427,9.233769544449329,10.102598675588377,32.48194810702266,26.0506017136231,0.5936065592122841,0.4063934407877158,23.87822703664693,19.757230950234685,1.791759469228055,5.729384016760438,Relax
13,22.5325398514768,20.57350798403692,20.69923609601028,0.0305712238011003,0.0279132898953907,20.7564,0.0282399999999999,30.5,718.8,0.0,31.64556962025317,677.0,6.076923076923077,14.636570208870229,28.14741799041504,1294.2785552606122,3.81899786542392,216.5198890781106,9.151679996221828,11.429342506455484,20.96354768365208,18.783152239237825,0.5197618311701436,0.4802381688298564,16.17441773662967,15.547293625777044,2.525728644308256,5.496509387280681,Relax
13,21.388565352732314,18.871987143228377,18.99255905816957,0.0291322929806518,0.0257045879196096,18.5325,0.0252314499659632,25.25,718.6,0.0,28.75,690.0,6.153846153846154,13.42976730211769,26.7360971342264,1128.0188855716433,3.759286480735792,212.9058155335489,8.899005994621405,10.058164179743075,18.54502453921169,19.258789027631643,0.4726549434609424,0.5273450565390574,14.544934562456294,15.363391902140158,1.810108607896251,5.532935401402814,Relax
13,20.29826643467773,17.923183487570334,18.03051076378913,0.027742189407425,0.0244960993440671,20.0151,0.0272314285714285,29.25,710.0,0.0,25.0,690.0,5.714285714285714,12.749496429332332,25.70859152164145,1029.724837446856,3.719691298216856,207.35930448391105,8.462208598171896,9.543087174521292,17.304524856575355,19.012761438433404,0.4505227351768054,0.5494772648231946,13.6208581754383,15.042533203142565,1.652923024373839,5.414063213848729,Relax
13,19.366546747197663,20.998794419885336,21.13296954565524,0.0261749884235071,0.0283810639048305,20.0151,0.0268839489590329,28.25,722.0,2.5,32.5,701.0,5.333333333333333,14.943266072341608,23.07173803050247,1083.1178518347815,3.741645823851101,142.4869484813294,9.962107695843772,11.138118885507208,15.970136056608297,16.651121586294217,0.4688801548260887,0.5311198451739113,13.309561138710963,14.165407554836634,1.824549292051046,5.403378801695312,Relax
13,20.60213354300608,26.302481115296192,26.443727597877142,0.0275154866341647,0.0351286708273469,22.239,0.0297710843373493,28.0,729.6,6.329113924050633,43.03797468354431,701.0,6.076923076923077,18.69853910430878,20.94952944299188,1230.6422530667842,3.79710193210558,93.88600498349098,13.305110823513422,13.167255726863642,15.90218151805667,13.63830659757877,0.5446766926800036,0.4553233073199961,14.66126445875657,13.404850432328292,1.774952350911674,5.450817735705531,Relax
13,21.207181883820024,27.46069452125608,27.617677259974226,0.0282143376359343,0.0365341001545845,19.2738,0.0256300531914893,25.0,736.8,5.063291139240507,41.77215189873418,683.0,6.076923076923077,19.52864687114928,21.566416168670827,1323.1223531368398,3.8285701165341854,95.26728798551608,12.119534515942306,15.33161575172172,15.161019722141804,15.337985113603857,0.444765723981274,0.5552342760187261,13.724788448247384,15.33480076335482,1.9459101490553128,5.436320937886205,Relax
13,19.67220977663256,24.749918011145848,24.911799299948253,0.0259663980941454,0.0326687358040609,19.2738,0.0254607661822985,24.75,743.0,2.564102564102564,43.58974358974359,706.0,6.0,17.615302216551697,21.74969064290805,1203.6301428919987,3.787463165340687,107.41775241703556,12.464159143636394,12.448049942397445,15.65296301650816,15.10078778958332,0.5110950354068448,0.4889049645931552,14.14868393798637,13.838131001592116,2.079441541679836,5.477459270033353,Relax
13,21.306995055087235,25.612753813183325,25.78290947609737,0.0279786254752249,0.0336326002083104,23.7216,0.0311307086614173,32.0,743.0,3.896103896103896,46.75324675324675,709.0,6.416666666666667,18.231270129267344,24.18605332497629,1385.2616292096852,3.8485019146918704,128.34326325943252,13.570801990548189,12.174289849241037,15.191513757968329,18.819752527067283,0.4523365555684254,0.5476634444315747,14.403970926886927,15.849233711971516,1.8607523407150064,5.441984267911435,Relax
13,24.221106413598,23.714585784857565,23.872155842349123,0.0316868597955595,0.0310242126037927,31.1346,0.0407520942408376,39.0,743.0,3.896103896103896,41.55844155844156,709.0,5.923076923076923,16.880163277667126,29.84650057362215,1582.7777421239994,3.9063900443150095,211.091227457449,12.643575443678897,11.18391702401265,19.43918122002772,22.647998365995825,0.4573592359061011,0.5426407640938988,16.397282800895372,17.86073668674041,1.6341305250244722,5.474324852270825,Relax
13,23.24035604307485,19.57139427031734,19.70139811585204,0.0305877788752352,0.0257588773214555,26.6868,0.0350220472440944,32.0,739.0,2.5974025974025974,29.87012987012987,707.0,6.416666666666667,13.930992206574844,29.505127416427968,1291.3067357729683,3.817999526380517,249.9613899572164,10.881176406988354,8.699042092859036,18.46041751040199,23.01663592276883,0.4313130316436226,0.5686869683563772,15.152343294988343,17.398834192764554,2.128231705849268,5.505368482472944,Relax
13,18.194377651461064,19.1863332769809,19.30523610816872,0.0244481533961325,0.0257810642414187,19.2738,0.0259056451612903,26.0,727.0,0.0,32.91139240506329,698.0,5.642857142857143,13.650863364493492,21.71669408231377,931.3302429915728,3.676073815945917,138.19339898793305,9.588954684847142,9.72111104761179,14.93033043361983,15.770226219294614,0.4784692176146904,0.5215307823853097,12.54716738561191,13.099618983156098,2.538973871058276,5.341260494793461,Relax
13,21.483346508753936,22.735963815789983,22.877380831649543,0.0292330201507061,0.0309374932858756,20.7564,0.0282784741144414,28.0,720.8,1.25,38.75,670.0,6.153846153846154,16.17675112184653,25.806406693299888,1311.5012651087595,3.824738823820293,164.67351729745215,11.301520206342108,11.578051738150164,18.16166240436102,18.333702439224133,0.4932063391903141,0.5067936608096859,15.125646106271615,15.33257850430408,2.151762203259461,5.429104070322104,Relax
13,27.284691640602286,33.81795153692556,34.03683779387161,0.03650960618587,0.0452517517474401,22.239,0.0297312834224598,30.0,731.6,8.860759493670885,53.16455696202531,669.0,5.266666666666667,24.067678814193183,30.42861344442949,2300.733112382555,4.068836352905965,153.8828107685223,16.363961035740118,17.648626744708096,21.83802880772884,21.18964402587551,0.4947525902933472,0.5052474097066528,19.29609705337345,19.49967999631465,1.85238409104449,5.56290321636722,Stress
13,31.82377149918646,30.58837440349926,30.7769561400803,0.0410227022522255,0.0394302031601258,34.099799999999995,0.0441135834411384,42.5,748.6,10.666666666666668,54.66666666666666,711.0,9.375,21.76259439093173,38.95238171750379,2663.143435605763,4.132364667919515,278.879992745417,15.031473829250812,15.757146671681287,27.96526551505378,27.11516118592452,0.5061464690659027,0.4938535309340974,22.449958583557656,22.17565824695565,2.327277705584417,5.665289857076006,Stress
13,26.155377722062887,29.30109305220633,29.49768595144692,0.0331181342712506,0.0371012624749371,29.652,0.0376772554002541,40.5,765.8,8.0,54.66666666666666,738.0,7.5,20.85801376557927,30.4954901042354,1998.289654173548,4.007628549853616,178.3439069797146,14.39011266341419,15.102390267133938,22.77620481925732,20.278545577253787,0.5316926192272007,0.4683073807727995,19.050339215280573,17.878780754145136,3.4011973816621555,5.63862319040934,Stress
13,28.42262503772457,28.681236607464005,28.873766889936864,0.0365948279268663,0.0369277966755991,26.6868,0.0343459459459459,36.0,754.0,7.894736842105263,53.94736842105263,717.0,7.6,20.41683636627397,34.307465108372,2200.5282640038645,4.049497061057567,230.59442531584787,14.274575773504218,14.597991346461038,26.282632020898248,22.050519635968133,0.5612389517386577,0.4387610482613423,21.14876189590609,18.69928832292245,3.258096538021482,5.629249223856034,Stress
13,30.456396787262243,31.0919067711626,31.291929708230924,0.039367419355272,0.0401888687281384,29.652,0.0383596377749029,39.25,747.0,11.842105263157894,51.31578947368421,717.0,7.6,22.12673569310287,36.20537016560981,2516.750786253761,4.107810322922425,236.96741299936585,15.28380170620499,16.009076817247788,25.77741201071143,25.42349029655171,0.4987297163996095,0.5012702836003905,21.19044082321749,21.2443451228721,2.302585092994046,5.4928738557428725,Stress
13,25.41487339086473,29.032625326231408,29.226502843625827,0.0326934728792437,0.0373473176166822,28.1694,0.0362074550128534,37.25,754.0,10.526315789473683,48.68421052631579,730.0,5.846153846153846,20.66625835109573,29.1971953484614,1895.6268981552,3.984722972490472,164.99865659930012,14.422439348347307,14.803213675926422,21.630282576155224,19.611402088884205,0.5281856178796589,0.471814382120341,18.383088438576923,17.374438509301914,2.3978952727983707,5.530436394851731,Stress
13,23.51985388983776,24.54614344239716,24.70881297425053,0.0307402102983587,0.032081560326316,22.239,0.0289193758127438,28.0,748.2,5.194805194805195,41.55844155844156,696.0,6.416666666666667,17.471769209162694,28.548701079617143,1567.0148435051806,3.9020432202924487,186.59320039688,11.80847153530041,12.877629181387904,21.58702831949471,18.682305576846414,0.5404256814756739,0.4595743185243258,17.398847543252206,16.044654483659034,2.268683541318364,5.571854397781564,Stress
13,21.50363752732144,23.752238445435648,23.907188393231152,0.0284232385001283,0.0313954110037786,20.7564,0.0274374091209517,28.25,738.8,3.8461538461538463,34.61538461538461,696.0,6.5,16.90493503195807,25.470802712924804,1352.7140807219505,3.8381761206859,153.50826007063162,11.185046408392534,12.676387082827826,19.889562466789645,15.911225462559782,0.557161829966115,0.4428381700338851,16.135364239431073,14.385024942524344,2.0149030205422647,5.631305423879506,Stress
13,21.034342310696488,27.74910785976708,27.926418060693265,0.0276459862540748,0.0364713782405188,21.4977,0.028286447368421,27.5,741.8,8.974358974358974,41.02564102564102,721.0,6.5,19.74695958496668,21.31981114437264,1322.615059414034,3.828403573273941,92.07176330633736,13.752511732311609,14.175358530692767,17.045473179692316,12.805709324832634,0.5679326554919115,0.4320673445080884,15.48676426609152,13.507904737334169,2.70805020110221,5.5127783405739095,Stress
