PPG_Rate_Mean,HRV_MeanNN,HRV_SDNN,HRV_SDANN1,HRV_SDNNI1,HRV_SDANN2,HRV_SDNNI2,HRV_SDANN5,HRV_SDNNI5,HRV_RMSSD,HRV_SDSD,HRV_CVNN,HRV_CVSD,HRV_MedianNN,HRV_MadNN,HRV_MCVNN,HRV_IQRNN,HRV_SDRMSSD,HRV_Prc20NN,HRV_Prc80NN,HRV_pNN50,HRV_pNN20,HRV_MinNN,HRV_MaxNN,HRV_HTI,HRV_TINN,HRV_ULF,HRV_VLF,HRV_LF,HRV_HF,HRV_VHF,HRV_TP,HRV_LFHF,HRV_LFn,HRV_HFn,HRV_LnHF,HRV_SD1,HRV_SD2,HRV_SD1SD2,HRV_S,HRV_CSI,HRV_CVI,HRV_CSI_Modified,HRV_PIP,HRV_IALS,HRV_PSS,HRV_PAS,HRV_GI,HRV_SI,HRV_AI,HRV_PI,HRV_C1d,HRV_C1a,HRV_SD1d,HRV_SD1a,HRV_C2d,HRV_C2a,HRV_SD2d,HRV_SD2a,HRV_Cd,HRV_Ca,HRV_SDNNd,HRV_SDNNa,HRV_DFA_alpha1,HRV_MFDFA_alpha1_Width,HRV_MFDFA_alpha1_Peak,HRV_MFDFA_alpha1_Mean,HRV_MFDFA_alpha1_Max,HRV_MFDFA_alpha1_Delta,HRV_MFDFA_alpha1_Asymmetry,HRV_MFDFA_alpha1_Fluctuation,HRV_MFDFA_alpha1_Increment,HRV_ApEn,HRV_SampEn,HRV_ShanEn,HRV_FuzzyEn,HRV_MSEn,HRV_CMSEn,HRV_RCMSEn,HRV_CD,HRV_HFD,HRV_KFD,HRV_LZC,Labels
74.35095501743635,811.027397260274,149.69078987131547,,,,,,,170.3228551897836,171.4860843120399,0.18456933807289974,0.2100087565045892,845.0,83.0256,0.09825514792899408,132.0,0.878864963275312,730.6,902.6,64.38356164383562,83.56164383561644,301.0,1143.0,10.428571428571429,578.125,,,0.040603932447990064,0.13088418091744303,0.047140301111344374,0.21862841447677747,0.31022796004355596,0.18572120437850487,0.598660431356444,-2.033442461975305,121.25897309617142,174.12474589281632,0.6963913858103385,66332.17752276617,1.435974109352853,5.5286943643172926,1000.1545075989152,0.6027397260273972,0.625,0.8444444444444444,0.2777777777777778,48.628948281846576,49.45933426322527,48.09760640691668,37.5,0.36569396149108235,0.6343060385089179,73.34219430033936,96.59272710498169,0.7534269127688461,0.2465730872311538,151.14057159201818,86.46360362069059,0.6267685989914069,0.3732314010085931,118.79088737346544,91.66817790447611,0.8712560920424348,1.8447693106466123,0.928549067797479,1.793640747365741,-1.2531131959968835,-2.259901521280794,-0.031056986596856594,0.005861491935433022,0.40523292116523135,0.6158263690228272,1.4469189829363254,6.0254409972361795,1.234256527035696,1.3206339459209364,1.083538586910495,1.27066845678265,1.6192444204323775,1.9195878611455022,2.6550675831092314,1.017505406939181,Relax
70.57173111227588,859.8529411764706,113.52023485953355,,,,,,,145.9424850933541,146.9857892871773,0.1320228488190231,0.16972958758932918,869.0,51.149699999999996,0.058860414269275026,68.0,0.7778422766127272,822.8,920.0,52.94117647058824,82.35294117647058,301.0,1062.0,7.555555555555555,578.125,,,0.038206083099033304,0.10664231291827948,0.04941627094948085,0.19426466696679362,0.3582638265573892,0.19667026276870003,0.5489537268066779,-2.2382749143157596,103.93464834302007,119.81972173590704,0.8674252187974612,39123.57480467782,1.1528371303134712,5.299408640305751,552.5304966439269,0.7058823529411765,0.7272727272727273,0.9791666666666666,0.2777777777777778,47.96687860416976,48.30756749745061,47.851921846818335,45.45454545454545,0.3862886085742095,0.6137113914257906,64.62314999403475,81.45434675976847,0.6474911709618971,0.3525088290381029,96.41513908739591,71.13990913424257,0.5352899016973769,0.46471009830262316,82.0732312035825,76.47122752280394,0.4205739523940941,2.224809816781148,0.8629035934757552,0.8516071754838502,-0.4132313300559982,0.2045719513746458,-0.5050774757944247,0.0010751907889088002,0.3025396776450807,0.6365677163662116,1.4929040961781488,5.752832142689113,1.1426694069284251,1.0966588322996715,0.9541370603489919,1.0419750062590125,1.534762711311335,1.984975319661147,2.407119896605277,1.253301173198599,Relax
73.0793481223379,824.8169014084507,128.1158303878793,,,,,,,141.14966727353124,142.1686252744337,0.15532638840100116,0.17112848564633582,861.0,63.751799999999996,0.07404390243902438,105.0,0.9076594572455214,778.0,897.0,54.929577464788736,80.28169014084507,346.0,1057.0,7.1,539.0625,,,0.02443404632952578,0.05070738028926738,0.009118517025062946,0.0842599436438561,0.48186370879620144,0.2899841285534424,0.6017969879447547,-2.9816838111433204,100.52839900352127,152.23368491899737,0.6603558145295624,48078.33273037884,1.5143351175190305,5.388919508670468,922.1312605686597,0.5915492957746479,0.6086956521739131,0.8571428571428571,0.15,49.88314344142566,50.221556207503845,49.63085166550987,46.3768115942029,0.4248959936212288,0.575104006378771,65.52856440990591,76.2364266845134,0.6687247347634336,0.33127526523656653,124.4899961414888,87.62040678237385,0.59468477873717,0.40531522126283,99.47801740317074,82.12590467791468,0.754976654011536,1.466880479840881,1.118206953632492,0.9338899800396352,0.5892712397427928,0.9733738680307265,-0.6256523459994848,0.0010240256803011303,0.16121464185616155,0.5482638385623422,1.409824858530085,5.874961556063458,1.1349958290999838,1.07007669210439,1.1818808191592205,1.3715482280119522,1.5683403679151022,1.8522131740926158,2.5634247390675173,1.039393879352904,Relax
74.05188264110576,813.9305555555555,126.20800251283022,,,,,,,133.76708789091919,134.71463542610329,0.1550599146958991,0.1643470526789786,849.5,94.1451,0.11082413184226016,117.75,0.9434906934338508,748.2,899.8,48.61111111111111,76.38888888888889,346.0,1034.0,10.285714285714286,437.5,,,0.02543446178978774,0.04068869707365236,0.007788790893568712,0.07391194975700881,0.6250989493162616,0.34411839862708915,0.5505022828841556,-3.201804938281108,95.25763223487112,152.28388849834727,0.6255266605955163,45572.57966375531,1.5986528840321148,5.365673722744918,973.7963101580315,0.5416666666666666,0.5633802816901409,0.775,0.1,49.381933438985754,49.795414958964095,49.06481400266661,43.66197183098591,0.4128386207070263,0.5871613792929737,61.20749253855399,72.9950096141608,0.6309827166672056,0.3690172833327943,120.96582440584595,92.50757818682261,0.5696290531128956,0.4303709468871045,95.86210882575841,83.32443654343702,0.859096231909283,2.608618410356577,1.3054317055651832,1.9079773126014468,-1.3536069576586254,-1.8215086203171778,-0.2690173447200733,0.0051691553873773975,0.6056692286299358,0.6506827772261019,1.5184661342283738,5.964996008356708,1.0701021896204923,1.3051090934982381,1.2011468562890464,1.507811776356796,1.4408787990899088,1.9187325687787986,2.418179337124465,1.0283208335737186,Relax
69.82381966385717,863.4057971014493,115.88461792568398,,,,,,,148.45661873779432,149.55484648486487,0.13421802160087612,0.17194304142522548,892.0,88.95599999999999,0.09972645739910313,137.0,0.7805958327150145,775.6,939.8,59.42028985507246,82.6086956521739,457.0,1136.0,8.625,445.3125,,,0.056990528486666636,0.10502029908662863,0.04200140714156238,0.20401223471485763,0.5426620280299961,0.27934858204127194,0.5147745145452314,-2.253601622874854,105.75124610876104,125.95882089404628,0.8395699908759594,41846.96374854207,1.1910859259710522,5.328634062730976,600.1111152752281,0.6666666666666666,0.6911764705882353,0.9148936170212766,0.17647058823529413,50.60074575334896,50.62676302334344,50.55292626521334,45.588235294117645,0.4555404533465184,0.5444595466534817,71.37811864216879,78.03410085034868,0.6768015658675666,0.32319843413243343,103.62374026430527,71.6082747638444,0.5853176853768731,0.4146823146231267,88.97391574854882,74.89013923800859,0.668145768030249,3.0098514251946282,1.1497082924602409,1.9903548181444948,-1.9521048019907692,-2.583100806745514,-0.22070165369378833,0.008750197120072857,0.8796860751254814,0.5514677886948545,1.6094379124341003,5.8367144929786985,1.2793277971715187,1.3743529290291825,0.9967177925417713,1.2954596950416923,1.7061691336497624,1.9619732207093996,3.003127873148744,1.1508814193929884,Relax
73.89251564719949,817.0555555555555,135.58759851147727,,,,,,,161.36037002338742,162.50670192030262,0.16594660863579186,0.19749008366226786,841.5,91.9212,0.10923493761140819,130.5,0.8402781828761631,739.0,907.8000000000001,69.44444444444444,87.5,312.0,1004.0,14.4,515.625,,,0.04387729420140898,0.06020315382240115,0.02319225087039155,0.12727269889420167,0.7288205254303897,0.34475024559574224,0.47302488550546407,-2.8100305389631903,114.90959091610691,155.05986122585136,0.7410659986902487,55976.47448085522,1.3494074775625764,5.454975652149709,836.955744831917,0.7361111111111112,0.7605633802816901,0.9629629629629629,0.3125,49.654364381956654,49.39507012514072,49.75759439051619,49.29577464788733,0.5060414715907215,0.4939585284092785,81.74385079537875,80.76204023461234,0.5154432928333037,0.4845567071666967,111.32426522652501,107.93733614998374,0.5121103209453647,0.4878896790546352,97.66050678519652,95.32307086432887,0.9657409388596605,0.7322830389294825,0.9531838928218456,1.0690305946853016,0.037492506247138735,-0.23253426350701645,-0.3418006485131607,0.0005087306568620512,0.029297528551317592,0.6296129283451202,1.6094379124341,5.909440452801153,1.214307111806806,1.03934637036441,1.0155188254133287,1.0018332963081176,1.6993368485444815,1.8864699186246612,2.7671291679455208,1.0283208335737186,Relax
73.56766515849725,819.6111111111111,103.31253766210887,,,,,,,116.48889205340991,117.28300910767985,0.12605067972059647,0.14212702887286507,840.0,78.5778,0.09354499999999999,106.0,0.886887460606461,762.0,883.8,51.388888888888886,73.61111111111111,312.0,1062.0,10.285714285714286,546.875,,,0.013000854532070122,0.030705009067253958,0.02002829661320918,0.06373416021253325,0.42341151906498453,0.20398565680816044,0.4817669043549404,-3.4833294758986213,82.93161105800402,118.41944769995075,0.7003208735454904,30852.68791395794,1.4279168846379438,5.196263116105708,676.3725153610384,0.6805555555555556,0.7042253521126761,0.92,0.3125,51.860722181282235,50.990001657233876,52.41574197632871,49.29577464788733,0.5319872623893815,0.4680127376106186,60.50625705542479,56.751651958335096,0.3708018493088369,0.629198150691163,72.10974785184462,93.93268791163574,0.4238629814535165,0.5761370185464838,66.56133591700872,77.60186807772335,0.8494668637057797,1.8722105402051437,1.174564627111876,1.3120427861814221,-0.38963973605916813,-0.37536497973327876,-0.4265690710968424,0.0011107666201203828,0.22475522015581673,0.7491873234972037,2.093234863812172,5.9754805569978675,1.1221407302595905,1.2980745646308842,1.0472209198789204,1.126140345096696,1.6294145582919735,1.911877390857604,2.1972606751688355,1.1140142363715286,Relax
69.94432365617544,861.0441176470588,120.83248967846521,,,,,,,159.0266099952054,160.21733176112096,0.14033251862710516,0.1846904319255686,858.5,90.4386,0.10534490390215491,127.5,0.7598256020304291,770.8,931.4,51.470588235294116,75.0,401.0,1178.0,11.333333333333334,445.3125,,,0.05423455052047069,0.08403866123124223,0.011522340920420645,0.14979555267213357,0.6453523857458647,0.36205714757885415,0.5610224050855679,-2.47647833326975,113.29076175190343,129.01836966315386,0.8780979177437083,45919.369814005135,1.1388251580979964,5.3689660292433,587.7174609167478,0.6323529411764706,0.6567164179104478,0.9090909090909091,0.2777777777777778,50.84944346807263,51.35795995065337,50.48176485210756,46.26865671641791,0.41126207953994176,0.5887379204600582,72.65735275311721,86.93231431825149,0.678962020545189,0.32103797945481116,106.31004217540465,73.10208371313297,0.562407008254537,0.43759299174546284,91.0519521384007,80.31544657140734,1.0105043994021434,1.3810523294942083,1.472682642901979,1.3489560445081183,0.5692546102424849,0.2940880570192599,-0.5895886388600307,0.002283524459581803,0.20441126319711317,0.589731039226999,1.504077396776274,5.910992253015046,1.0504830377931802,0.9886632318508894,1.136153937418777,1.246885150715392,1.637739175914897,1.8783883601851121,2.8482745375136376,1.0742581484559421,Relax
72.69494739339682,833.2816901408451,188.07477108081937,,,,,,,246.47723743061664,248.1853995435345,0.2257037125693115,0.2957910156275676,860.0,142.3296,0.16549953488372093,191.5,0.7630512782494263,723.0,962.0,66.19718309859155,88.73239436619718,345.0,1228.0,17.75,476.5625,,,0.031244661859469225,0.0755951521017544,0.052096748938257456,0.15893656289948108,0.4133156821671916,0.19658574018131883,0.4756309732806057,-2.5823631234909556,175.4935790087259,198.8370963635034,0.8825997875562308,109624.72482047298,1.1330163615480018,5.746878626173059,901.1427338501843,0.676056338028169,0.7,0.9183673469387755,0.3125,48.27758362456315,48.70868793157747,48.0665222465985,42.857142857142854,0.4134810651060112,0.5865189348939888,112.87924803825175,134.43963140664147,0.5402075099703818,0.4597924900296182,146.14290004836357,134.82745883433077,0.4846984562071288,0.5153015437928714,130.57463741521005,134.63368476810842,0.7067168044395531,2.1199260221922125,1.0825247796344257,1.4910970830989292,-1.0099932192913865,-1.3644907755791817,-0.30727049001360934,0.0022706462788538726,0.3446075817440622,0.49162230370978177,1.6863989535702284,6.065240077251162,1.2714975456540918,0.868859926367955,0.7839208040301001,1.2038752408707036,2.1082967240839103,2.009608817688111,3.3170044507460608,1.126010035965646,Relax
68.74437364852268,878.3134328358209,132.64742615410907,,,,,,,190.27579664234435,191.73246949888235,0.1510251593509492,0.21663769393574986,883.0,68.19959999999999,0.07723624009060022,90.0,0.6971324177580106,823.4,941.0,62.68656716417911,89.55223880597015,395.0,1129.0,11.166666666666666,515.625,,,0.007350622938172867,0.1065834741190483,0.05143262467535121,0.16536672173257236,0.06896587861231279,0.04445043634631726,0.6445279497734308,-2.2388268062941377,135.57532935630257,131.5781278541526,1.0303789206256275,56042.079728596356,0.9705167487246517,5.455484353597188,510.79510739315486,0.6865671641791045,0.7121212121212122,0.9361702127659575,0.3125,50.25806451612903,50.217117172135694,50.21996854905913,48.484848484848484,0.48886095210673924,0.5111390478932608,94.79305394871015,96.92891923783833,0.39432558903783627,0.6056744109621638,82.62494495352138,102.40079199416033,0.44300775527592595,0.5569922447240739,88.91739032803288,99.70240113870547,0.5508010592481599,1.2761962699199951,0.7919042214852936,0.9609867964041033,-0.2545406488127906,-0.7424437402174904,-0.3675105241222735,0.0004359365567375246,0.10446252448928249,0.6095789249194161,1.9980959022258835,5.886984712845832,1.4118695226351063,1.4588324645161048,0.9860015128202992,1.0989977937560635,1.6437847130044982,2.020802925203527,3.389595187955387,1.086463735604377,Relax
67.1695719660187,895.1060606060606,88.9833396312744,,,,,,,146.63560277095056,147.7743813672097,0.09941094530297934,0.1638192491643573,884.0,57.8214,0.06540882352941176,86.5,0.6068331152173814,836.0,960.0,54.54545454545454,81.81818181818183,657.0,1129.0,9.428571428571429,226.5625,,,0.014579362695601554,0.10073753678653706,0.046785205231642195,0.1621021047137808,0.14472621785953768,0.08993937938895939,0.6214449649768986,-2.2952367901593487,104.49226715040098,70.57839170029308,1.4805135769333075,23168.919599105495,0.6754412898200979,5.071875892431672,190.68623969389623,0.696969696969697,0.71875,0.9347826086956522,0.375,49.61340206185568,49.53833901497594,49.683046078475456,48.4375,0.5090081065804255,0.4909918934195746,74.55099974178749,73.21975698197856,0.4778524597260132,0.5221475402739866,48.78863533139659,50.99978860250305,0.49924753748653233,0.5007524625134676,63.00072420218675,63.09560701823859,0.2698927067775492,1.5883434048403404,0.5343731122125133,0.7834605437087714,-0.6471053033316476,-0.9719827835676238,-0.3431778476007231,0.0006427254955498686,0.15664592507502287,0.4360101540974246,2.268683541318364,5.80196987693421,1.508869724702861,1.495366305963659,0.896744789969599,1.148954408397723,1.8032783211121397,2.0838971695010757,4.391173876852763,1.2821442071366418,Relax
68.55041505722781,877.820895522388,92.43309216107949,,,,,,,135.6605612504529,136.69954462676714,0.10529835030421883,0.1545424151355178,876.0,83.0256,0.09477808219178081,105.0,0.681355666739665,817.0,950.6,61.19402985074627,79.1044776119403,657.0,1077.0,9.571428571428571,234.375,,,0.011077142740343427,0.05756303305877397,0.031082056001101074,0.09972223180021847,0.19243500822886203,0.11107997224265051,0.5772337022510147,-2.8548747044879006,96.66117499070012,88.48788520190675,1.0923662009793094,26871.119394387362,0.9154439226547811,5.136255868567622,324.02278694663795,0.7313432835820896,0.75,0.9583333333333334,0.42857142857142855,49.80392156862746,49.80563872254014,49.79869579310243,48.4375,0.49590746305520106,0.5040925369447989,68.06976059670188,68.62921557739992,0.5016576126325437,0.4983423873674562,62.674015318046614,62.46658011624364,0.4985291827454155,0.5014708172545844,65.42753435587746,65.62028216256128,0.5080275248742755,3.174213570206245,1.0729835372407819,1.568396687423851,-1.2746177176540847,-0.9807246893307544,-0.34392570341419104,0.008185678620010147,0.8661503064427276,0.3614023991685742,1.6863989535702288,5.816016242664287,1.2778296810237368,0.9972807266315034,0.8730895400147831,1.0159108027779908,1.9829239274962311,1.943893989294013,3.739446203624761,1.1770023802380751,Relax
71.70495102178202,841.2857142857143,141.75332144534303,,,,,,,165.8107879219695,167.011934782402,0.16849605198121942,0.19709212352755756,871.0,96.369,0.11064179104477612,126.25,0.8549101251002564,778.0,939.8,57.14285714285714,77.14285714285715,380.0,1093.0,14.0,539.0625,,,0.03147572454806905,0.02423242864294662,0.007505606095623629,0.0632137592866393,1.2989092018736121,0.49792521285348834,0.383341046576047,-3.7200635162857787,118.09527162372186,163.1832935613438,0.7236970712282353,60542.18299224721,1.3817936257539805,5.489028186384038,901.9425394904216,0.6857142857142857,0.7058823529411764,0.9166666666666666,0.2857142857142857,49.05806451612903,48.613950347509686,49.34595069945791,52.94117647058824,0.5551029186645243,0.4448970813354756,87.99431799837986,78.77667615406448,0.31954739634924006,0.6804526036507598,92.24510636810332,134.60916628768268,0.4005209493046031,0.599479050695397,90.1447714758396,110.28461441775856,0.9130246195605151,1.4336553996340182,1.2406256150669668,1.145520084848104,0.14985103314134385,0.3146472186895002,-0.5663377895714279,0.0005924072336355371,0.12881742105902128,0.5278604696532523,1.3545456628053105,5.832784624056918,1.034166311459822,1.0108460607418712,1.1411319111154938,1.2674150318707906,1.8316886621216244,1.777810043091584,2.598338091793626,0.9631730455199232,Relax
70.08719871701057,861.6666666666666,143.84005278194846,,,,,,,206.7165222913623,208.25345609477176,0.16693236299645856,0.23990312064761585,857.0,84.5082,0.09860933488914819,109.0,0.6958323949510389,793.6,927.4,47.82608695652174,73.91304347826086,431.0,1712.0,13.8,437.5,,,0.026272400447164654,0.18047404867356676,0.01163210558422863,0.21837855470496007,0.14557439499063368,0.12030668708591799,0.8264275258960107,-1.712168286207449,147.25743101014805,141.64279279461581,1.0396394204375337,65527.19438941505,0.9618719532385072,5.523391683575189,544.968919070057,0.6811594202898551,0.7014925373134329,0.8723404255319149,0.4166666666666667,49.961004523475275,48.402272002242,51.63054589714247,49.25373134328358,0.6284259144863109,0.3715740855136889,116.73586078849056,89.76353679146914,0.2549493187617595,0.7450506812382405,71.51899600745975,122.26084393927364,0.4489432276856458,0.5510567723143543,96.80451431608158,107.25018997199226,0.3306278667760501,2.438613203903842,1.0005218404683527,0.9437114243630169,-0.775202770345631,-0.5249561776497333,-0.523296198025333,0.0037794634081407302,0.4352062703150496,0.7246500280927584,1.2139231351791042,5.7787434784859455,0.8167863893529507,1.006557118139911,1.0683682686956981,1.1533396889918888,1.4093295272753732,1.869261092398611,2.0255901614483975,1.0623520794396815,Stress
68.07376178159444,887.2388059701492,146.12086005771812,,,,,,,212.90063836959675,214.53134099799092,0.16469169188101798,0.23995866381971542,893.0,65.2344,0.0730508398656215,86.5,0.6863335928756186,831.4,943.6,46.26865671641791,59.70149253731343,431.0,1712.0,13.4,421.875,,,0.04068375556331873,0.1424594043103412,0.017163432507020352,0.20030659238068027,0.2855813960494391,0.2031074218765588,0.711206768669894,-1.94869820189272,151.69656599672297,142.3685428082762,1.0655202547167217,67848.4080683031,0.9385086727101768,5.538509772196865,534.4564485867091,0.5522388059701493,0.5757575757575757,0.8421052631578947,0.21428571428571427,50.287133322986186,48.76293619960867,51.84217141996653,46.96969696969697,0.6165871262528158,0.38341287374718425,119.11720149628974,93.93135791629972,0.25930113250367987,0.7406988674963203,72.4963675521567,122.52786896496073,0.44926680316701467,0.5507331968329853,98.60180272328972,109.17000199939218,0.6142865358599375,2.218871931814801,1.1288389780595074,1.0433001827044734,-0.4156763613702399,0.08173300983178855,-0.538550577943934,0.0013700891592109427,0.31685971593456336,0.6511728028247901,1.1616252564968437,5.845866988932945,0.8827903103934281,0.9365134211942203,0.9252975629004435,0.9527208091414746,1.3189768066598575,2.0048738740052325,1.895662735610303,1.1770023802380751,Stress
69.85405100588318,862.25,111.68991923939014,,,,,,,137.08026845611298,138.11466699542905,0.12953310436577575,0.15897972566670104,871.5,59.303999999999995,0.06804819277108433,78.25,0.8147775058899035,813.4,925.4,48.529411764705884,69.11764705882352,424.0,1080.0,13.6,500.0,,,0.04131064142513913,0.04015475404705323,0.007014830639046394,0.08848022611123876,1.0287858164124584,0.46689122802650534,0.45382743480526405,-3.2150144384494195,97.66181761378971,125.62439889395374,0.7774112232467776,38543.280196893975,1.2863205084994829,5.292918782159543,646.3729626608498,0.6176470588235294,0.6417910447761194,0.8604651162790697,0.2857142857142857,49.87026466009341,49.85224965921337,49.92709717112204,53.73134328358209,0.5022291554308709,0.4977708445691294,69.2111941375049,68.90331390192105,0.6783968692573009,0.32160313074269903,103.47034906261028,71.24167644243636,0.6120340840694947,0.38796591593050533,88.02358357019388,70.08224856907582,0.9480099144710901,2.1247981610177016,1.2657159918879435,1.8466645867001499,-1.4152948635708462,-1.9680953456170212,-0.22658645631830132,0.003002449729637171,0.37034351184565145,0.5601926139674558,1.3714792753347498,5.969815782426812,1.0090300778877725,1.141558393777988,1.0332988354395085,1.1647083955002202,1.7286614635249624,1.9489040974769418,2.5123834243646663,1.1637796608272708,Stress
72.18004581046817,837.9714285714285,150.00453823362554,,,,,,,184.2591118231472,185.58558504814997,0.17900913219601397,0.21988710538409603,863.0,81.54299999999999,0.09448783314020856,110.0,0.8140956327717493,788.6,941.2,65.71428571428571,85.71428571428571,364.0,1080.0,14.0,484.375,,,0.0241640932240686,0.09491446602329968,0.01861002908009917,0.13768858832746747,0.2545880963828715,0.17549815505841823,0.6893415581948066,-2.354779150596476,131.22882567801958,166.54563081652734,0.7879451717504734,68661.3532990884,1.2691238373584197,5.543682468977744,845.4681203085995,0.6571428571428571,0.6811594202898551,0.8936170212765957,0.17647058823529413,51.14668483197096,50.6517215470523,51.572350111812405,50.72463768115942,0.5414219293722319,0.4585780706277684,96.57216899049855,88.87726997183846,0.599873152168652,0.400126847831348,128.9920534429453,105.34940575365086,0.5774803532192391,0.42251964678076104,113.94106738783225,97.46195773299043,0.8395551050197662,1.373728476714903,1.0036000964879601,1.261596562478846,-0.7200259835549936,-1.0859961118324057,-0.3121925326845872,0.000327388972770069,0.1002168609127159,0.6561550791915378,1.4759065198095778,5.87214015980211,1.2447397225509433,0.8847243358480549,1.208859651476209,1.384963257472573,1.8503009791747536,1.9495698376581552,3.152597484550516,1.05073423147628,Stress
69.99314569999744,861.1029411764706,106.85142980288967,,,,,,,140.54212732216203,141.60156005191516,0.1240867086772521,0.16321176087280365,865.5,63.751799999999996,0.07365892547660312,85.75,0.7602804357582846,817.4,917.6,52.94117647058824,79.41176470588235,364.0,1052.0,9.714285714285714,500.0,,,0.0088290083703333,0.08749499001473476,0.03566228141056146,0.13198627979562952,0.10090873053241602,0.06689338000892465,0.6629097369076085,-2.436173744232271,100.12742333930333,113.98408464050688,0.8784333677380846,35854.7855160026,1.1383902715068106,5.261517238849587,519.0334922454475,0.6617647058823529,0.6818181818181819,0.9111111111111111,0.2222222222222222,49.68982630272953,49.339291772076535,49.82753977054211,48.484848484848484,0.520606926151777,0.47939307384822305,72.245687718641,69.32706848152765,0.36639122486867126,0.6336087751313288,68.99486159593502,90.73081408591024,0.4335610036337076,0.5664389963662926,70.6389776277291,80.74132476289459,0.5198903455828755,2.8689965112346423,1.036560518207159,1.762202374193698,-1.8428073748553295,-2.458434920842332,-0.24707468163693702,0.005812226048791267,0.7333563729525127,0.5363507669291194,1.540445040947149,5.800554385304356,1.1260616073153809,0.769707468318912,1.0036901467820782,1.2133326636924113,1.7384184423365352,2.0215614635401242,2.325357184903373,1.253301173198599,Stress
67.45296774665191,890.560606060606,75.85231172135225,,,,,,,80.3442592846558,80.96689731945062,0.08517366612125915,0.09021762105563882,903.5,73.3887,0.08122711676812397,111.25,0.9440912443116962,827.0,953.0,27.27272727272727,66.66666666666666,672.0,1029.0,11.0,242.1875,,,0.05694671143916541,0.012994150168583246,0.002320518390538748,0.0722613799982874,4.382488327466691,0.7880656505662507,0.17982150588448778,-4.343256009827205,57.252242146218435,91.52147709270632,0.625560731370463,16461.34787364337,1.598565814400186,4.923435502813706,585.2124182552402,0.6818181818181818,0.703125,0.8888888888888888,0.4,50.64854848672019,50.670199061906004,50.62750460844829,45.3125,0.47042336768449056,0.5295766323155094,39.26910363122642,41.664958298311056,0.551068468541625,0.448931531458375,67.94004054111102,61.32154320059923,0.5283850678678712,0.47161493213212874,55.48833935489424,52.422802340694055,1.1276958016993748,2.658036956078526,1.5760339074323406,1.6930006655788803,-1.0153345594531729,-0.1502922985663422,-0.45599505948212854,0.0013055293962711634,0.4027193289291102,0.5134266603847162,1.3437347467010947,5.862575937540271,1.0475771991719052,0.6825072769552463,0.8691559596014976,1.0326275017701185,1.6899491308603753,1.8620714501221285,2.7934402542140737,1.0073990198930756,Stress
63.8564069944787,940.6666666666666,82.44274650697236,,,,,,,87.9055578264207,88.59392265058997,0.0876428913964979,0.0934502740890369,932.0,37.065,0.03976931330472103,48.0,0.9378559051950358,897.4,962.8,33.33333333333333,71.42857142857143,794.0,1332.0,7.875,140.625,,,0.015230121613057767,0.016246088432404115,0.004367589511107419,0.0358437995565693,0.9374639117856873,0.4249025438561927,0.453246827439827,-4.119903111034193,62.645363478148646,98.38605039711969,0.6367301383203267,19362.986058021073,1.5705240569230279,4.993942442713144,618.0706360572716,0.7142857142857143,0.7419354838709677,0.9130434782608695,0.3076923076923077,52.01380897583429,51.92621013996759,52.07993843564472,48.38709677419355,0.54338778287532,0.45661221712468014,46.194173218537664,42.34537929386137,0.64842684543997,0.35157315456003024,79.22532327680175,58.33663569688292,0.6181118267302145,0.38188817326978575,64.84810516760689,50.97202277706771,0.6379612723439277,2.4480114183256627,1.1611771608179033,0.9449801077136437,-0.4058578576400329,0.6763552482896551,-0.5883153777330538,0.0012938030373866253,0.35673908930917475,0.6357452402707615,1.5314763709643884,5.818549764769758,0.9939312831819526,1.0251554847018185,1.2455225776509855,1.3423418845503954,1.5544672218141116,1.885347140941584,2.0422571806234235,1.2334069683412527,Stress
70.78687691381828,860.8695652173913,190.19107366351022,,,,,,,234.0716016647093,235.8109925085854,0.2209290249626634,0.27190135546910676,910.0,66.717,0.07331538461538462,108.0,0.8125337388682683,817.2,955.0,68.11594202898551,84.05797101449275,301.0,1333.0,13.8,609.375,,,0.028535913123858794,0.1772267780805482,0.0382727407839321,0.2440354319883391,0.16101355242653817,0.11693348335262374,0.7262337957916568,-1.7303251343922557,166.74355188115086,213.21225698269748,0.7820542507304464,111689.17641899522,1.278683670686516,5.7549811984824,1090.5241255759693,0.6231884057971014,0.6470588235294118,0.8636363636363636,0.3333333333333333,49.78309071628265,49.49938203027337,50.333064882240485,47.05882352941176,0.5322991437552321,0.46770085624476765,121.65463717536072,114.03413340789481,0.4796108921386159,0.5203891078613843,147.65789954308084,153.80705845370449,0.4996062904255104,0.5003937095744896,135.28249340499164,135.38905940339276,0.7459051736429555,1.0836905159758845,0.9566391992564797,0.8931286172084267,0.09666197828276157,0.052875251721628214,-0.5586058299041774,0.00030529052903115303,0.05957868294953579,0.619437967605506,1.1561821404895873,5.8766403988071545,0.9642036300313902,0.7739706386609485,1.0178083130140505,0.9293436912832382,1.52511925938477,1.863307437423382,2.9048152871102686,1.0623520794396815,Stress
69.9672471967334,861.4202898550725,151.61807724336032,,,,,,,166.0146609401074,167.13593892629018,0.176009410306401,0.1927220230301728,898.0,57.8214,0.0643890868596882,79.0,0.9132812510941977,824.8,944.6,52.17391304347826,79.71014492753623,301.0,1130.0,11.5,617.1875,,,0.04835244453560214,0.11441443875227586,0.048589295437404686,0.21135617872528267,0.4226078899035839,0.22877232559380184,0.5413347243611453,-2.1679279951310693,118.18295579476045,173.89679200977403,0.6796155031319834,64564.871450694925,1.471420230102957,5.516966400640187,1023.5010308527512,0.6086956521739131,0.626865671641791,0.8333333333333334,0.46153846153846156,47.16646183258228,47.223681686278354,47.27416947165622,50.74626865671642,0.40560385328943055,0.5943961467105695,75.31813125351948,91.1772506976171,0.48424407255316465,0.5157559274468355,121.01068714919928,124.8859794651474,0.45937486029538827,0.5406251397046119,100.78791420563225,109.33846283843882,0.8770203999293524,1.9116053400025605,1.2920495679887738,1.3057869062636354,-0.3425563964348548,-0.06441858019524815,-0.49281371631089754,0.0009455086520499979,0.2272466073173071,0.6511534550702982,1.167605160155061,5.8367144929786985,0.8998413937740954,0.8698406877133923,0.8332086939967938,0.8551186052605653,1.6577677903327053,1.873166888586596,2.5242056178988452,1.0623520794396815,Stress
68.27705915828642,880.7313432835821,88.52504902988763,,,,,,,86.9243837185429,87.58894247462315,0.10051311299975378,0.0986956855588533,888.0,40.0302,0.04507905405405405,52.5,1.0184144568286801,863.2,930.8,26.865671641791046,67.16417910447761,430.0,982.0,7.444444444444445,460.9375,,,0.03475833886394646,0.039258384672088864,0.014770912399080164,0.0887876359351155,0.885373638122667,0.39147724227444536,0.44216049068789515,-3.2375902353488724,61.93473518076444,109.8451718172527,0.5638366635158445,21372.982501269096,1.7735632758686306,5.0368352401494345,779.2694510662371,0.6865671641791045,0.7076923076923076,0.9347826086956522,0.35714285714285715,50.54036872218689,50.00742808848946,50.91447785338228,55.38461538461539,0.6241602932506628,0.37583970674933725,48.93166349418025,37.970231254740355,0.2151041664032282,0.7848958335967718,50.945447772347755,97.31661277930279,0.31378089889266014,0.6862191011073399,49.94870539379727,73.86562659442896,1.0911936501190729,1.4558089506648995,1.3791516317604,1.2668113234260285,-0.24363476583683408,-0.09878743617856456,-0.5771669306491509,0.0012181529074213363,0.12166706867119807,0.7738211725201629,1.2866645201710494,5.666762511321005,0.8279924538589258,0.7737012187457902,0.918612267270905,1.0305862935616317,1.51211673630573,1.7202645909130623,1.9190959141268393,1.086463735604377,Stress
70.61786468774811,856.5,184.1845683652151,,,,,,,232.7422506204677,234.49788732257633,0.21504327888524824,0.27173642804491266,878.5,40.0302,0.04556653386454183,59.0,0.7913671362814331,834.8,926.4,36.76470588235294,72.05882352941177,338.0,1743.0,8.5,562.5,,,0.05027296649125526,0.13625686303922374,0.04451259005306343,0.23104241958354244,0.36895731613007543,0.2175919321736375,0.5897482517921552,-1.9932134757772737,165.81504629971263,203.37896441369796,0.8153008683947487,105944.84766072663,1.2265410706220718,5.732049950792228,997.8106110159415,0.6029411764705882,0.626865671641791,0.9047619047619048,0.21052631578947367,50.28939752696658,51.58287358573159,49.064492375827676,52.23880597014925,0.40566304431684175,0.5943369556831585,105.61081355331913,127.8327209498982,0.5328578252438003,0.4671421747561997,148.46076893435827,139.00504758247922,0.4820691185704674,0.5179308814295325,128.82981768980125,133.53577760072739,0.4828867064142648,1.2250342240022418,0.9408583230787861,0.7826278975961073,0.8019511970528646,0.5131941521291448,-0.6291640856903842,0.0030004289671998895,0.19388439102276042,0.605100471325676,0.6962288470973538,5.881580488309163,0.6923923040751928,0.6360558879502577,0.8852582035098171,0.8152511196422394,0.9465114688050518,1.9127394914587452,2.0100718583063144,0.9847366360846136,Stress
70.25151953481576,859.2794117647059,208.05372767544645,,,,,,,206.91533346729187,208.4759779412528,0.24212581475467404,0.24080099049778111,876.5,64.4931,0.07358026240730177,94.75,1.0055017392335235,780.8,925.0,33.82352941176471,72.05882352941177,338.0,1743.0,11.333333333333334,523.4375,,,0.059842284350718304,0.053389033471514274,0.0018774129488311675,0.11510873077106375,1.1208722177494965,0.5198761549177082,0.46381393586641223,-2.930149919808391,147.41477771675693,256.9793428124001,0.5736444653622318,119011.54925679884,1.743240038703316,5.782559218708242,1791.906718040964,0.5882352941176471,0.6119402985074627,0.8292682926829268,0.17647058823529413,49.68414867048625,50.75123436601972,48.950315043004956,50.74626865671642,0.4273498493133255,0.5726501506866744,96.3684532815526,111.55468152299555,0.34751439497976544,0.6524856050202344,151.49022604083598,207.57912719343796,0.367281240477533,0.632718759522467,126.95701511492456,166.63364158549507,0.9590022331388293,1.3814418392679868,1.4834337473586774,1.212964500016388,0.8227879230399431,0.7964102222770384,-0.6957876471191929,0.003668504857002056,0.2405149313321009,0.5648992744326828,0.7039580966641612,5.969815782426812,0.708916087973589,0.6984817553852454,0.9113400316508524,0.8838015957966796,0.9795465990330381,1.7481874860747537,2.031421146487364,0.9847366360846136,Stress
71.83284221843351,839.4857142857143,114.42328521222315,,,,,,,125.09057587969225,126.00158999795177,0.13630164666897454,0.14900858198179937,863.5,57.8214,0.06696166763173132,77.25,0.9147234666364592,807.6,902.2,31.428571428571427,70.0,302.0,971.0,8.75,562.5,,,0.012809367260204551,0.03370502067738562,0.004440838145660242,0.05095522608325042,0.380043299270218,0.25138475961772133,0.6614634703478405,-3.39010847119567,89.09657872783875,136.26954758609125,0.6538260404185319,38142.54913748077,1.5294588134786935,5.288379824349457,833.6746422572058,0.6428571428571429,0.6666666666666666,0.8695652173913043,0.2857142857142857,50.88731144631766,51.41496468770249,50.465742712809316,46.3768115942029,0.423244492853491,0.576755507146509,57.966268081480955,67.66678740450931,0.4417452376744183,0.5582547623255816,90.57008017010693,101.81576585823234,0.436204505451675,0.5637954945483252,76.03626653549513,86.4443297589421,0.7917750600886202,2.5333229658771628,1.267144845097098,1.6324429153128783,-1.4745668147352546,-1.632753341704902,-0.35580280322082974,0.002175840874389654,0.4197227097668425,0.7549463150766442,1.3281867303126098,5.7756417669140605,0.8108346497026724,1.3367334437814549,1.217302265588006,1.4205205792221682,1.6420893887551882,1.9576471811764269,2.0411958411567053,0.8756118595635667,Stress
