Subject_id,PPG_Rate_Mean,HRV_MeanNN,HRV_SDNN,HRV_RMSSD,HRV_SDSD,HRV_CVNN,HRV_CVSD,HRV_MedianNN,HRV_MadNN,HRV_MCVNN,HRV_IQRNN,HRV_SDRMSSD,HRV_Prc20NN,HRV_Prc80NN,HRV_pNN50,HRV_pNN20,HRV_MinNN,HRV_MaxNN,HRV_HTI,HRV_TINN,HRV_LF,HRV_HF,HRV_VHF,HRV_TP,HRV_LFHF,HRV_LFn,HRV_HFn,HRV_LnHF,HRV_SD1,HRV_SD2,HRV_SD1SD2,HRV_S,HRV_CSI,HRV_CVI,HRV_CSI_Modified,HRV_PIP,HRV_IALS,HRV_PSS,HRV_PAS,HRV_GI,HRV_SI,HRV_AI,HRV_PI,HRV_C1d,HRV_C1a,HRV_SD1d,HRV_SD1a,HRV_C2d,HRV_C2a,HRV_SD2d,HRV_SD2a,HRV_Cd,HRV_Ca,HRV_SDNNd,HRV_SDNNa,HRV_DFA_alpha1,HRV_MFDFA_alpha1_Width,HRV_MFDFA_alpha1_Peak,HRV_MFDFA_alpha1_Mean,HRV_MFDFA_alpha1_Max,HRV_MFDFA_alpha1_Delta,HRV_MFDFA_alpha1_Asymmetry,HRV_MFDFA_alpha1_Fluctuation,HRV_MFDFA_alpha1_Increment,HRV_ApEn,HRV_SampEn,HRV_ShanEn,HRV_FuzzyEn,HRV_MSEn,HRV_CMSEn,HRV_RCMSEn,HRV_CD,HRV_HFD,HRV_KFD,HRV_LZC,Labels
01,60.24742448453163,997.5084745762712,102.91381946700908,113.10926971982325,114.02012775900698,0.1031708723183786,0.1133917882430729,1013.0,97.85160000000016,0.0965958538993091,121.0,0.9098619390075742,909.8,1080.6,52.54237288135594,86.4406779661017,782.0,1246.0,11.8,242.1875,0.0055796147269116,0.0464537110569856,0.0135787797474928,0.0656121055313902,0.1201112806696336,0.0850394097510293,0.7080051871641465,-3.069298923329421,80.62440553015034,119.72783021204268,0.6733973662377524,30325.747189288133,1.4850072930741698,5.188781620116629,711.1868041953173,0.7288135593220338,0.7543859649122807,0.9534883720930232,0.4166666666666667,52.528856243441766,52.870823549715794,52.19977540109616,50.877192982456144,0.4651842568072936,0.5348157431927065,55.02654861638679,59.0013380758169,0.4824800567087613,0.5175199432912386,83.16388998991061,86.13083494910383,0.4770789516944282,0.5229210483055717,70.5129550185125,73.82302697589218,0.5461467691778351,1.79573932936697,0.8319596012468342,0.909895149491404,-0.6719203165003407,-0.3507379620542441,-0.4565997430862956,0.0002553616376677,0.1569285133868249,0.3639143302573626,1.421385680931161,5.814846439192349,1.1523194707153677,0.6299994923998176,0.9213587938586364,0.9976223120664994,2.00194570252294,1.920874470972458,2.4065952445971424,0.9970581439596342,Relax
01,58.577160978913625,1025.8245614035088,85.21949031073851,90.660571836462,91.47158915956706,0.0830741371547423,0.0883782424866318,1030.0,68.19959999999999,0.0662132038834951,79.0,0.939984036990872,962.8,1090.8,57.89473684210527,82.45614035087719,800.0,1187.0,9.5,203.125,0.0117632675239358,0.025059135482229,0.0064672797705657,0.0432896827767306,0.4694203250657978,0.2717337427628111,0.5788708503934565,-3.686516828025121,64.68018098063975,102.06261685720318,0.6337303801560803,20738.999372045768,1.5779581211708862,5.023757908413924,644.2021405511053,0.7192982456140351,0.7454545454545454,0.926829268292683,0.4166666666666667,49.10385465259023,49.07628815280502,49.13445100965369,47.27272727272727,0.4534688441676101,0.54653115583239,43.56019868057204,47.821543262425145,0.4169170809255138,0.5830829190744861,65.90093001043857,77.9348778372016,0.4273920551752095,0.5726079448247904,55.85885554382417,64.65580091337334,0.7448086117685611,0.821321702016403,0.8565286153814223,1.0916742781273394,-0.142006460338588,-1.013788417325206,-0.2136984665465215,0.000195663383681,0.0450524354656986,0.3902953827746258,1.475906519809578,5.69253913697176,1.3373648945050027,0.981829160280792,1.04733625829906,1.297637466339349,1.801963398728876,1.895246891641712,3.9599277789964074,1.125645441330038,Relax
01,61.27957261806869,980.9666666666668,94.95546978946422,128.389040664349,129.48092882459997,0.0967978556418473,0.1308801257239617,1001.5,79.31909999999999,0.0792002995506739,116.75,0.7395917073460258,901.4,1055.2,55.00000000000001,76.66666666666667,779.0,1168.0,15.0,250.0,0.0224550273173606,0.0398291202333076,0.0101580675720574,0.0724422151227256,0.5637841656010865,0.3099715722292478,0.5498053885546205,-3.223156970074015,91.55684280620731,99.21083259654807,0.9228512694630177,28536.438857165664,1.0835982276774383,5.162369885286336,430.01872947209023,0.7,0.7241379310344828,0.9047619047619048,0.3,49.12183398040304,49.19614754082435,49.05204543368971,51.72413793103448,0.4759768482768334,0.5240231517231665,63.17101856236684,66.28270175335446,0.4949386217028524,0.5050613782971476,69.79668023682036,70.50682755889204,0.4862165565641256,0.5137834434358745,66.56633592998733,68.42736763950326,0.8086338619608826,1.417807664188907,1.0910858993738002,1.4064824022883935,-0.0970695281638462,-0.8763450713315684,-0.2775463408183618,0.0021259490222509,0.2068736226641814,0.2890681446434118,2.70805020110221,5.873557262275184,1.2677204710585246,0.0,1.0793720283840775,1.1968729356955117,2.32558010658296,1.8578123325744256,3.617516565942055,1.0829299425282284,Relax
01,63.20501026691189,952.2786885245902,95.15060538387569,138.00712541990964,139.16493892496305,0.0999188646459126,0.1449230430996314,966.0,105.2646,0.1089695652173912,142.0,0.6894615411658213,856.0,1037.0,50.81967213114754,80.32786885245902,768.0,1142.0,15.25,289.0625,0.0239294381941065,0.0670687550332358,0.0210694302393393,0.1120676234666817,0.3567896583475922,0.2135267747622122,0.598466827068709,-2.702036991242923,98.4044720172531,92.42032757544492,1.064749223453284,28571.44541678504,0.9391882876953092,5.162902321666027,347.2003568152867,0.6885245901639344,0.7118644067796611,0.9047619047619048,0.25,50.69280162216966,50.66218749245439,50.71761316371074,55.932203389830505,0.5081793345572728,0.4918206654427272,70.15273893199763,69.01436843764823,0.4259847712915679,0.574015228708432,60.32044548963309,70.02114541397296,0.46965909719681,0.5303409028031899,65.42156725319569,69.51957945763266,0.6324167771717197,1.1647753823467366,0.6273724224476918,1.143132995378356,0.0100378760460984,-0.8466191780204375,-0.0572016881988583,0.0013108701606864,0.1350823947030716,0.371884424792094,2.9957322735539917,5.897950452316984,1.1831374224621567,1.133732460554052,1.1968729356955117,1.2168836126138958,2.3489531157817325,1.866542146720354,5.596419625090839,0.972252022551293,Relax
01,63.801467642398286,941.904761904762,70.74162763312935,97.62461019706572,98.4123048997676,0.0751048625023112,0.1036459461141749,947.0,75.6126,0.0798443505807814,93.5,0.7246290406725292,878.4,1000.4,53.96825396825397,88.88888888888889,792.0,1124.0,12.6,195.3125,0.0196247539803733,0.0539148524001067,0.0058212745839392,0.0793608809644193,0.363995320523857,0.2472849814907154,0.6793630784451468,-2.920349284292454,69.58800814682375,72.25464052735055,0.9630939637777676,15796.105405158276,1.038320286088667,4.905520133021098,300.0938360943697,0.6190476190476191,0.639344262295082,0.9230769230769232,0.1052631578947368,50.89536138079828,50.86778922326349,50.91570244877608,52.459016393442624,0.4954568916643397,0.5045431083356602,48.98669943271821,49.43384385249427,0.469500334663239,0.5304996653367611,49.50894795069672,52.62696220144052,0.4819920226488434,0.5180079773511566,49.248515959855446,51.05537223732991,0.711600247273382,0.7195077732628257,0.8954561788206528,0.8944478061363966,0.5740639599490436,-0.0679894564484144,-0.5014014757334495,0.0002438164374748,0.039999166192485,0.3159859124548347,1.6094379124341007,5.774821391719543,1.465758128616462,1.0357680164036986,0.7489330683884978,0.8888370153723535,2.3661622638058906,1.9658673052934363,4.582249526949762,1.328284427444426,Relax
01,63.50483838079236,946.4354838709676,73.2323096677295,114.39541719583802,115.34363484111576,0.0773769696041041,0.1208697466920356,955.5,74.13,0.0775824175824175,94.24999999999989,0.6401682118293273,886.8,1013.2,67.74193548387096,88.70967741935483,781.0,1123.0,12.4,210.9375,0.042675236361126,0.0968579732514268,0.0361679848089089,0.1757011944214618,0.4405960080369263,0.2428852945572991,0.5512653090968154,-2.334509566741494,81.56026636285787,65.11792161799234,1.2525010678523016,16685.108639989234,0.7984025129134044,4.929299148737693,207.9612490220128,0.6612903225806451,0.6885245901639344,0.9523809523809524,0.1666666666666666,49.73113616652212,49.75494464497008,49.71002132215233,45.90163934426229,0.4630479853181586,0.5369520146818412,55.50037537410594,59.76551402495143,0.6243338894853836,0.3756661105146163,51.45279666713616,39.91182069233795,0.5258347103301045,0.4741652896698953,53.51486686677041,50.817664732079145,0.5051075749302257,0.6164865543436898,0.6434593764357971,0.729312722864401,0.56505798298255,-0.2658658854982461,-0.3607376822354169,0.0002546056221597,0.0335168541329636,0.2898349814186454,1.504077396776274,5.748472318416495,1.636904170568735,1.2166985644675914,0.981017338575026,1.4289919208724744,2.1817610933843223,2.022435451707911,5.7996935758788135,1.248460516694022,Relax
01,63.87022211594126,940.1428571428572,93.0287602326009,129.12303460078735,130.1238487874844,0.0989517279483674,0.1373440574693073,949.0,105.2646,0.1109216016859852,143.0,0.7204660308690859,852.2,1022.6,71.42857142857143,85.71428571428571,774.0,1133.0,15.75,125.0,0.0382531413003118,0.0879632331297945,0.0141630639503219,0.1403794383804283,0.434876481221049,0.2724981788048318,0.6266105217732395,-2.430836357152146,92.01145587172311,92.74002331737606,0.9921439803485964,26807.664271169768,1.0079182253856374,5.135229085886761,373.8974388970892,0.6349206349206349,0.6557377049180328,0.925,0.1052631578947368,48.273782602140805,48.21083326337803,48.33514816319246,47.540983606557376,0.4517935864085804,0.5482064135914195,61.871363115503534,68.15405644447044,0.6335112967700249,0.3664887032299752,73.81495894934534,56.143243228494704,0.5433318490768423,0.4566681509231578,68.10548340061918,62.43812605311749,0.7973620447949888,0.7283599649163611,0.9873856037634424,1.1615420272531694,-0.5042308347532609,-1.5058984932818666,-0.2608923720708269,0.0002356526993286,0.0386033011638625,0.3291059381467955,2.833213344056216,5.9137878600078535,1.62542402692058,1.4836500411109528,0.0,0.0,2.3356294456693973,1.9654510820564983,5.42299108055157,1.1385295092380794,Relax
01,62.676570919263376,960.7540983606556,108.57895065154278,167.9264223799618,169.32298808426845,0.1130142987022508,0.1747860588536612,972.0,127.5036,0.1311765432098765,171.0,0.646586458001616,857.0,1056.0,75.40983606557377,90.1639344262295,725.0,1226.0,20.33333333333333,179.6875,0.0282867781015594,0.1297320462360337,0.0498553430099307,0.2078741673475239,0.2180400211224195,0.1360764469318098,0.6240893127386422,-2.042284138487043,119.72943308515518,94.871285833524,1.26201971474542,35684.99051376926,0.7923806485081133,5.25945569560516,300.69668397426534,0.6721311475409836,0.6949152542372882,0.926829268292683,0.2666666666666666,50.93955715140635,50.83701525560477,51.04278229168074,44.06779661016949,0.4924049488255314,0.5075950511744685,84.02622673701953,85.31243675107856,0.6709567481024266,0.3290432518975735,77.71091980064172,54.42034380123342,0.5612619683063147,0.4387380316936856,80.93019781244448,71.55342648626697,0.490268264937495,1.260457932406253,0.6450946254386681,1.051051100180063,-0.9184123572861562,-1.779479002918194,-0.1779293744723303,0.0005012943876576,0.1074163407455813,0.3507425693677026,2.9444389791664407,5.799589796579279,1.5024101493710054,1.136998617702687,1.0107628169586376,1.0826833350715828,1.9576995656461371,2.008257865441775,6.218245319481476,1.2639276293166808,Relax
01,64.45516783276963,933.2857142857144,103.6453986609848,135.68916090497711,136.79608821693057,0.1110543074585785,0.1453886616156191,955.0,126.021,0.1319591623036649,158.5,0.7638443481389608,823.2,1026.8,57.14285714285714,82.53968253968253,745.0,1226.0,15.75,242.1875,0.0085279110790202,0.0297578188506012,0.0113517602689618,0.0496374901985834,0.2865771554640661,0.1718038330484255,0.5995028904876123,-3.514663363013626,96.72944161798478,109.2652616744152,0.8852716786256897,33204.019757986985,1.1295967375262883,5.228160773576526,493.7027324495024,0.6507936507936508,0.6774193548387096,0.9047619047619048,0.2,50.21868166198063,50.29462842374814,50.13685524584157,38.70967741935484,0.420038790520676,0.5799612094793238,62.691084941541256,73.66489254348113,0.7061312505982805,0.2938687494017193,91.81736523133998,59.23232943885579,0.580430175898785,0.4195698241012149,78.61488627853132,66.83930447048266,0.6168853199795219,1.5537536485671988,0.9383566843599068,1.0776629530131585,-0.2481197266486017,-0.5023041806863444,-0.4103421132547535,0.0008803431419755,0.1666831071158092,0.3812423957965318,1.5755363607584192,5.67958329648145,1.2794058493136111,0.5909984302806723,0.6463535756254107,0.8598425498690881,2.1825311291026166,1.889138519160295,3.8575714243514,1.1385295092380794,Relax
01,66.62204657332411,902.876923076923,97.76126976151964,115.0586806807726,115.96439998332272,0.1082775151992566,0.1274356202268001,889.0,130.4688,0.1467590551181102,170.0,0.8496644423792395,800.4,994.8,50.76923076923077,78.46153846153847,744.0,1118.0,13.0,125.0,0.0071599830767411,0.0390827563855296,0.0091058262138994,0.0553485656761702,0.1832005656436278,0.1293616734105144,0.7061204912552295,-3.2420739224235287,81.99921360443666,110.52227204978924,0.7419247911180906,28471.435501144133,1.347845512067317,5.161379474351775,595.867793463166,0.5846153846153846,0.609375,0.8974358974358975,0.1,50.54904831625184,50.52857278734838,50.56719689406015,45.3125,0.4646603656003321,0.5353396343996676,55.897440098128,59.998280398638514,0.6037912040621808,0.3962087959378194,85.88022929337195,69.56837525460456,0.5543938907017261,0.4456061092982737,72.45666840604096,64.95980482713571,0.4442923913862035,1.5177035267914605,0.7859543871349993,1.025934291426151,-0.2550374728126066,-0.906623885005042,-0.3418795897519676,0.0014449337493369,0.1968818219046089,0.3611982525782142,1.83258146374831,5.764600312995171,1.378382799582868,0.6872180489056163,0.8047189562170501,0.8605048440456026,1.7454719893450763,1.883910755560461,3.914850786246356,1.111821750097561,Relax
01,66.56831065402473,901.878787878788,84.37854542322312,105.9642900661858,106.73833029350868,0.0935586317776481,0.1174928288483345,887.5,83.76689999999999,0.0943852394366197,121.25,0.7962922732792327,835.0,986.0,50.0,71.21212121212122,744.0,1118.0,13.2,125.0,0.0250873932211953,0.1118835345104533,0.0223684066110158,0.1593393343426645,0.2242277501418353,0.1574463287718026,0.7021714692860715,-2.1902968191697987,75.47539716306947,91.42116717528992,0.8255790151787692,21677.14293888541,1.211271097756115,5.042972151313268,442.9432700902349,0.5454545454545454,0.5692307692307692,0.8108108108108109,0.2105263157894736,47.9117415287628,47.954765429878485,47.87128434923657,52.30769230769232,0.501997676228475,0.4980023237715251,53.50102218649657,53.287692059236335,0.5000607060174475,0.4999392939825524,64.64845144632841,64.64060282271525,0.500846244130628,0.499153755869372,59.337094845502335,59.23675235140775,0.6622550218951019,3.6297593935048,1.367732152280933,2.1314054303971885,-1.080881540236078,-1.2701683220187,-0.2896077410853195,0.0331795529370361,1.785262763719962,0.3828332683527207,2.4849066497880004,5.851138248113551,1.4287714850194924,1.1303653426677984,1.170532806781055,1.2624640018123845,1.934370041238026,1.8814572351088064,3.071353295275354,1.2821442071366418,Relax
01,68.81911861942868,871.9411764705883,85.62498630185159,75.2038026983909,75.74538092712696,0.0982004160515062,0.0862487111834746,868.0,88.2147,0.1016298387096774,109.5,1.1385725618856726,799.8,947.0,38.23529411764706,70.58823529411765,698.0,1120.0,13.6,171.875,0.0071954761841637,0.0184809397810026,0.0047703824263422,0.0304467983915086,0.3893457946094409,0.2363294850131262,0.6069912357733108,-3.991015360111256,53.56007249712965,108.91961836827528,0.4917394432657134,18327.24307153985,2.0335972916039724,4.970067249835748,885.9945636650514,0.5147058823529411,0.5303030303030303,0.7142857142857143,0.2352941176470588,48.20652173913044,48.20858245477566,48.21914477068973,48.48484848484848,0.4893145363474662,0.5106854636525336,37.47868080858123,38.28837943815329,0.4957559659798055,0.5042440340201945,76.6902380109008,77.34397623165047,0.4945009822288688,0.505499017771131,60.35745240365985,61.024956613348415,0.805179246640553,1.8120917090923,1.0789399495906866,1.2340964640359149,-0.4825489999273262,-0.2381532375184911,-0.4143771180748086,0.0008056124731289,0.1900425122586739,0.4788478769276545,1.8191584434161696,5.910992253015046,1.1926574975697024,1.1024914981688183,1.0227744261587466,1.4568027712612164,1.949335508167104,1.793915176729364,2.671759063176578,0.9847366360846136,Relax
01,68.05112289026242,883.2835820895523,102.67598432287458,111.65429601310385,112.48750979615409,0.1162435104703041,0.1264082094099012,875.0,106.7472,0.1219967999999999,127.5,0.9195883005775652,793.2,975.0,47.76119402985074,77.61194029850746,698.0,1175.0,13.4,132.8125,0.0102266362545433,0.044946947417217,0.0100488840192691,0.0652224676910295,0.227526825339557,0.156796217876772,0.6891328863872299,-3.1022724309997485,79.54068097564874,121.81666122107002,0.6529540391137479,30440.085615528784,1.531501361653718,5.190415979555051,746.2495301287136,0.582089552238806,0.6,0.8205128205128205,0.3125,51.41318977119784,51.54287406795748,51.28811106939123,47.69230769230769,0.5103931570331102,0.48960684296689,56.83660792130368,55.66721172771689,0.532460821068744,0.467539178931256,88.88951177478744,83.29437944716842,0.525862750297563,0.4741372497024368,74.6047763335568,70.84063843948378,0.6936753530405744,2.028005977546043,1.0423693970924426,1.252546824881709,-0.6412674566401471,-0.4968489832439799,-0.3963625205663405,0.001439051031956,0.2687957245170551,0.483986482145744,3.4011973816621555,5.946686205383145,1.157333607436268,1.347221434797729,1.023586140555525,1.1968729356955117,2.1812420854275585,1.9003385073810608,2.5255398552884256,0.905386446336981,Relax
01,96.399419845791,622.8105263157895,101.238531763108,56.81006054145168,57.09826486711352,0.1625510929655933,0.0912156396545018,597.0,78.5778,0.1316211055276381,108.5,1.7820528758148204,539.8,714.4,29.47368421052631,70.52631578947368,479.0,904.0,15.833333333333334,46.875,0.013436298724771,0.0014317850962881,0.0004903857540359,0.0153584695750951,9.38429849535656,0.8748461986446212,0.0932244641490787,-6.548833294130135,40.37457028152157,137.26629313932938,0.2941331725228434,17410.918856720116,3.399820535109268,4.947791801462409,1866.7230487736813,0.6736842105263158,0.6881720430107527,0.890625,0.4,48.44130540672188,48.64224614979324,48.25188836997784,48.38709677419355,0.4503912662258466,0.5496087337741532,27.10364416239485,29.940532458040348,0.5722324191453962,0.4277675808546037,103.83652248872568,89.77756863304258,0.5625256149934722,0.4374743850065281,75.88356518190666,66.91953120551443,1.433852964879049,0.9038664755107826,1.6495610043758857,1.6860493602550348,-1.0548938819801563,-2.0548938819801563,-0.4596308117761207,0.0024912204715199,0.1165302846090951,0.6262515358869938,0.9604619501872924,6.3303304767292286,0.8016961005443894,1.0188744086469,0.9380638368718084,1.116105108870415,1.729074485931206,1.6853019282396358,2.387108494575332,0.5532509985962903,Stress
01,87.18914312711058,689.2558139534884,101.92594613351422,75.6407142156843,76.07430762164086,0.1478782537195867,0.1097425842254681,659.5,114.9015,0.1742251705837756,167.75,1.3475011069155085,597.0,795.0,39.53488372093023,68.6046511627907,532.0,954.0,14.333333333333334,85.9375,0.0294349179109112,0.0060723487866349,0.0057023079016968,0.041209574599243,4.847369435645208,0.7142737627641504,0.1473528626705707,-5.104009798734358,53.79265879333371,133.6347021302677,0.4025351045486403,22583.545930118016,2.4842553822014923,5.060762243165363,1327.930912064043,0.6395348837209303,0.6547619047619048,0.8909090909090909,0.1875,51.39459459459459,51.63591004144011,51.16661663524622,47.61904761904761,0.4986480345609659,0.5013519654390342,37.99334214857976,38.09621278515003,0.5139640607908684,0.4860359392091314,95.80443761391416,93.16514019163502,0.5118276484703191,0.4881723515296807,72.87655423432635,71.17255361267586,1.3661260092446506,0.7457764617873801,1.3709577797771937,1.7211129996170604,0.0594836962956151,-0.9047138226618244,-0.0304823391708284,0.0004002827094004,0.0478664165570866,0.5203795995258713,1.0340737675305385,6.1704508012137245,0.9014745101797764,0.6243746143027684,1.03903680521298,1.5409200113430237,1.8064527861922264,1.650709577669891,2.189268627081185,0.7472400877560579,Stress
01,77.25088774034953,777.8026315789474,115.4149637596838,98.8257726169309,99.49083528801188,0.1483859260354908,0.1270576475375424,775.0,123.7971,0.1597381935483871,158.25,1.167863004795885,678.0,874.0,46.05263157894737,73.68421052631578,569.0,1023.0,19.0,132.8125,0.0239255515100178,0.0121069497069845,0.0061988387137014,0.0422313399307038,1.9761832739930485,0.5665354580100126,0.2866816380169431,-4.413975635309558,70.35064429806704,148.08825162810948,0.4750589160491741,32729.43872373606,2.1050020665152367,5.221908667629271,1246.9043028151953,0.6842105263157895,0.6986301369863014,0.9607843137254902,0.2,50.198771232381645,50.24489710907061,50.15390849015352,45.20547945205479,0.4780461166705349,0.5219538833294652,48.64126820892906,50.82601483279781,0.5455743320044365,0.4544256679955635,109.38243082402664,99.82792243304122,0.5331404742056338,0.4668595257943664,84.64776767861615,79.2114192559415,1.2735423905782093,1.1905080545086366,1.6143219937712168,1.868796417832528,-0.0962599327907902,-1.0936867314128556,-0.2862472050503336,0.0031449798979899,0.1912450065223675,0.5058160388873372,1.5141277326297755,6.09003277660148,1.038503873027751,0.9381819303424354,1.2131381752928587,1.5012428230240773,1.6799094118375046,1.6481225740461285,2.930341910755536,0.986514870543724,Stress
01,82.51157540321462,729.4691358024692,155.21662978074812,114.03694576758885,114.746829194216,0.2127802564394976,0.1563286781724355,716.0,182.3598,0.2546924581005586,245.0,1.361108268342129,587.0,879.0,49.38271604938272,82.71604938271605,400.0,1023.0,20.25,203.125,0.0052379325977343,0.0081489477009156,0.0029175920861154,0.0163044723847653,0.6427741089988607,0.3212574117165895,0.4997983073975354,-4.809866476517686,81.13826104288462,204.51234062607185,0.3967401712507752,52130.8837722633,2.520541332750271,5.424065197523833,2061.927230422066,0.6790123456790124,0.6962025316455697,0.9636363636363636,0.3157894736842105,49.10822249093107,49.43903859506851,48.85965621590171,46.83544303797469,0.4349029272728321,0.5650970727271679,53.51286370844379,60.99911806791383,0.5239799691589353,0.4760200308410648,148.03924505863856,141.1016633169956,0.5118640489473377,0.4881359510526621,111.30868038884056,108.6981411889966,1.0381538558819543,0.3929110151429178,1.093564826325831,1.232558210893317,0.5830553838066477,-0.2979180650652138,-0.1462471673976144,0.0003814832165785,0.0200684223376596,0.5768951433037923,1.1913940221190764,6.182382255944334,0.909362015325917,0.7092425611077141,0.995731352670274,1.0801262785970622,1.737738252153472,1.7812784640839954,2.446206025157661,0.6261580249762592,Stress
01,90.1312185805518,668.7159090909091,131.71145307234457,124.1062762961324,124.80989982084982,0.1969617460595497,0.1855889393522125,657.5,128.9862,0.1961767300380228,169.5,1.0612795501016026,559.4,793.6,46.590909090909086,80.68181818181817,346.0,983.0,17.6,242.1875,0.0152143766676579,0.0128708286398632,0.0025359125878844,0.0306211178954056,1.1820821404253965,0.4968589559540775,0.4203252371068501,-4.352791874064995,88.25392652253656,164.64275072069128,0.5360328719984472,45648.50120986322,1.865557230234374,5.366396632752773,1228.601896050645,0.5909090909090909,0.6091954022988505,0.8301886792452831,0.35,51.19080587094989,51.42858357095972,50.97269503336154,42.5287356321839,0.4390823623177806,0.5609176376822195,58.48737689291556,66.10566770198741,0.5190311491972995,0.4809688508027006,118.6149211650588,114.18290520862828,0.5011831295561544,0.4988168704438457,93.51543396361656,93.29441340243308,0.999995717366172,1.42570455914059,1.237207659473445,1.4903061942940723,-0.3415936778363289,-0.8387549341234029,-0.3224747664598936,0.0007554873612285,0.1423543182457283,0.534498541498114,1.211940973975113,6.254886164091841,1.0278954471909865,0.973899023248152,1.1818936368477813,1.3491892067965965,1.7215571158395595,1.776248337844305,3.0156344262329333,0.9542342163896008,Stress
01,87.2439569329478,689.4069767441861,104.69118485358028,99.65617362299471,100.24076338624774,0.1518568688527029,0.1445534741955092,672.0,94.1451,0.140096875,113.0,1.0505238265482004,615.0,789.0,41.86046511627907,75.5813953488372,346.0,939.0,9.555555555555555,312.5,0.025234642765317,0.0328875904687538,0.0075398981267185,0.0656621313607894,0.7672998357630431,0.3843104425998893,0.5008608430336896,-3.414659881764204,70.88092354173196,130.74223148025646,0.5421425253280595,29113.5478835762,1.8445334082488425,5.1710652433418725,964.6336553373465,0.5697674418604651,0.5783132530120482,0.8125,0.3888888888888889,49.11654470819205,49.40625770445745,48.86418826501186,46.98795180722892,0.4133812702492996,0.5866187297507004,45.575813343315794,54.29214404277938,0.6006592069883908,0.3993407930116089,101.32811470966288,82.62048330663757,0.5581138193418617,0.4418861806581383,78.56380080074842,69.90629859527782,0.941071575909107,2.7400003250184843,1.4981760940602695,1.9474566214417248,-0.5567850926735574,-0.7634313812624485,-0.3360290240555267,0.012044941730632,0.8472270175675247,0.5402628104844869,0.9416085398584448,5.988943353836553,1.0841802652078434,1.0957068188393422,0.851879447278321,1.3182507642540666,1.519291943860291,1.7449203698611957,2.440471427673022,1.0461361228584811,Stress
01,78.43661022900883,766.1298701298701,133.75894959230033,105.0229924700702,105.68927230661473,0.1745904380018837,0.1370824928837029,741.0,143.8122,0.1940785425101214,210.0,1.2736158668342974,646.0,912.0,57.14285714285714,77.92207792207793,511.0,1062.0,11.0,148.4375,0.0055416621611178,0.0080486922553113,0.0016564629324617,0.015246817348891,0.6885170889048329,0.3634635369670073,0.5278932692072156,-4.822245653504894,74.73360114667885,174.04533665262713,0.4293915745403615,40862.80488104814,2.3288766228597786,5.318298283872343,1621.320463392254,0.6493506493506493,0.6621621621621622,0.9183673469387756,0.4,51.66070516096066,51.678334254182175,51.59711504441542,43.24324324324324,0.4065733232967539,0.5934266767032461,47.66668997668428,57.58761440911868,0.6106848203387557,0.3893151796612445,136.01003545665853,108.59580777177726,0.5788938773503568,0.4211061226496434,101.90888842062512,86.91772776291995,1.086862108670705,1.4519699022102133,1.2808248912568017,1.627932006653094,-0.1736050185148121,-0.609401829486881,-0.2609405574675342,0.0029785450657315,0.2116219368428152,0.4368449680111097,0.7316134613877411,5.997242547160313,1.0172428985742794,0.6845832944256733,0.8794439390914999,0.926952797561723,1.6506014657937575,1.7543645048544712,3.0141974173089614,0.8138683819084287,Stress
01,69.75243449352398,863.0147058823529,114.06249827113425,134.13058907413006,135.0955087047106,0.1321675024697474,0.155420977371404,865.5,133.434,0.1541698440207972,178.75,0.8503839359722429,754.0,969.8,72.05882352941177,88.23529411764706,599.0,1128.0,17.0,156.25,0.0414339586425074,0.0677916415460615,0.005628285084661,0.11485388527323,0.6111956827945355,0.3607536527296288,0.5902424753397721,-2.691316372667059,95.52695031294712,129.53776937696804,0.7374447682123814,38875.16095487758,1.3560337575166086,5.2966423101103945,702.6303525942794,0.6764705882352942,0.7014925373134329,0.9574468085106383,0.3333333333333333,51.66433566433568,51.71493368828776,51.5984562055697,46.26865671641791,0.4318971825073544,0.5681028174926456,62.80127387243033,72.02640509079313,0.6041581279960777,0.3958418720039223,100.68661154780862,81.49993834464692,0.5434502345077343,0.4565497654922657,83.91005227319106,76.9091768922418,0.9408573703409469,0.9951759331007936,1.009521660928606,1.1297709664832385,-0.1244949696256014,-0.2330910186371575,-0.3791677917893806,0.0002410895782074,0.0443743785821755,0.3061297821218458,1.5686159179138452,5.881580488309163,1.4865315176367364,0.840093846785475,0.9120143648984202,0.991627797678054,2.0910304394302277,1.9265083792691229,3.675573536135573,1.074258148455942,Stress
01,71.93554356438355,840.3142857142857,126.47718965531134,184.5541042385792,185.8734214862476,0.1505117689958144,0.2196250942963609,829.5,149.0013,0.1796278481012658,205.5,0.6853122566800797,731.4,971.6,80.0,94.28571428571428,565.0,1128.0,11.666666666666666,210.9375,0.0474861112144814,0.1092802682235503,0.056155761395569,0.2129221408336009,0.4345350902446632,0.2230210114766409,0.5132405103373121,-2.2138394287011907,131.432356775271,120.02987248953934,1.094997054060233,49561.16573654435,0.9132444660851048,5.402111622899764,438.4664672638902,0.6428571428571429,0.6666666666666666,0.9347826086956522,0.2777777777777778,51.143431250598034,51.216643937731234,51.08473196835867,44.927536231884055,0.4439941195367964,0.5560058804632033,87.59259806224563,98.02085612406228,0.6564643134016342,0.343535686598366,97.25118586624087,70.35180976680657,0.5405960238223386,0.4594039761776614,92.5479777944506,85.31548913520643,0.6822417604091687,2.254426752359632,0.8599057090605822,1.6662848152063563,-2.282207415046015,-2.900177998712792,-0.1423130158024586,0.0033516387353013,0.3967703732163018,0.4141448777693282,inf,5.986425874087824,1.711976528918317,1.000784962309667,0.8654928084817017,1.4059248670626212,1.8812128396497736,2.033701020254683,6.256557068046723,1.1382954174326363,Stress
01,71.11192345189232,851.7971014492754,132.86100429419872,213.20043731331376,214.76369755099904,0.1559772909160464,0.2502948612416825,836.0,160.1208,0.1915320574162679,240.0,0.6231741640330205,726.4,999.2,88.40579710144928,95.65217391304348,565.0,1092.0,13.8,171.875,0.0138323629347124,0.0215779629356771,0.0416648189908406,0.0770751448612302,0.6410411852103937,0.1794659349601857,0.2799600698062543,-3.836082719544834,151.86086689100813,111.08756156520832,1.3670375400387729,52998.207508893385,0.7315088069722192,5.431231291219921,325.04611852007395,0.6811594202898551,0.7058823529411764,0.9583333333333334,0.2222222222222222,50.81233812102659,50.91312354372825,50.7161324822369,45.588235294117645,0.457472432795486,0.5425275672045142,102.7241633275408,111.86675843069308,0.6252897582478253,0.3747102417521748,87.84278402448453,68.00067374174843,0.515962228670274,0.4840377713297258,95.57355396896024,92.56960427462882,0.4258146718238839,0.8232579068013843,0.502430332406471,0.7161682062130436,-0.4069099211583431,-1.088945203330786,-0.2403755590553495,5.487194476785192e-05,0.0310878973524428,0.3796264976043835,2.0149030205422647,5.9056259060535305,1.6535518356794856,1.063161160864177,0.6040568221627275,1.1222336486395597,1.951436423232912,2.037931996666931,10.060424524473351,1.0623520794396817,Stress
01,73.28336226541569,824.9722222222222,146.87725758262297,201.71881140151365,203.1370472359942,0.1780390340743603,0.2445158830416678,811.5,157.1556,0.193660628465804,208.75,0.7281287082852643,702.6,974.6,75.0,88.88888888888889,454.0,1098.0,18.0,250.0,0.0042383253742948,0.0494433571576013,0.0170312487379821,0.0707129312698784,0.0857208251613089,0.0599370624040343,0.6992123826531673,-3.006927564464885,143.63958361078352,148.20889874091895,0.9691697653180532,66880.3120059752,1.0318109744909647,5.532268400441754,611.6942729524013,0.6527777777777778,0.676056338028169,0.9166666666666666,0.15,49.19713016740691,49.570696498178734,48.86751394385261,47.88732394366197,0.449031922199331,0.5509680778006689,96.26095484967634,106.62886234840116,0.5331530016124737,0.4668469983875263,108.21817597186782,101.26551266506196,0.4924055573004515,0.5075944426995481,102.41422029984308,103.9817732610675,0.4276953856252323,1.3255767025695362,0.710591831586697,0.9115280184519704,0.3052818958315235,-0.2890966234460417,-0.3484160241532815,0.0026855264292594,0.1922106544625803,0.2965582616263287,0.9903987040278768,6.086591668108979,1.5199616883152265,1.1279250692965166,0.6998706988404294,0.8825457132522239,2.025159229296071,2.00142705767275,3.1360747224669243,0.9426274307759088,Stress
01,76.78738979722635,788.5333333333333,141.0385545653169,207.97033962121176,209.38347688499024,0.1788618801555422,0.2637432443623754,768.0,118.608,0.1544374999999999,208.0,0.6781666790668249,690.4,924.4,74.66666666666667,89.33333333333333,454.0,1102.0,18.75,296.875,0.0207392975523964,0.0623300131218475,0.0284220098462597,0.1114913205205037,0.3327337267177159,0.1860171487392367,0.5590570892052962,-2.7753122176392195,148.05647637379332,132.71578344108082,1.1155905690714096,61730.50887941432,0.8963862080981695,5.49746996707811,475.85839149411305,0.7066666666666667,0.7297297297297297,0.9444444444444444,0.2777777777777778,49.49671408368688,49.89168249747089,49.13749433827429,44.5945945945946,0.4353808617884707,0.5646191382115294,97.6957115476136,111.2547674828869,0.5933986812838967,0.4066013187161034,102.234120111137,84.62661436853936,0.505779357696191,0.4942206423038094,99.9906679888001,98.8415073416849,0.3646353151769436,1.4909323192288038,0.7140733896799671,0.8330306979855702,0.2806699531127972,-0.0848135858506184,-0.4202128045844934,0.0023063486508442,0.214714500248505,0.5606599782436117,1.871802176901592,6.14881869049588,1.455921919712842,1.501542023240115,1.4227018662086666,1.5185958903592602,1.8260552957331304,2.000835776174418,3.513486112664816,1.411865569845733,Stress
01,74.1367506155521,812.8767123287671,124.47991194538172,181.55979272221407,182.80074101461668,0.1531350450288652,0.2233546489504824,793.0,115.6428,0.1458295081967213,168.0,0.6856138690124834,713.8,920.4,82.1917808219178,87.67123287671232,540.0,1102.0,14.6,250.0,0.0323180501063753,0.0819637474221906,0.0379194400205737,0.1522012375491397,0.3942968827414256,0.2123376302767651,0.538522214024231,-2.5014782340823705,129.2596435773613,119.41072016357806,1.0824793904625265,48490.44216851009,0.9238051170403492,5.392626254284956,441.2489372663465,0.684931506849315,0.7083333333333333,0.9215686274509804,0.3333333333333333,48.83065652296422,49.07731977258455,48.612265171185015,41.66666666666667,0.4159606135488886,0.5840393864511114,83.38114590815927,98.80133716378596,0.6568667805357554,0.3431332194642446,96.77918646808632,69.94790316056462,0.526865510372425,0.4731344896275749,90.32891681621771,85.59910449856307,0.519739439142636,2.079297873914993,0.724958734681024,1.3909227804209183,-1.6899808757683488,-2.2805031205764266,-0.1797168630360845,0.0027502600956247,0.338051663570256,0.3804475171161212,1.7227665977411033,6.080235517784125,1.6454944481716096,0.0,0.0,0.0,1.9056097350351893,1.9696254282256425,4.078305528421833,1.1022975241841126,Stress
02,98.4592837989894,612.75,149.05286946160024,200.22855361863483,201.2902908413868,0.243252336942636,0.3267703853425293,585.0,37.065,0.0633589743589743,57.25,0.74441365513479,558.0,631.0,32.29166666666667,53.125,478.0,1739.0,10.666666666666666,132.8125,0.0507866450991945,0.0627193910225427,0.0184433350380626,0.1319493711597999,0.8097439128664483,0.3848949385115929,0.4753292150713258,-2.769084612449132,142.333729640957,156.91170654420878,0.9070943957954816,70163.7912806426,1.1024210982177265,5.553083157933468,691.9311034067371,0.53125,0.5473684210526316,0.8269230769230769,0.1034482758620689,50.27977617905673,50.58175046055299,49.94807055726484,47.368421052631575,0.4820056239809487,0.5179943760190511,98.8177454130109,102.44043417123676,0.4680352955222297,0.5319647044777701,107.34817077879184,114.44498189550838,0.4743415124105941,0.5256584875894061,103.17116016131467,108.6086931010928,0.7308528625801205,2.3732723531013225,1.2934144060805923,1.394360103497713,-0.6251492042026534,-0.4956641030322246,-0.4574656076513055,0.0020825919664889,0.4039379328516197,0.7154741098659492,0.5226321363529796,6.181265755906956,0.6268903428813272,0.4248663299222293,0.7275208596389741,0.6467724578080538,0.8115020271606053,1.850426825974476,1.686969499840573,0.9603070313551686,Relax
02,101.54842646443622,591.2020202020202,39.32984010147704,43.819783995220185,44.04063618043888,0.0665252126304264,0.0741198143745288,583.0,29.652,0.050861063464837,42.5,0.8975361472746441,563.0,622.0,18.181818181818183,46.464646464646464,478.0,740.0,6.6,132.8125,0.0465237146414407,0.0254482552590692,0.0120668626249819,0.084038832525492,1.828169128603054,0.5535978219036831,0.3028154306088189,-3.671108093971435,31.141432490957943,46.20921843413616,0.6739225104043919,4520.81860723514,1.4838501230652514,4.362187191767761,274.2702178409681,0.5959595959595959,0.6,0.8771929824561403,0.1923076923076923,48.95726495726495,48.973707576603495,48.94439070916625,50.526315789473685,0.474032426917211,0.525967573082789,21.443043713786068,22.587173625115955,0.5041049393410616,0.4958950606589383,32.808705822413394,32.540446993734534,0.4947112918154581,0.5052887081845419,27.71475510854284,28.009472530941927,0.7624078285848244,2.045101908514192,0.7264328656292931,1.6117271403710496,-0.5093690840527554,-1.1629057991110143,-0.0671148361575091,0.0040699595520444,0.4202472369650372,0.6000523284169894,1.4529857356185627,5.944766342192567,1.0734216964190455,0.9871872683591651,1.177449286939108,1.4602874545741609,1.6674612719801307,1.7779288978100478,2.828136189949289,1.0044479727393347,Relax
02,101.09977145625884,593.5555555555555,34.93382146410793,32.1099831891604,32.218035140961085,0.0588551840466064,0.0540976878888887,583.0,31.1346,0.0534041166380789,50.0,1.087942689297352,566.0,626.0,12.12121212121212,34.34343434343434,523.0,740.0,6.6,85.9375,0.037369694910752,0.0134211397344479,0.0092944257931459,0.0600852604383458,2.784390569664924,0.6219444608898294,0.2233682543195349,-4.310924222993523,22.78159112468007,41.30892593213137,0.5514931848411928,2956.49962892492,1.813259034720363,4.177747938787912,299.61513264412605,0.5656565656565656,0.5543478260869565,0.8431372549019608,0.2631578947368421,45.6041372825576,45.90885994503084,45.2565560444787,52.17391304347826,0.4562414021753114,0.5437585978246884,15.415215404897248,16.828884104603773,0.4221850154698321,0.5778149845301677,26.84079101075895,31.400625783303703,0.430149004947183,0.5698509950528167,21.88671889597228,25.191373918360057,1.1098729584866485,2.865230871435172,1.5138340369931371,2.05444501441855,-1.6392671120432496,-1.427545252084894,-0.311320273414957,0.0043500139211326,0.5949236315458459,0.6321820866351056,1.4127276181880462,5.884160281586507,1.0071611264784937,0.9344535413125236,0.8930248468791078,1.177884847223879,1.7626465866389616,1.640616212108028,1.9913887330445044,0.9374847745567124,Relax
02,102.619444658542,584.8415841584158,34.54409723042921,34.09208119197184,34.26158876418992,0.0590657336381748,0.0582928473546048,579.0,32.6172,0.0563336787564766,50.0,1.0132586812729936,559.0,618.0,12.871287128712872,32.67326732673268,487.0,696.0,7.214285714285714,109.375,0.0387347425485854,0.0105191872040562,0.0051660753178801,0.0544200050705218,3.6822942492789776,0.7117739606674016,0.1932963289956452,-4.554554336629271,24.226601749383512,42.61423091841123,0.5685096557478068,3243.3739765170617,1.7589850759607928,4.21796713775092,299.8311848361293,0.4851485148514851,0.4845360824742268,0.7659574468085106,0.2,49.09428704133769,49.096620769329405,49.09663592642488,51.546391752577314,0.5075154654254175,0.4924845345745823,17.260189495313817,17.002673586554234,0.4821987705951276,0.517801229404872,29.591549337128612,30.66452159411524,0.4883831923476929,0.5116168076523071,24.22368606948433,24.79318246702981,1.134124043976186,2.5824430709221144,1.6704102294917784,2.068821334448069,-0.9717457465729388,-1.2189614463579548,-0.3457231799444742,0.0039366229328826,0.5603884371360711,0.5517139572939129,1.0498221244986776,6.026781408387268,0.9593440627722772,1.1241724414119687,1.087992986270425,1.220135092726163,1.6279777217738671,1.6303078744261992,2.7344296267345998,0.725151745646235,Relax
02,102.0246455942228,588.53,40.64566149024761,42.414858269481485,42.62826329055444,0.0690630239584177,0.0720691524127597,580.5,34.099799999999995,0.058742118863049,53.5,0.9582882779427592,556.8,620.2,18.0,45.0,487.0,700.0,6.25,78.125,0.0399711915716406,0.0041536090283963,0.0034235128369309,0.0475483134369679,9.623243617387994,0.8406437301846287,0.087355549085933,-5.483777677265278,30.14273404295661,49.01671787472168,0.6149480289560854,4641.696518666317,1.6261536795191711,4.373646852161582,318.8348645197272,0.59,0.5979381443298969,0.8448275862068966,0.3684210526315789,50.78152136158391,50.8358433798393,50.7285983631805,52.57731958762887,0.519418538710746,0.4805814612892541,21.725326140667423,20.89734384058981,0.4496186236463751,0.5503813763536249,32.86747745848892,36.36437207935512,0.46877299636767,0.5312270036323299,27.859117631420457,29.656926141439698,1.0172865922748626,1.7528740532089224,1.4225819575080658,1.5618801373658353,0.0407242036088728,-0.1827962265520022,-0.4205315523937607,0.0024295854178202,0.2758126722082991,0.5710081776561924,1.2086131838824383,6.033660689688184,0.968572235777122,1.2198507395686768,1.286840612668846,1.5352803742636585,1.7059772795710135,1.6838004719082658,2.6754421972358045,0.8637013046707142,Relax
02,101.7986421133089,589.6534653465346,34.77856686051464,34.51231664203375,34.68603771146557,0.0589813660131303,0.058529829247677,585.0,26.6868,0.0456184615384615,37.0,1.007714643477645,563.0,608.0,9.9009900990099,34.65346534653465,528.0,700.0,6.3125,39.0625,0.0443218431351689,0.013267831313996,0.0081674631172348,0.0657571375663997,3.340549188955578,0.6740233041685233,0.2017702078439553,-4.322412871725812,24.526732478269626,42.73006889625604,0.5739923457136908,3292.4801084920573,1.7421835107515582,4.224493269814828,297.7744857773412,0.5841584158415841,0.5833333333333334,0.8392857142857143,0.3157894736842105,50.22281639928698,50.24392324715842,50.20318673788081,50.0,0.5016119553354043,0.4983880446645957,17.371025451956637,17.31511280105132,0.4769096064494793,0.5230903935505207,29.50880539702677,30.90451733839556,0.4830313560925156,0.5169686439074843,24.212828430525438,25.048975260799825,1.136327600752981,1.425013331299222,1.4897862235257269,1.475246843714005,0.3459233112460911,0.1587708416646038,-0.510202978100188,0.0010494037268552,0.1635797404475963,0.6148005769682645,1.3581234841531942,5.893021259829574,0.8927761463610147,1.1855994496423334,1.0479756595682612,1.4360006700802812,1.749544876712294,1.6710280092975114,2.486593577719429,0.9229204035497536,Relax
02,102.9960496108959,582.6039603960396,23.177609543661227,17.233687939614086,17.318221851010225,0.0397827874838091,0.0295804510630155,585.0,22.239,0.0380153846153846,30.0,1.344901313338986,565.0,600.0,0.99009900990099,19.8019801980198,527.0,658.0,6.3125,93.75,0.0218830090314684,0.0089269297590725,0.0007173852873592,0.0315273240779003,2.451347733438633,0.6940966184569966,0.2831489833077868,-4.718682755184572,12.245832108942372,30.516493305036928,0.401285691200998,1174.012714614128,2.4919901753962983,3.77664291032897,304.1872060147958,0.5643564356435643,0.5625,0.8333333333333334,0.217391304347826,51.12359550561798,51.11282465316636,51.1327772183319,50.0,0.5181481481481481,0.481851851851852,8.816020770292129,8.501633829904566,0.4836825194767838,0.5163174805232161,21.22339332534796,21.927697995775556,0.4884638502273543,0.5115361497726457,16.250456093055455,16.629818356971267,1.353474673853326,1.3848014777437123,1.5649216937159518,1.92390365703666,-0.5461091081236358,-1.2486939148682152,-0.2407700893664518,0.0011194466622694,0.1523567351252933,0.6866755746541839,1.55814461804655,5.607586394252243,1.025168701936832,1.0100182849459902,1.0121089626340345,1.4916458569812825,1.6789492579225451,1.6723861856673683,2.355810748449571,0.7910746316140745,Relax
02,102.59955983204712,585.4851485148515,50.92045048139032,68.40014619867416,68.74472174412206,0.0869713785406098,0.116826441067171,584.0,20.7564,0.0355417808219178,27.0,0.7444494392378556,565.0,600.0,4.950495049504951,20.792079207920796,522.0,1045.0,5.941176470588236,101.5625,0.0645490216063575,0.1970414834738907,0.0400925041627196,0.301683009242968,0.3275910253432026,0.2139630659622975,0.6531408048744252,-1.6243409964025666,48.60985891605101,53.50638779952852,0.9084870221136352,8171.087593995822,1.100731188953537,4.619249976119045,235.5845994367362,0.6138613861386139,0.6224489795918368,0.8524590163934426,0.217391304347826,50.090497737556575,49.93351186511319,50.27886017552717,52.04081632653062,0.5406875590456934,0.4593124409543067,35.74354501306509,32.9441676449441,0.4783615618958615,0.5216384381041385,37.00699065819535,38.6447432101415,0.506542856414985,0.4934571435850147,36.380752931163805,35.90775932577776,1.0793137804739263,1.3788448751594058,1.364671249245664,0.9329419626175176,0.2275087639964752,0.9176398421814054,-0.8131093964273792,0.0044444983086351,0.1828920134716806,0.6987148348025212,0.7569137989189345,5.534220953319401,0.5919564852031945,0.6447937534029877,0.9495664728613936,0.8883427419111616,0.946039677126122,1.8090168978362764,1.4900420538964478,0.9888432895175931,Relax
02,103.52152720914393,580.7647058823529,60.13980024638438,90.92064868024008,91.3727118742107,0.1035527807341775,0.156553330048018,579.0,22.239,0.0384093264248704,28.5,0.6614537084737567,558.4,595.0,16.666666666666664,32.35294117647059,393.0,1045.0,6.0,218.75,0.0634699950662903,0.1871607260738344,0.0392581860584465,0.2898889071985713,0.3391202652272867,0.2189459254569334,0.6456291407716095,-1.6757875335631658,64.61026418165895,55.804991969472326,1.157786461415557,11327.248792144395,0.8637171303396993,4.761094549438462,192.7989100900104,0.6372549019607843,0.6499999999999999,0.8615384615384616,0.5294117647058824,49.3604213694507,49.48046301716321,49.33671814842636,50.0,0.4753180832244411,0.524681916775559,44.54514563900313,46.80112178142742,0.5425561666784988,0.457443833321501,41.10507093334888,37.74347986443789,0.5040460354250363,0.4959539645749635,42.85963635190832,42.514205110040734,0.6877436028383034,2.1856783883545834,1.3021448745260369,1.3081535595617335,-0.5932983054149403,-0.5941630136159683,-0.4972508832645683,0.0032868727602596,0.3702470697238952,0.7153506603993427,0.7455683109235524,5.809296910429262,0.5881174786393258,0.8022406736173926,1.0893291075691671,1.0515370999341216,0.9693933357567888,1.8798300692861831,1.8912736317097316,1.1120708903285823,Relax
02,101.26035987907149,594.5555555555555,98.09296113862251,129.93774019325798,130.60445018030936,0.1649853579233045,0.2185460029413795,576.0,34.099799999999995,0.0592010416666666,46.0,0.7549227883502335,552.6,618.0,24.24242424242424,42.42424242424242,393.0,1263.0,6.1875,195.3125,0.0580039815467607,0.1030761869012855,0.0160152198221499,0.1770953882701962,0.5627292131237868,0.3275295992364495,0.5820376685587157,-2.272286885526675,92.35129237563734,104.38097108152296,0.8847521863301092,30284.065928246862,1.130259993081148,5.188184292931754,471.91054260962267,0.5555555555555556,0.5670103092783505,0.8181818181818182,0.5294117647058824,50.50434782608697,50.80323500949101,50.26487591003925,46.39175257731959,0.4773911014895318,0.5226088985104682,63.80939723314844,66.76300599188268,0.5262607016253843,0.4737392983746156,75.72195238050342,71.84408849450665,0.5048027724082458,0.4951972275917544,70.01947317558509,69.35009740684819,0.709196557705411,1.7246225179650143,1.4076722898866607,1.072666802062716,0.5874652466876533,0.584994294762345,-0.6942485873484,0.0068138644506027,0.3982528346226172,0.6392562188004316,0.673977264452225,5.997747276514149,0.5611333530573239,0.8475358998145486,1.160048558934054,1.0805033752427466,1.015687012807931,1.8229951596197425,1.8441592650275025,0.7365951800088454,Relax
02,99.83725261141338,602.3367346938776,96.21442375071142,118.08890587486044,118.69399203710552,0.1597352746543177,0.1960513099618208,580.5,45.2193,0.077897157622739,62.5,0.8147625980434644,551.0,637.2,16.3265306122449,41.83673469387755,482.0,1263.0,9.8,140.625,0.0427370863370498,0.0904805780016864,0.0176744651308945,0.1508921294696308,0.4723343647987454,0.2832293936553617,0.599637491496181,-2.40262005902396,83.92932665553938,107.48501254110823,0.7808467866479538,28340.76200488681,1.2806609658891404,5.159381633010442,550.6074399180081,0.5102040816326531,0.5106382978723405,0.7916666666666666,0.2777777777777778,51.46868250539958,51.67579624320348,51.21291059648773,55.319148936170215,0.5132190994955141,0.4867809005044859,60.13063036700458,58.5613549336648,0.4891500222032161,0.5108499777967839,75.17422340172884,76.8235904973802,0.4982675759129598,0.5017324240870401,68.0692903311999,68.30555009871391,0.9070012557993647,1.3456483609700818,1.1979888530325864,0.9655682870479728,1.1925862364213442,1.395962049583247,-0.6727201345655123,0.0137063273011346,0.4531520722744534,0.6672172058811503,0.7633514392331936,6.129916221622074,0.5896905271742994,0.866647502871424,1.0868480627258783,1.1266558596299838,1.1820027665086468,1.7268960476912114,1.699892151142666,0.7424674314823193,Relax
02,99.68894501273736,604.0510204081633,105.5216177049601,134.93320226009962,135.63339226097656,0.1746899088650791,0.2233804723463986,606.5,46.7019,0.0770023083264633,66.5,0.7820285588535486,560.8,637.6,17.346938775510203,43.87755102040816,369.0,1466.0,9.8,250.0,0.0623735215985563,0.1209794011495755,0.0100676773696761,0.193420600117808,0.5155714196455595,0.3224761042027892,0.6254731971459595,-2.1121349863108625,95.90729142307153,115.28693193618145,0.8319008044741986,34736.141912007675,1.202066393759588,5.247751690354608,554.3301860805308,0.5612244897959183,0.5684210526315789,0.7962962962962963,0.238095238095238,50.43273013375296,50.15898180646493,50.67720566634299,58.94736842105262,0.5496207411232585,0.4503792588767413,71.10262536174972,64.36403628321227,0.4268328182990825,0.5731671817009176,75.31976975223341,87.28120622292221,0.47705391041328,0.52294608958672,73.24155599406252,76.68356449199183,0.834289838002582,1.985441763190502,1.4306992604535276,1.1974196350978883,0.0707199292929026,0.4774607526704866,-0.6174950732278196,0.0032243435073292,0.3292126107516684,0.5729115311714734,0.5819215454497209,6.126196548391459,0.5303416031684505,0.8736214011656346,1.0211448993762695,1.03183595319993,1.0152273716995972,1.7914442774980062,1.612765442814416,0.7424674314823193,Relax
02,100.69686926626844,597.9090909090909,71.00274368212548,93.57317337522652,94.05362607662268,0.1187517379509472,0.1565006700817229,605.0,45.9606,0.0759679338842975,62.0,0.7587937987034588,565.6,636.4,25.252525252525253,36.36363636363637,369.0,801.0,9.9,210.9375,0.0521442248433865,0.0814919986052703,0.0363741627474532,0.1700103861961101,0.6398692599989104,0.3067119957202922,0.4793354125510177,-2.5072504401774105,66.5059567939638,75.87910617865012,0.876472590984162,15853.77261631177,1.140936990256744,4.907102734969087,346.2931161073639,0.6060606060606061,0.6210526315789474,0.864406779661017,0.3181818181818182,49.6489054109872,49.76417771212871,49.47870025917731,52.63157894736842,0.4813759057992125,0.5186240942007874,46.142987091560926,47.89496669851172,0.4661867600794513,0.5338132399205486,51.80863785754899,55.43919008982908,0.472785803490805,0.5272141965091952,49.05767123695649,51.804592619128606,0.624002934271468,2.393461326877153,1.5194092630191238,1.4412781739960154,0.1946326287040936,-0.059110988757223,-0.5326435560690881,0.0120157822360672,0.7671534114325752,0.5957009560125597,0.8204089601708725,6.048449801854085,0.6024307382039832,0.7051531644264585,0.9804054298299018,1.1064297871359452,1.3240373355802857,1.8469544850924664,2.8490929734400408,0.8705215763740901,Relax
02,104.72280997162446,584.2254901960785,175.23731613894088,259.88937098025934,261.1805494403069,0.2999480835389903,0.4448442858818689,522.5,110.4537,0.2113946411483253,220.75,0.674276579599908,449.8,747.2000000000003,61.76470588235294,78.43137254901961,324.0,1168.0,12.75,171.875,0.0456100260569889,0.1033278150673035,0.0359057724900217,0.1848436136143142,0.4414109214182107,0.2467492663942213,0.5590012716528167,-2.269848674171505,184.68253762326933,166.43281015782225,1.1096522221077774,96563.8676581063,0.9011832537049368,5.691784762131185,599.9458455251292,0.6666666666666666,0.6831683168316831,0.9130434782608696,0.2,50.442189788942535,50.52112239322207,50.28306180527944,50.495049504950494,0.4914285705909195,0.5085714294090804,129.46858692362406,131.7074029810018,0.5391119269441726,0.4608880730558274,122.20202880089433,112.98913422969086,0.5127980601921771,0.4872019398078228,125.88774929089526,122.7057139133608,0.5098900828865773,4.182011090816358,1.416041444146217,2.2102724070488664,-1.609803862423842,-1.70594896437974,-0.310083965428315,0.0297250458821189,2.0907381691868854,0.6999262609588963,1.116761607173787,6.383113822321232,1.2670426898937688,1.082753681097826,1.0605108438334323,1.0181961608416397,1.2754612649776136,2.0007878160251136,3.882844058933648,1.177486825053793,Stress
02,106.86964295969214,571.0485436893204,191.6378518139315,256.3671731150078,257.6304333843059,0.3355894239320436,0.4489411205897141,491.0,65.2344,0.1328602851323828,127.5,0.7475132228725775,453.0,664.6000000000001,50.48543689320388,68.93203883495146,343.0,1359.0,10.3,125.0,0.0389230761001457,0.1196895406044963,0.0122064609610349,0.170819077665677,0.3252003132735192,0.2278614112196829,0.7006801713257683,-2.122854050315467,182.17222648607185,202.01307847987735,0.901784319396024,115614.29249714222,1.1089126063644092,5.769981635819265,896.0593975072752,0.6504854368932039,0.6666666666666666,0.9117647058823528,0.1111111111111111,50.35860352083459,50.60307094704548,49.95678179813215,48.03921568627451,0.472280376935023,0.527719623064977,125.19493710700814,132.33917944373684,0.5656133523278669,0.4343866476721331,151.9285222060777,133.1428106102408,0.5237536336872732,0.4762463663127267,139.20497142155227,132.74160318648413,0.626242443636641,3.936581898326101,1.7904253950552227,2.238691406190444,-0.5051598021407901,-0.7215194847943127,-0.3861281124810763,0.0410765015179101,2.3156174718173466,0.720545007228035,0.8642416747601168,6.290822007744738,0.8614975077765306,1.2527652476793072,0.9759397465598408,0.9232833404367188,1.223074573286587,1.945692451163588,2.6918069821269315,1.0386796935430245,Stress
02,106.61174870417462,568.0582524271845,149.51777553467554,193.0584590932264,194.0103180103241,0.263208526406966,0.3398567986088245,541.0,63.7518,0.1178406654343807,87.5,0.7744689159798721,485.2,585.2,23.300970873786408,40.77669902912621,343.0,1359.0,11.444444444444445,273.4375,0.0305229111987991,0.1088907599385627,0.0077323024783632,0.1471459736157251,0.280307633228205,0.2074328671643466,0.7400186173148936,-2.217410101692117,137.18601148525877,161.87165632000733,0.8474986579123708,69763.86178037975,1.179942871488768,5.550600622934024,763.9972278834898,0.5922330097087378,0.6,0.85,0.2,50.415070242656434,50.51922729291558,50.04094265659946,48.0,0.4746594944366993,0.5253405055633008,94.51578002253024,99.43371840797086,0.5920411896798495,0.4079588103201503,124.55087184256384,103.39010321611931,0.5429735662151849,0.4570264337848149,110.55802175783106,101.43120279153612,0.8080699061829901,1.97730784393001,1.475687587366869,1.545812895202813,-0.2428653749720091,-0.741043509081645,-0.4645349569359082,0.0073934635951247,0.446442489627506,0.4094639600153313,0.299536571986329,6.271404532016582,0.4395850482449556,0.6395763783604579,0.6124005319181892,0.5766126975283979,0.9195503547396296,1.9090893733668015,2.0281065929773936,0.7790097701572681,Stress
02,105.24774264604488,575.1553398058253,145.65475950446992,191.85817372092703,192.8054699254111,0.2532442097358316,0.3335762713873075,541.0,41.5128,0.0767334565619223,50.5,0.7591793285614006,510.0,581.6,18.446601941747574,40.77669902912621,311.0,1346.0,9.363636363636363,257.8125,0.0444971409562696,0.0548316614811395,0.0088139495913918,0.108142752028801,0.8115227544504618,0.4114666967640973,0.5070303876355627,-2.9034874876153025,136.33405523411713,155.74625327326018,0.875360096110409,66707.06508940572,1.1423870067226256,5.531141943381348,711.6899843404145,0.6019417475728155,0.61,0.8524590163934426,0.3809523809523809,50.15499070055795,49.39461945817341,50.83033801831315,51.0,0.5433288721093598,0.45667112789064,100.4930666048338,92.13114845073562,0.4328541419963158,0.5671458580036843,102.46803233013333,117.29108132781988,0.4807814861060367,0.5192185138939631,101.48535383308472,105.46408458309574,0.6577275614649735,1.845282464889849,1.91462787065938,1.0995757267612,0.6717638185738739,0.6234837265650527,-0.941695057210026,0.0194089491943567,0.6916415685111723,0.4911579780167152,0.4181349608492161,6.276163997993992,0.4082153994906676,0.8769554705941852,0.8223021451622472,0.799961867876318,0.8053845799518392,1.851332058040129,2.001686104884797,0.6491748084643901,Stress
02,103.93120911881932,583.0990099009902,152.14378100668426,199.92851222374463,200.93555804000567,0.2609227222534955,0.3428723232743824,544.0,51.891,0.0953878676470588,69.0,0.760990912773945,508.0,598.0,27.72277227722773,55.44554455445545,311.0,1346.0,11.22222222222222,210.9375,0.0370588235147303,0.075910889813376,0.0273683014399977,0.1403380147681041,0.4881885010943491,0.2640683180246399,0.5409146619240118,-2.5781951290701657,142.08289567159107,162.8499741814812,0.8724772379346702,72690.78623083924,1.146161706599019,5.568449476217066,746.6096173098107,0.5841584158415841,0.595959595959596,0.847457627118644,0.2222222222222222,50.13370413948015,49.43977042935971,50.78277572162132,49.494949494949495,0.5478438213713254,0.4521561786286748,105.16482973951612,95.54025012495724,0.4306560492804833,0.5693439507195165,106.86930130237864,122.87825898038471,0.4813058966754143,0.5186941033245859,106.02049088501714,110.06135998612297,0.868051534307508,1.9474915217632665,1.6157694601686,1.540196255286481,0.0060006892980233,-0.3907972308966565,-0.5388054089260911,0.0095741980252574,0.493733614397442,0.6689504620690334,0.7189648635858861,6.171880636427404,0.570338440056454,1.0848972898952018,1.0115114089630288,0.951081430230438,1.0657223786053556,1.855848512508376,2.113684773234206,0.7910746316140745,Stress
02,104.88023795871514,576.2815533980582,124.51044664225368,171.22809005396695,172.07333995547464,0.2160583588144975,0.2971257522374547,559.0,40.0302,0.0716103756708407,53.5,0.7271613355204218,525.8,593.2,25.24271844660194,48.54368932038835,325.0,1404.0,8.583333333333334,242.1875,0.0659118948472634,0.1231537105529984,0.0164581753098578,0.2055237807101197,0.5352002351475939,0.3207020356453478,0.5992187868843272,-2.094322024516285,121.6742255439342,128.04261357489196,0.9502635267029058,48944.39827216265,1.052339663576969,5.396673103573847,538.9772835716707,0.5825242718446602,0.594059405940594,0.8333333333333334,0.1785714285714285,50.2149721800708,49.99798053673593,50.56910621347272,47.52475247524752,0.5409888635646223,0.4590111364353775,89.49392921498438,82.4348827923598,0.4344009792944683,0.5655990207055317,84.39173743047748,96.29613462935288,0.4849785380485522,0.5150214619514475,86.98025268091398,89.63385366462984,0.8675873100193764,2.1289567081628595,1.3278919244080465,1.6091440049498351,-0.6717513222692943,-0.9970501739834664,-0.3678920621244149,0.0020188300177224,0.3499669480267673,0.7149163505021581,0.8314587963574576,6.191165090205997,0.5903518671596188,0.8175902625574851,1.0085513227919354,0.9626959834798204,1.0068366483074431,1.9032864423928084,1.8712918975943245,0.908844731850146,Stress
02,103.08290031716253,586.6237623762377,136.3682405463346,188.2082357390345,189.1557788883773,0.2324628651146819,0.3208329559932233,563.0,37.065,0.0658348134991119,49.0,0.7245604317518806,534.0,598.0,24.752475247524757,48.51485148514851,325.0,1404.0,7.769230769230769,242.1875,0.0604285599956333,0.1163561074877265,0.0181966314270762,0.1949812989104361,0.5193415395234616,0.3099197735029497,0.5967552177461607,-2.1510998982374123,133.75333395259477,140.11145202980018,0.9546209964632076,58874.62076218461,1.0475361464967958,5.4768982326223785,587.0872421574702,0.6336633663366337,0.6499999999999999,0.8923076923076924,0.3043478260869565,49.71209213051823,49.40229710129335,50.11106478270809,53.0,0.5265213986427772,0.4734786013572226,97.0541346388965,92.03567599885196,0.4610201425818003,0.5389798574181998,95.133523942813,102.86316936649972,0.4922510014301161,0.5077489985698839,96.09862753516,97.59968562625308,0.6642038325701295,2.5229884409668264,1.5029693200051453,1.4477192186171275,-0.3777775571526263,-0.4358287952561622,-0.5218986740053575,0.0082591937209439,0.6452873076579645,0.6557755364538811,0.6692316291633874,6.113463462864134,0.5410681786778854,0.8486290408067355,1.0299652227603275,1.0540429330697594,0.9783706056404629,1.862401598088423,1.9985435223802024,0.7910746316140745,Stress
02,102.4824699827514,587.69,115.1494150127467,148.17874136980444,148.9327586692187,0.1959356378579637,0.2521375918763369,563.5,41.5128,0.0736695652173913,57.0,0.7770980772833829,532.6,605.4,17.0,45.0,492.0,1246.0,9.090909090909092,78.125,0.0603529223406169,0.0969763574929451,0.0215050044481118,0.1788342842816739,0.6223467647256961,0.3374795978468967,0.5422693857750565,-2.3332880673736223,105.31136359582412,125.22520014925982,0.8409758057507613,41430.182211381485,1.1890948504841632,5.324286953306513,595.6185625933341,0.61,0.6262626262626263,0.8870967741935484,0.217391304347826,49.869814268356194,49.96465522092922,49.75989508289025,52.52525252525253,0.4845448184393973,0.5154551815606029,73.30649245963616,75.60855150857269,0.5139697741448563,0.4860302258551437,89.77605640987301,87.30183530667313,0.5017802028547117,0.4982197971452881,81.95603132547168,81.66475221641821,0.758844781868057,2.645797430004927,1.4817317693662604,1.516084520347419,-1.18267647524004,-1.0698060697756775,-0.4870161069053973,0.0057771108084445,0.5214633419725662,0.6695691231988792,0.6412271233815855,6.2487584397314535,0.5328601842067053,0.7927509998317277,0.8818768189439687,0.8592973447924303,1.1640092855744633,1.7732624544409532,1.870311084594632,0.9301398665684616,Stress
02,103.98160092455709,579.6862745098039,104.12482801784444,140.10501718919335,140.80265735003613,0.1796227245606165,0.2416911066381024,561.0,37.065,0.0660695187165775,49.0,0.7431912868419094,530.2,593.6,20.588235294117645,46.07843137254902,327.0,1246.0,8.5,242.1875,0.0153643787875716,0.0045397114058901,0.0024577487120811,0.0223618389055428,3.3844395411648787,0.6870802912261057,0.2030115423452421,-5.394891835933906,99.56251382129642,109.21819155404758,0.9115927704408752,34161.79697245797,1.0969810560436637,5.240510817256763,479.2411484405529,0.6568627450980392,0.6732673267326732,0.9117647058823528,0.2083333333333333,49.54128440366973,49.54070917939104,49.58379141980803,49.50495049504951,0.49135289480175,0.5086471051982501,69.79047212908077,71.00806292245971,0.4636069659419318,0.5363930340580684,74.36523549792402,79.99015636736144,0.4761995886088034,0.5238004113911965,72.11413956590516,75.6325661196119,0.6236732402423769,2.763198244775105,1.2544633809616146,1.5833032123494042,-0.8264998630399152,-0.995656560501856,-0.3809930369601282,0.0047748896934133,0.6539275020406572,0.6672077456661216,0.7434613480723525,6.211449361494497,0.5949973069754696,0.8086861506909825,0.9132248243658162,0.884677221531977,1.0844668951470884,1.949511933317107,1.916037783332645,0.8504071514277396,Stress
02,102.35087895290688,590.16,115.64869478753576,168.78603992252224,169.6450026445933,0.1959615948006232,0.2860004743163248,563.5,30.3933,0.0539366459627329,41.25,0.6851792650661271,537.0,592.8,25.0,47.0,327.0,1142.0,7.142857142857143,273.4375,0.0122620042781478,0.1006371850344169,0.0346469644903617,0.1475461538029266,0.1218436731309049,0.0831062278622723,0.6820725748556977,-2.2962334570649032,119.95713176440168,112.35286720746473,1.0676819804063864,42340.90199740861,0.9366084830048128,5.333730215613173,420.9225940656989,0.68,0.6907216494845361,0.9104477611940298,0.2857142857142857,50.02554931016863,50.251325069518046,49.85590062015171,43.29896907216495,0.4784873265484415,0.5215126734515584,82.97768325500144,86.62804607831657,0.5173151660898404,0.4826848339101597,80.8093782556633,78.05774244539313,0.4966316441735613,0.5033683558264387,81.90070675041277,82.45431924107514,0.451005297005218,1.3382682175994378,1.3368478393948764,0.7162162798169727,0.8431372629029488,0.7072624051303649,-0.9637572284957808,0.0058036708932904,0.2843295296746423,0.6605245303847664,0.630233355149376,6.10120956470982,0.5751285818802356,0.8571306998848502,0.9029834973656976,0.8965846813194768,1.0038344032340605,1.932374310615549,2.3160564586809764,0.9301398665684616,Stress
02,99.05788213760512,609.1134020618557,134.64063869926895,191.0970521314584,192.02710768982408,0.2210436320125429,0.3137298432190011,573.0,32.6172,0.056923560209424,47.0,0.7045668009920305,551.8,611.8,22.68041237113402,47.42268041237113,496.0,1203.0,6.928571428571429,109.375,0.0439126328811596,0.1023775559490696,0.044503798446936,0.1907939872771654,0.4289283180681238,0.2301573205101481,0.5365869093156815,-2.2790877705850834,135.78367001911403,123.17742783509556,1.1023421450307855,52544.65519586981,0.9071593647288816,5.427498656453684,446.9662287352917,0.6494845360824743,0.6595744680851063,0.8870967741935484,0.3529411764705882,46.90860215053763,47.47869076592352,46.39051470238979,45.74468085106383,0.4526555907233175,0.5473444092766827,91.389594017792,100.49469742492046,0.4789826667417285,0.5210173332582716,85.24934087010027,88.91135253320368,0.4645355933041238,0.5354644066958762,88.37281259958684,94.879957893672,0.5731062377595186,2.981614510566521,1.4887287751775835,1.5110213784054118,-0.3008029496785696,-0.1977342807099147,-0.4925233113976252,0.0087339615961787,0.8859533903348304,0.5312231226311952,0.485106397431492,5.902503146395946,0.4940202692718484,1.0591796438952747,0.9003645582229535,0.8424143865334935,0.952493843716188,1.896685951082956,2.253763838862324,0.7484437243717361,Stress
02,101.34506778825568,594.62,104.98732775863472,150.41286614857887,151.17820790801534,0.1765620526699988,0.2529562849358899,572.0,34.8411,0.0609110139860139,51.75,0.6979943301853414,548.8,611.2,13.0,31.0,498.0,1203.0,7.6923076923076925,93.75,0.0289506672939955,0.0588790731227717,0.0345178349865388,0.1223475754033062,0.4916970624457533,0.2366264079902088,0.4812442987013264,-2.8322695464861707,106.8991359793874,104.08074700210496,1.0270788696128923,34953.80573944867,0.9736350630764136,5.250464578216897,405.3466586897388,0.57,0.5729166666666667,0.8,0.238095238095238,50.180780209324446,49.8991981953813,50.4332934387476,54.16666666666666,0.5299152282435009,0.4700847717564992,77.81758497031532,73.29302386270317,0.4515060849513188,0.5484939150486813,69.9362279033495,77.08259157012651,0.4917579354273863,0.5082420645726137,73.98193192922676,75.21167884745597,0.6387858182273707,1.8916756450197507,1.470136233444175,0.9347319054129376,0.6722983990712148,0.9583220659200408,-0.7830317816063266,0.0123341555345913,0.5583935511447833,0.5348489980884921,0.4743609346146913,6.053660689688185,0.446269325562137,0.7111419976106674,0.8384974941640161,0.7808651343583597,0.9733840345398,1.822089711643588,1.8491768615779625,0.9301398665684616,Stress
02,100.69280993393654,598.8979591836735,122.39605224041972,157.3447852434232,158.16186071189475,0.2043687916506701,0.2627238627727027,570.5,45.9606,0.080561963190184,64.5,0.7778843896927669,536.4,620.0,18.367346938775512,34.69387755102041,437.0,1278.0,8.909090909090908,101.5625,0.0194582419519659,0.1042370406421144,0.007357443621354,0.1310527262154344,0.1866730082905316,0.1484764377963337,0.7953824666780429,-2.261087736417794,111.83732423446295,133.22280682597506,0.8394758142316631,46807.47563655318,1.1912195480167085,5.37728532988271,634.790446931021,0.5816326530612245,0.5851063829787234,0.8181818181818182,0.2727272727272727,49.7617534942821,49.24786612728664,50.524895344872,52.12765957446809,0.566453574608177,0.4335464253918231,84.17241110759907,73.63858109034963,0.360057648259502,0.6399423517404981,79.94008389183853,106.57344531334662,0.4453805303807572,0.5546194696192428,82.08353002978383,91.59841666469154,0.5637442241116012,2.760534762856224,1.450332517430393,1.4463055589911211,-0.297551421183428,-0.2475189984726333,-0.5014587602711822,0.00940391469602,0.7958119309429865,0.5201666627423513,0.4317278476552315,6.129916221622074,0.4623071513281738,0.5386526400803395,0.751167258987292,0.7841736043717481,0.9670383656679914,1.832271898527796,1.936563919467519,0.7424674314823193,Stress
03,105.4953000885403,571.1826923076923,78.21414025846238,122.87877837428756,123.4796465438878,0.1369336664289697,0.2151304302968858,562.5,24.4629,0.0434895999999999,34.75,0.6365146308683414,543.2,591.0,32.69230769230769,42.30769230769231,367.0,1148.0,7.428571428571429,242.1875,0.0455269081924475,0.1242290900653928,0.037492064566065,0.2072480628239054,0.3664754218877616,0.2196735041674715,0.599422201455981,-2.0856279173797474,87.3132954097011,68.61965223154144,1.2724240442822736,18822.563251284384,0.785901527477078,4.981648875178803,215.7131580148572,0.6538461538461539,0.6633663366336634,0.8955223880597015,0.28,50.04053834927842,50.34528189000044,49.71798389922837,51.48514851485149,0.4708590505376419,0.529140949462358,59.91366337342033,63.513507904023925,0.5389245537400068,0.4610754462599934,50.37470293585909,46.5944843999978,0.4968475425955914,0.5031524574044086,55.35005760927255,55.70014211281757,0.4735002644542798,3.484847568392559,1.5453995405323628,1.6085013471756842,-0.2402251754360893,-0.0164056025410029,-0.4818925202882179,0.0157037856385766,1.3749474782491928,0.5910243359228633,0.6603573577369541,6.125685511306309,0.6256074200610132,0.8330940476332321,1.0205008254606478,1.0650882965466144,0.9221409057115888,1.9119090481665133,1.9924667412705488,1.0308368797140142,Relax
03,106.0789437743431,566.75,67.57286610030471,101.26611102791716,101.7530296381796,0.119228700662205,0.1786786255455089,554.0,20.7564,0.0374664259927797,28.25,0.6672801533938253,541.6,579.0,13.461538461538462,23.07692307692308,449.0,1148.0,4.16,125.0,0.042703988738607,0.1259194198305571,0.0303658222059612,0.1989892307751254,0.339137432463328,0.2146045219244358,0.6327951484613592,-2.072113101768408,71.95025726343255,62.59134425305571,1.1495240775232265,14148.047286445728,0.8699252321487759,4.857666612631797,217.79915871937376,0.5673076923076923,0.5656565656565656,0.8214285714285714,0.1153846153846153,48.15840487399613,48.270989707567615,48.09697098231186,50.505050505050505,0.4714285579035963,0.5285714420964035,49.40553473797341,52.31419032923974,0.5066131776992259,0.4933868223007739,44.55049357460448,43.965098631342286,0.4865837565852473,0.5134162434147528,47.04069164290621,48.32030839857904,0.3678819408980369,3.0689221235990494,1.3166830693150413,1.3334070812311662,-0.8102297555090647,-0.6989094082535703,-0.4945505258059425,0.0082422191372481,0.8470765400700127,0.6099777420969019,0.576915735594981,5.71346661319788,0.4844769749969512,0.5653376582937583,0.8742195602824497,0.8568723926629375,0.6699423620810147,1.8616071831055847,1.7855261820607913,1.0308368797140142,Relax
03,109.16308861691678,550.0,22.367850918605956,28.111972873989554,28.230243192855475,0.0406688198520108,0.0511126779527082,549.0,14.826,0.0270054644808743,20.0,0.795669909716713,535.0,560.8,4.672897196261682,17.75700934579439,486.0,647.0,3.566666666666667,70.3125,0.0552709495078438,0.0666257521429707,0.0629390050782084,0.184835706729023,0.8295733666051391,0.2990274470553103,0.3604593145016451,-2.708664107359539,19.96179639621348,22.8305410114415,0.8743461833081243,1431.7450731726742,1.143711746091759,3.862835807284017,104.44623169766108,0.5700934579439252,0.5769230769230769,0.8333333333333334,0.1666666666666666,52.937649880095925,52.68544838429457,53.20713649795668,47.11538461538461,0.5890533603915484,0.4109466396084517,15.328933116045308,12.803459353962564,0.4916440566377608,0.5083559433622393,16.008166758671518,16.277966700472035,0.533873613200712,0.4661263867992879,15.672230113318689,14.644124612455466,0.8494453742822868,2.3861228189147425,1.242186013493738,1.2208966106107386,-0.6462325745700284,0.1996010027403436,-0.5089221739611384,0.0012950924481175,0.3135733909465329,0.730977439881674,1.504077396776274,5.508847216196187,1.036701631191297,1.1905006283405133,1.285171889002852,1.537669831108463,1.6059117985404143,1.8019578639948108,2.5496844331112865,1.0710741941011168,Relax
03,108.57328916677574,552.9719626168225,30.543028091198185,41.67314415059448,41.86980311987858,0.055234315943723,0.0753621285849379,549.0,19.2738,0.0351071038251366,26.0,0.7329187349249356,535.2,573.8,13.084112149532707,27.102803738317757,442.0,649.0,5.095238095238095,117.1875,0.0480191310767444,0.0477995638711824,0.0399166878026389,0.1357353827505658,1.0045934980945366,0.3537701821269903,0.3521525699678568,-3.0407387635601903,29.60642171301181,30.85457368010668,0.95954726258624,2869.824532000198,1.0421581499849513,4.1648254536944975,128.6213817001374,0.5887850467289719,0.5961538461538461,0.8225806451612904,0.28,49.30027988804477,49.27321585283453,49.324705605906594,56.730769230769226,0.5701224977591874,0.4298775022408127,22.35546167420093,19.41207282668627,0.3727115043778978,0.6272884956221023,18.83674892970898,24.43729949769899,0.4673464934389478,0.5326535065610521,20.67111241452137,22.068191794626163,0.7263394253990244,2.301143907866118,1.3144536757928125,1.3550067525325185,-0.4905781830495286,-0.4408561515437568,-0.4823769923293013,0.0023856730626864,0.3978834373747331,0.6950758289593915,1.199964782928397,5.76115060332095,0.9055782354769908,1.2485793457655927,1.196437645145738,1.4782582078998625,1.5295295764422552,1.7916268323801825,2.3013657194835395,1.0080698297422277,Relax
03,106.30630935927756,564.8653846153846,49.34818982177144,58.72372372521467,59.0093917868654,0.0873627437010899,0.1039605635689634,555.0,21.4977,0.0387345945945945,31.0,0.8403450375981932,541.0,583.2,24.03846153846154,34.61538461538461,442.0,797.0,6.117647058823529,156.25,0.0296130866617482,0.0386607312144626,0.0157206573250542,0.083994475201265,0.7659732687795155,0.3525599343384218,0.4602770732458886,-3.2529308914009265,41.72594108618629,56.25718813136455,0.7416997271309266,7374.52469914317,1.3482545070742322,4.5747041444843575,303.39602981374105,0.5673076923076923,0.5656565656565656,0.8214285714285714,0.391304347826087,50.59147180192573,50.45464632339808,50.70949058696912,59.59595959595959,0.6030608711320324,0.3969391288679676,32.4039304079359,26.28930297631324,0.4784762303005807,0.5215237696994192,38.91420883215705,40.627030009773215,0.5226912688141979,0.4773087311858019,35.80733412944255,34.21756141512283,0.6930901071747122,2.983740901346134,1.3323830271382484,1.966292665296541,-1.8540898073394505,-2.4167540222369746,-0.2875453468924529,0.0053905939072598,0.762426313344021,0.663201338502565,0.907446707077702,5.791752280987073,0.717755200599464,0.8077006993946034,1.2200161688995086,1.392369129284906,1.236166327432474,1.7988478418428642,2.4124618943423166,0.9019822697497624,Relax
03,105.47442795185928,569.3173076923077,45.848900088039706,51.18432329782539,51.434458505918656,0.0805331218084434,0.089904737843467,561.5,23.7216,0.042246838824577,33.25,0.8957605988313934,543.0,585.8,16.346153846153847,31.73076923076923,454.0,797.0,6.5,109.375,0.0486262056708538,0.0236663519623249,0.0018796229720635,0.0741721806052423,2.054655730138004,0.6555854941039316,0.3190731588205768,-3.743700988063892,36.36965439619318,54.04011384550887,0.6730121720351587,6174.549862888226,1.4858572274793258,4.4975754121057285,321.18357492461973,0.5673076923076923,0.5656565656565656,0.8035714285714286,0.2272727272727272,49.77913693510024,49.605444008828464,49.9495616336043,58.58585858585859,0.6433926394236649,0.3566073605763351,29.172828480773465,21.71879099657578,0.4539445515041292,0.5460554484958706,36.40974683366122,39.93324730026669,0.5130038918944194,0.4869961081055808,32.99032878026476,32.143196187507534,1.037538110858675,1.4261279739320962,1.3756041087012831,1.5560071577127617,-0.4344662328135307,-1.0593312643577408,-0.373501500349878,0.0009159323386752,0.1425145424925706,0.7221617835994243,1.1295745142720766,5.802515891359802,0.7308087402344904,1.0046201030865385,1.0696204054145475,1.4036050625702627,1.359377284088109,1.7370664501490836,2.222227012459207,0.7731276597855106,Relax
03,106.59544605945386,563.8952380952381,39.73129066460663,45.61618724160908,45.82902337895233,0.070458638379025,0.0808947906630571,556.0,19.2738,0.034665107913669,29.0,0.8709910465372146,542.0,580.2,11.428571428571429,27.61904761904762,452.0,709.0,5.833333333333333,140.625,0.0452658407436339,0.0165094263236133,0.0039644412429784,0.0657397083102257,2.741817907923937,0.6885616305144584,0.2511332457653348,-4.103823768860744,32.40601320641401,44.9936800598966,0.7202347788239236,4580.64877502515,1.388436145270445,4.367897103131411,249.88340681557804,0.6476190476190476,0.6534653465346535,0.8787878787878788,0.238095238095238,51.74578265986661,51.39139300052161,52.113690959737326,55.44554455445545,0.7052405883358671,0.2947594116641327,27.218907620234045,17.59688851578293,0.3758175886343929,0.624182411365607,27.582909001353,35.5473539993544,0.4883609415848012,0.511639058415199,27.4015127412316,28.04696830133616,1.06592721284296,1.0216932505258418,1.2503654771323638,1.2122358601186654,-0.0587369702860627,-0.2843765532794586,-0.5373200243752947,0.0005729151836562,0.0547767889377812,0.7418060361948182,1.2546659186414542,5.786778108282751,0.7821220071642017,0.9692934393991074,1.2470940082548991,1.4917412716400027,1.4875843267061657,1.6845144573190658,2.79656755739419,0.8312875402824722,Relax
03,106.8438822985485,562.0571428571428,39.26312337477569,47.907262176321126,48.13832814964152,0.0698561060449953,0.0852355721925192,556.0,22.239,0.0399982014388489,32.0,0.8195651680170959,541.0,582.4,15.23809523809524,29.52380952380953,452.0,690.0,6.176470588235294,140.625,0.0391335486223764,0.0275196749948657,0.0207172478429473,0.0873704714601896,1.4220207407855443,0.4479035991033616,0.3149768398286042,-3.5928540757663163,34.03893826959479,43.82482984966119,0.7767044021930857,4686.47297076655,1.2874910933637325,4.37781622653782,225.69631239847925,0.580952380952381,0.5922330097087378,0.8524590163934426,0.16,49.46717084908903,49.378078276460286,49.55948332196154,49.51456310679612,0.5364299449916421,0.4635700550083581,24.931070021705537,23.17619300769859,0.4665908118604214,0.5334091881395788,29.935624998177268,32.00740644476304,0.4928701405808885,0.5071298594191116,27.547231226192952,27.942888090266862,0.8780263694909525,1.2040714831512247,1.318971206511999,1.046777291287019,-0.0080785630827318,-0.1145872010520556,-0.726061258848694,0.0017400021724965,0.1109397797578264,0.7308931784965482,1.339377441332139,5.824873346377989,0.8616078501165091,1.020412283896483,1.2770519513133212,1.3069002084469183,1.559624909967719,1.7537367696203432,2.754506944269368,0.7033971494697843,Relax
03,107.50873647978564,558.3490566037735,33.81773061373918,43.51617105004923,43.7098009981366,0.0605673641134806,0.0779372160396252,556.0,19.2738,0.034665107913669,26.5,0.7771301977567009,543.0,576.0,15.09433962264151,25.471698113207548,468.0,677.0,4.24,109.375,0.0450494583825124,0.0210395037531771,0.0204568339777244,0.086545796113414,2.141184455251691,0.5205274017408928,0.2431025503030313,-3.861353477266391,30.90749669009691,35.18744546967453,0.878367164127723,3416.657482510553,1.138476073377659,4.240571553228921,160.24025900202224,0.5849056603773585,0.5922330097087378,0.8360655737704918,0.1481481481481481,47.722095671981776,47.93279816272316,47.5001136004491,45.63106796116505,0.4295190963316133,0.5704809036683867,20.26305372232542,23.352544746854598,0.5483579946800808,0.4516420053199192,26.056724967128137,23.64748195197027,0.4965816139224362,0.5034183860775636,23.34035413362879,23.500476046482607,0.528691884888884,2.1285173710937486,1.2146506596226598,1.0140068625258116,0.2753064973710746,0.4547221422747582,-0.59426458051115,0.0043625197222042,0.4455169167826013,0.6698263611083966,0.9873866535578852,5.765287435531994,0.8548969264115561,0.90600748870559,1.2510697937587671,1.4723780977226448,1.4418786496776537,1.8164831172642897,2.247197590289537,1.0790061106374942,Relax
03,109.5482579178284,548.0370370370371,28.38155446992741,39.68756485019354,39.8740478654451,0.0517876576798026,0.0724176691866747,548.5,18.5325,0.0337876025524156,24.25,0.7151246133910634,529.4,562.6,12.037037037037036,24.074074074074076,473.0,650.0,4.695652173913044,93.75,0.0208950613885967,0.0818921205069949,0.0338948297438848,0.1366820116394765,0.2551535026719933,0.152873528403366,0.5991433658658768,-2.5023525014572683,28.195209639013207,28.80727831775994,0.9787529848535051,2551.6871657252423,1.0217082506774422,4.113797539208713,117.73053574726688,0.6481481481481481,0.6470588235294118,0.8636363636363636,0.2083333333333333,49.66159052453468,49.68907348041439,49.635975850216205,50.0,0.4563654056106708,0.5436345943893294,19.047359050336947,20.788921214988974,0.5456612776692197,0.4543387223307802,21.27961647293145,19.41744594023186,0.5019717357590834,0.4980282642409166,20.19435520173284,20.11487574066573,0.5766975461930072,2.832481832001756,1.184259270229484,1.4063027238158865,-1.012487730656014,-0.7182834222872847,-0.4216081631741726,0.0028727161049635,0.5777955711561789,0.7129755761081027,1.1430640512389434,5.811244881809441,0.9093948178461234,1.28014629420696,1.157101903766446,1.5503236825016615,1.5490851676596076,1.850515343470342,3.158534449622395,1.000724074394588,Relax
03,111.59950610960118,537.8909090909091,32.09714196157894,44.28380116782614,44.48823085194231,0.0596722149772458,0.0823285919493793,535.0,14.826,0.0277121495327102,21.0,0.7248054845142501,521.8,548.2,13.636363636363637,27.27272727272727,431.0,681.0,4.074074074074074,109.375,0.0455352841587456,0.0972670358192657,0.0554264573667641,0.1982287773447755,0.4681471351029533,0.2297107653524339,0.4906807029843657,-2.3302951363055784,31.457929718400983,33.00479145396118,0.9531322069488628,3261.797559531985,1.0491723946682792,4.220427113414541,138.51086434111843,0.7090909090909091,0.7142857142857143,0.92,0.3181818181818182,49.79667282809611,49.80850655754938,49.78547282704924,52.38095238095239,0.4856915627704615,0.5143084372295385,21.923583614877348,22.56020751152265,0.5035208120126552,0.4964791879873445,23.41993610643973,23.255598287073813,0.4950337526972039,0.5049662473027962,22.6841015443442,22.91054140186034,0.4437938597335245,2.335615815894529,1.1267243462523635,1.0707026341795922,-0.3449797900430376,-0.2083056412428751,-0.5239858420599518,0.004023257547477,0.4620418082055798,0.759186154904643,1.095549499137564,5.578833068298884,0.8859817522088489,1.3198427981073446,1.1405460605235969,1.346791703206382,1.4594508422277224,1.9091833580376896,2.7577580346604886,1.1713257686997138,Relax
03,109.1537645745578,550.3457943925233,55.894965987216096,63.04745143204023,63.34583127264684,0.1015633562693314,0.1145597042340126,538.0,20.7564,0.0385806691449814,36.5,0.886553932278549,524.2,573.6000000000001,18.69158878504673,31.77570093457944,437.0,799.0,5.35,117.1875,0.034295084532031,0.01013248455428,0.0122534146354608,0.0566809837217719,3.3846668453636752,0.6050545047060977,0.1787633856888759,-4.592008723837015,44.79226685278744,65.51468358009659,0.6836981330761608,9219.16445913094,1.4626338022903518,4.671661672313469,383.29596300242383,0.616822429906542,0.625,0.8461538461538461,0.3043478260869565,50.54914881933003,50.42264357993827,50.65734512792146,54.80769230769232,0.5895150801712601,0.4104849198287401,34.39206719164007,28.698514977342672,0.4106927229306648,0.5893072770693351,41.985289455655895,50.29323248633924,0.4676566503354675,0.5323433496645326,38.376938494293,40.94517062993956,0.8853608667547914,2.1668626407926066,1.4125094672325984,1.8243888780362787,-0.4754971355592197,-1.1866905173295874,-0.3099190031477857,0.0053381733758635,0.5085934280049866,0.5388806623431015,0.6230015711931858,5.950539972540488,0.6278302495289706,0.8030360382191409,1.0053950551724464,0.9505442540634544,1.162922276095885,1.7413357457877587,2.30865733520558,0.7560523723066708,Relax
03,107.44384771462914,559.4666666666667,47.79182957743901,59.68354044458154,59.97171896966312,0.0854239089205892,0.1066793501750146,552.0,19.2738,0.034916304347826,24.0,0.8007539301696681,535.8,582.2,20.0,31.428571428571427,437.0,799.0,4.2,125.0,0.0276807495734385,0.0345965930332147,0.0211972420819323,0.0834745846885857,0.8001004476615189,0.3316069157661061,0.4144566057115766,-3.364000069014804,42.4064091628627,51.15230036213,0.8290225241611575,6814.69685024378,1.2062398437386792,4.540416651101725,246.8077711827587,0.5904761904761905,0.5980392156862745,0.8360655737704918,0.28,49.51370468611848,49.41338915995348,49.60840292261329,57.84313725490197,0.6164211617417218,0.3835788382582781,33.29479973389821,26.264247173898784,0.2893720096057766,0.7106279903942235,27.51651500814112,43.12075178083412,0.4225910284188937,0.577408971581106,30.542611934096627,35.70161000400373,0.7771971291148682,1.391280887426379,0.7042209629137917,1.2744850681860052,0.3087822739693919,-0.2945127167465029,-0.0901157628010688,0.0027105011118488,0.2106406640386864,0.5092511738331411,0.6852420010528325,5.858299774990626,0.6619138979009996,0.6538042915902211,0.9058379879981892,0.858071992470545,1.1482973944685784,1.8266409962167809,2.337162864891646,0.7673423448761283,Relax
03,108.0388686959192,557.9528301886793,89.43669025261568,127.98697850432544,128.60080565889632,0.1602943571813614,0.2293867359021101,542.5,43.7367,0.0806206451612903,63.25,0.6987952313413905,511.0,599.0,49.0566037735849,67.9245283018868,418.0,1178.0,8.833333333333334,125.0,0.0553237215266547,0.1062446256394765,0.0388371508022876,0.2004054979684188,0.5207201888440606,0.2760589010156447,0.5301482579895048,-2.242011054673626,90.9345017474589,88.34650551453655,1.029293702312838,25238.755718240125,0.9715399965558764,5.109038050152642,343.32865465326614,0.6320754716981132,0.6442307692307692,0.8805970149253731,0.2592592592592592,50.0472925041381,50.03194626025329,50.08987763588715,48.07692307692308,0.5078268807014076,0.4921731192985924,64.80173163640708,63.795157460301134,0.5156281221406965,0.4843718778593033,63.439196504593575,61.486367460450914,0.5116149100131969,0.4883850899868033,64.12408313662411,62.65139862312019,0.4926422786332243,2.821743110180424,1.0769551030769535,1.378849799776149,-0.6257566733091622,-0.4707561178638597,-0.3930112753319021,0.0072416531862363,0.7203741662639958,0.8681326319168345,1.4343035803062512,6.310329298841593,1.1771753941185104,1.2943685223965915,1.152482908014152,1.2907340113291732,1.3978526491016725,1.9933705340399224,2.397943429012263,1.1424770583220525,Stress
03,107.10904837893916,562.9047619047619,99.8357809113704,145.95415507828267,146.66091316481044,0.1773582098924607,0.2592874762409217,548.0,34.099799999999995,0.0622259124087591,46.0,0.68402150564212,518.8,599.0,51.42857142857142,61.90476190476191,418.0,1178.0,9.545454545454543,164.0625,0.0251105325507336,0.0826177237329259,0.0412983820998759,0.1490266383835354,0.3039363881763088,0.1684969400310101,0.5543822542671911,-2.4935310484348627,103.70492623384888,96.79956174022342,1.0713367330335344,31537.16502522492,0.9334133416376554,5.205792760614842,361.41600957201,0.6285714285714286,0.6407766990291263,0.8484848484848485,0.3636363636363636,49.93340732519423,49.79580750153716,50.09502343533321,50.48543689320388,0.5295381751608687,0.4704618248391312,75.46544891924069,71.13145904604669,0.4640314592487597,0.5359685407512401,65.93972072339984,70.86683557221501,0.4990382026454849,0.5009617973545151,70.86282787774734,70.99927059498138,0.2378131243859946,1.982226254839207,1.5907012121503694,0.7270494083996119,0.7895765013208997,0.7819609680541874,-0.9356978935388054,0.0080364309220934,0.5150707923250839,0.7812601440431441,0.9075570519054004,6.137775755637735,1.0152471626172774,0.6262185112578694,1.0788152576840702,1.0586462374600325,1.199720751922074,2.052011642235604,2.3599307102665805,1.0870683219078483,Stress
03,108.55574300907014,555.4766355140187,77.83137866923968,114.34852384556775,114.88247676693004,0.1401163859884354,0.2058565861006082,548.0,40.0302,0.0730478102189781,55.0,0.6806504889766138,508.4,584.6,46.728971962616825,64.48598130841121,443.0,1106.0,7.133333333333334,109.375,0.0267852350223657,0.1593921408921077,0.065222256679519,0.2513996325939925,0.1680461462682571,0.106544447762275,0.6340189889995748,-1.83638781815703,81.23417836140224,74.26187605629028,1.0938880442479932,18951.9796489319,0.9141703351255314,4.984624691321428,271.5520164857182,0.6542056074766355,0.6698113207547169,0.8732394366197183,0.3043478260869565,51.0187880391638,50.87461507281645,51.1247286334677,54.71698113207547,0.5642909296600607,0.4357090703399394,61.02747234608673,53.6255980097636,0.4073263482626807,0.5926736517373196,47.39550645123053,57.17072855606429,0.4928389507600901,0.50716104923991,54.63829432147848,55.42651425778075,0.4984331971008959,1.7123729601325013,1.013663326746347,0.9184747487117176,0.6133819461446315,0.6685044382383984,-0.5555886948993074,0.0045519052247694,0.326437903614461,0.7132401526345706,1.170524870258396,6.250538715251797,1.1005846698398645,0.917347003076146,1.203300649096113,1.2624639582790458,1.3984519595779838,2.007202570974881,2.1643106807733967,1.0710741941011168,Stress
03,108.82769716922074,552.8224299065421,58.37497736803928,83.50788009365253,83.9016623720118,0.1055944444546287,0.1510573297609687,544.0,48.9258,0.0899371323529411,63.0,0.6990355557172907,510.2,599.8,46.728971962616825,73.83177570093457,426.0,709.0,10.7,156.25,0.0476473168903297,0.0609480079511128,0.0320830482528296,0.1406783730942723,0.7817698804618562,0.3386968148856829,0.4332436223887093,-2.797734106917715,59.327434416073736,57.73067561926955,1.0276587581848984,10759.995275862258,0.9730856590627898,4.738782190616752,224.70757013246816,0.7009345794392523,0.7169811320754718,0.9078947368421052,0.3478260869565217,49.443943492636,49.29164246054128,49.58805854008844,55.66037735849056,0.5753208206732162,0.4246791793267838,45.001375640349146,38.66350561791657,0.3972752570063421,0.602724742993658,36.387515102281824,44.81941155502305,0.4887293681452719,0.511270631854728,40.92172445561524,41.85478657695676,0.4783949902518823,2.4514520356841003,0.998245949827695,1.3539307091244333,-0.6690719612560923,-0.8836280590610173,-0.3549085382380401,0.004783638606851,0.5454819688320849,0.6247707487543028,1.955388893009857,6.294976916206596,1.416231305776117,1.42769234640601,1.2627247047343515,1.3365155072158228,1.743891948500362,1.954081947282189,4.626610743553867,1.0710741941011168,Stress
03,106.69625311417856,563.8173076923077,61.22388714978533,87.89197915623473,88.32176649877597,0.1085881655537915,0.1558873378966934,551.5,42.9954,0.0779608340888485,70.25,0.6965810502566473,522.0,610.0,49.03846153846153,69.23076923076923,426.0,758.0,8.666666666666666,125.0,0.0418638135616991,0.0712685608675872,0.02706355369719,0.1401959281264764,0.5874092734870804,0.2986093399512439,0.508349720423356,-2.6412999903537644,62.45292001765932,60.57247045202099,1.0310446239290805,11884.417721879532,0.969890125792251,4.781948018249844,234.99456394503216,0.625,0.6407766990291263,0.8787878787878788,0.2692307692307692,49.97782049386365,49.81215012002265,50.1379502139574,53.398058252427184,0.582172369371917,0.417827630628083,47.65171848432965,40.36931226252213,0.3936624629869867,0.6063375370130133,38.00469831669701,47.16637661001534,0.4907981321579012,0.5092018678420989,43.098975444045976,43.89959256682698,0.5315826932723635,2.406171095002344,0.9256432968115188,1.5675971681888747,-1.2533262213391847,-1.9051077522090325,-0.233205226880705,0.0057035966089252,0.5636093837893643,0.7359218759504733,2.072061434382214,6.197894886347915,1.417534153871921,1.2548810191352928,1.3931504060561477,1.6260128241490486,1.6360959942985955,1.9627216238331284,4.1799053173490215,1.159691489678266,Stress
03,107.14633724288154,561.2952380952381,60.527476883440784,87.16281184789055,87.58425741607176,0.1078353650190254,0.1552887071404321,548.0,42.9954,0.0784587591240875,54.0,0.6944185897658788,516.2,595.4,49.523809523809526,63.8095238095238,463.0,758.0,9.545454545454543,132.8125,0.0392287228490626,0.0774742371677039,0.0267201271796329,0.1434230871963995,0.5063453901991515,0.2735174902165085,0.5401796787543203,-2.5578098215303524,61.931422344092496,59.63749051107491,1.038464593552802,11603.26704477729,0.962960129992293,4.771550397443136,229.7141024598353,0.6,0.6153846153846154,0.890625,0.2857142857142857,50.25952839982203,50.12788434575013,50.39297550229317,54.80769230769232,0.5855946843853821,0.4144053156146179,47.39285309275909,39.86822955882716,0.3710016804503753,0.6289983195496248,36.325140172679326,47.298144423367695,0.4823467799648776,0.5176532200351225,42.223206491434574,43.741228801035575,0.4429536880387691,2.821092960047713,1.0095376715505808,1.4719160430836484,-1.0163663737834092,-1.1259631450018035,-0.3360995620912658,0.0068147625847385,0.7290716640773716,0.6807723185793062,1.4685324593568627,6.1974392080805005,1.306244564224465,1.306836545012391,1.2573292800136626,1.467153512903704,1.794886283412815,1.963642683704059,3.8446051996986377,1.0870683219078483,Stress
03,106.693662474019,563.9238095238095,58.0672182173542,80.18086526002419,80.55628972364808,0.1029699708306118,0.1421838622627599,558.0,47.4432,0.0850236559139785,63.0,0.7242029383075864,518.6,604.4,51.42857142857142,66.66666666666666,457.0,743.0,8.75,101.5625,0.0353946216816438,0.1073368397135139,0.0308831968905708,0.1736146582857287,0.3297527836306105,0.2038688554937147,0.6182475648851196,-2.231783354501102,56.96189873081974,58.78409463071961,0.9690018888383524,10519.477373079744,1.0319897324439775,4.728964273769463,242.65832835967112,0.6095238095238096,0.625,0.8769230769230769,0.2333333333333333,51.155576237009456,51.06942673151913,51.23613897198459,53.84615384615385,0.5913286161052808,0.4086713838947193,43.80949491446111,36.42008141255435,0.3837462349285196,0.6162537650714802,36.41513275005164,46.14659129718591,0.4842868090291979,0.515713190970802,40.28233941731834,41.56879970871544,0.6228920836940318,2.0983360281965133,1.0569094949578643,1.4342949840274128,-0.4163393612821897,-0.9045239950301984,-0.3201501170458836,0.0048253880812485,0.4405665460979979,0.576061957371873,1.9459101490553128,6.357009565243964,1.4784052348038978,1.445231963050955,1.183272886408072,1.475884673151641,1.8684008952895343,1.9753921300839097,3.283916136110307,1.0231231265015044,Stress
03,107.97274731383678,557.3867924528302,54.04840348370584,76.90724159351842,77.2638159344156,0.0969674994376185,0.1379782273905007,547.0,40.0302,0.073181352833638,53.5,0.7027739178238961,519.0,597.0,45.28301886792453,67.9245283018868,456.0,723.0,7.571428571428571,85.9375,0.0175522522044352,0.0659143696989768,0.0216821830769466,0.1051488049803587,0.2662887058557075,0.1669277383391459,0.6268675113453677,-2.719398808148548,54.63376818757449,52.94543894892652,1.031888095975115,9087.398675562496,0.969097331290578,4.665409691475167,205.23713435765168,0.6886792452830188,0.701923076923077,0.9452054794520548,0.2592592592592592,51.180714988520826,51.03557680180576,51.3174487804799,54.80769230769232,0.5993066536134201,0.4006933463865801,42.3014025044815,34.58886270285456,0.3788536527011097,0.6211463472988902,32.588494119544585,41.72780315946328,0.4925565628762435,0.5074434371237563,37.75856593427342,38.32491995811496,0.5643339978377621,1.681043342551564,0.9373772611373952,1.12186692882107,-0.2116658267516129,-0.549820365739836,-0.3902528786654317,0.0019169963384573,0.2355367517565778,0.5213025070842656,1.6441234704219905,6.055427883665613,1.331961297574173,1.1492512939789985,1.295508023833474,1.503702373546967,1.985328595134113,1.9793093226788745,3.555675346301809,1.205948006006611,Stress
03,108.10808654441357,556.5943396226415,53.42084100207776,77.44687887590466,77.81621063353468,0.0959780529537829,0.1391442085602449,551.5,41.5128,0.0752725294650951,54.75,0.6897739686537335,516.0,603.0,39.62264150943396,61.32075471698113,423.0,695.0,10.6,156.25,0.0224558219223871,0.0403382738048287,0.0306174540705204,0.0934115497977363,0.5566877261787807,0.2403966315836819,0.4318338994714575,-3.210454538526108,55.024370225213104,51.91949953759601,1.0598016297396855,8975.020533339446,0.9435728082864202,4.660005560806111,195.95931193405983,0.660377358490566,0.6699029126213593,0.9565217391304348,0.1666666666666666,50.51903114186852,50.44820284980784,50.58448837583542,51.45631067961165,0.5366406686652101,0.4633593313347898,40.309619008561526,37.45638489270914,0.4581037407732572,0.5418962592267428,35.14086249886005,38.21981443009168,0.4996514898179316,0.5003485101820683,37.81365891962304,37.84002500198311,0.3489975285645766,2.6317627497762004,0.9488361403736622,1.2459035091162871,-0.9238257878928096,-0.9574662638992704,-0.3871222838122901,0.004636890982371,0.5814462226346804,0.5640222469260192,1.7147984280919266,6.190000171462691,1.1170720154529874,1.172993957841183,1.3975595973311346,1.9045104884342483,1.801707237218941,1.951628937965161,5.104245034224388,1.1424770583220525,Stress
03,106.29820366819936,566.1826923076923,63.27943337156818,95.96581106416951,96.43464017074976,0.1117650437417096,0.1694961933100153,564.5,70.42349999999999,0.1247537643932683,83.5,0.6593955979724392,509.0,619.4,62.5,76.92307692307693,423.0,757.0,14.857142857142858,132.8125,0.0137056174274609,0.0833444198276633,0.0466527490631726,0.143702786318297,0.1644455316360826,0.0953747507518989,0.5799777580029535,-2.484773620704801,68.1895880060218,58.50702649467026,1.1654939943364506,12533.603903918356,0.8580052791857832,4.805046075651998,200.79735040755835,0.6346153846153846,0.6470588235294118,0.9242424242424242,0.1379310344827586,49.81245311327831,49.77378195054699,49.849522166934015,48.03921568627451,0.5164921587396634,0.4835078412603367,49.00630211573633,47.41566300326524,0.4850550630588732,0.5149449369411268,40.74774198907941,41.984445596428486,0.5031622547968575,0.4968377452031425,45.06659585695046,44.78246738445013,0.4392186267467114,2.848282021366656,0.9059644311125452,1.7341552097845283,-1.4102320223130196,-2.147138455753141,-0.2092314691946823,0.01323597046658,0.946252504633778,0.6042397756569775,1.858898772065683,6.339768804637948,1.5371148393860126,1.4458942480789043,1.1783399075068886,1.619748770255519,1.8166490534456647,1.9823031331590928,4.951373113804208,1.09526418469614,Stress
03,108.2822219741146,556.0934579439253,56.56679683319141,88.59506140671938,89.00949856941962,0.1017217448346523,0.1593168560807867,546.0,40.0302,0.0733153846153846,52.5,0.638487021003421,519.4,602.0000000000001,49.53271028037384,68.22429906542055,441.0,757.0,7.642857142857143,132.8125,0.0239359014551666,0.0432429455882638,0.0241784100997038,0.0913572571431343,0.5535215311896532,0.2620032847271782,0.4733389217291495,-3.140921166693577,62.93922002845091,49.12968563691072,1.2810833045747236,9714.382833980642,0.78058936247863,4.694385324541377,153.40043996036655,0.6635514018691588,0.673076923076923,0.9428571428571428,0.1785714285714285,50.80175961402016,50.63703505678181,50.95681719368691,50.96153846153846,0.5735604318734427,0.4264395681265572,47.66969687338068,41.10375953144733,0.3819716226919591,0.6180283773080407,30.36403861596912,38.623194711333845,0.5010277096374853,0.4989722903625145,39.96482729270867,39.88276706378743,0.3866327934515549,2.5358009089127407,0.4345100890094644,1.5671066585296467,-1.2278352648337538,-2.052982086077197,-0.0533574558083905,0.0085481196129009,0.719317947812659,0.6019217423885235,1.264597426142371,6.219277238915847,1.3187700980890829,1.081312295747097,1.2472603572894865,1.6459191124562786,1.6516720474389768,2.00869084334516,3.867637156601834,1.1340785584600062,Stress
03,109.36961193370242,550.0841121495328,72.88814401291667,84.95276156849292,85.34730747411872,0.1325036342680318,0.1544359484161936,544.0,34.099799999999995,0.0626834558823529,46.0,0.8579843982370228,509.6,572.4000000000001,38.31775700934579,60.74766355140186,424.0,926.0,8.23076923076923,148.4375,0.005197016499873,0.0888833336220341,0.0372875221907623,0.1313678723126695,0.058470089814281,0.0395607876445132,0.6765987151750644,-2.4204306273555485,60.34965987096266,83.40812232463618,0.7235465586441722,15813.68355571914,1.382081067283167,4.906003153935096,461.1071468900725,0.6542056074766355,0.6601941747572816,0.9117647058823528,0.2692307692307692,51.05764572904892,50.82749258319895,51.26035492947626,52.42718446601942,0.583310566419041,0.416689433580959,46.09679257512702,38.96072503481032,0.6058655745896118,0.3941344254103882,64.92268651954272,52.36372451236312,0.5981140303081709,0.4018859696918289,56.30217362868462,46.15136910236116,0.8305762631614501,1.0936660977407162,1.4962540892812073,1.377409312031808,0.1430766094052229,-1.006727669350053,-0.6086664179267396,0.0090917830372646,0.3097236112633377,0.7043094973091026,1.2008429113170085,6.2600672200055705,1.0561812511664057,0.7673798815238791,1.3471673984886388,1.3879591922787011,1.320171116409408,1.9590954367407305,2.4466204203494675,1.0710741941011168,Stress
03,108.28626910359468,555.3301886792453,69.07480027003345,75.99461133778469,76.35909357870332,0.1243850985920928,0.1368458133322887,551.5,31.8759,0.057798549410698,42.25,0.908943398144459,515.0,574.0,36.79245283018868,52.83018867924528,424.0,882.0,6.625,156.25,0.0470980036242371,0.0276484960327425,0.0076018810988344,0.0823483807558141,1.7034562591926028,0.5719360015577701,0.3357503302308766,-3.588183945522349,53.99403287475928,81.25220594356789,0.6645239012004149,13782.588820790204,1.504836768389476,4.846300909898134,489.0852280665395,0.6320754716981132,0.6407766990291263,0.8939393939393939,0.25,49.9813571961223,49.879677117223686,50.08454114647491,53.398058252427184,0.5627347895922454,0.4372652104077547,40.50397653792298,35.70411256208665,0.4954276230447985,0.5045723769552013,57.19068118182816,57.71608923562352,0.5160453209080412,0.4839546790919589,49.55474815507657,47.98922071934805,1.0354500184697006,0.8831936445610951,1.2953683463940406,1.4770468407502482,0.6604606626279392,-0.3933121194328084,-0.2942937027739901,0.006348659214808,0.1912486216061802,0.4945995485879231,0.7808979291174538,6.042739412269892,0.8592126235704856,0.9610788227334351,0.942948685112329,1.007807778661857,1.238594459000584,1.8520280524950667,2.9456864927376394,1.1424770583220525,Stress
06,105.19507591127127,571.2038834951456,67.15220628021106,87.30889494922555,87.73877811885214,0.1175625870561535,0.1528506676372545,567.0,29.652,0.0522962962962962,38.0,0.7691336182786805,539.2,596.6,11.650485436893204,44.66019417475729,458.0,1125.0,6.866666666666666,148.4375,0.0626310985829598,0.1171997052439357,0.02588696588155,0.2057177697084456,0.5343963831018301,0.3044515730056963,0.5697111407052368,-2.1438759168258703,62.04068498086222,72.36834557507542,0.8572903593118731,14105.06530047593,1.166465934368697,4.856345211057268,337.6608393597884,0.5436893203883495,0.5544554455445544,0.8928571428571429,0.0571428571428571,49.323181049069376,49.00709371562127,49.76199782251798,56.43564356435643,0.5579013028436199,0.4420986971563798,46.340592303611146,41.2517626386083,0.4388724271769939,0.5611275728230061,47.94218158582603,54.21000522104036,0.4892955026284245,0.5107044973715754,47.14818803653975,48.168623536786384,0.8928797514981771,2.3644115773503307,1.289620517729538,1.3149775292924155,-1.1451919382178115,-0.6119101249092922,-0.4892755509210905,0.0023203845335535,0.3057246717371411,0.6885506005943083,0.8619367311353237,5.919320430011822,0.7895134009310623,0.9752199903146256,1.0394732747317277,1.1159064858864218,1.1146224460978993,1.8512144127965688,1.725795155414079,1.1035971743894633,Relax
06,102.64237318657102,584.8712871287129,34.246653374114274,25.880494585691363,25.99514329153572,0.0585541710249448,0.0442498976360175,580.0,29.652,0.0511241379310344,41.0,1.32326116337237,557.0,613.0,4.950495049504951,41.58415841584159,509.0,684.0,5.941176470588236,62.5,0.0428229351625382,0.0153868044826792,0.0078096336775042,0.0660193733227218,2.7830947751850315,0.6486419517072263,0.2330649884763992,-4.174244988643943,18.381342099360896,44.59330021698803,0.4121996355936544,2575.1154526023083,2.4260089375377274,4.117766814913405,432.73497952286414,0.4455445544554455,0.4545454545454545,0.8,0.03125,52.2410358565737,52.29506553083853,52.186444932287536,53.535353535353536,0.5988504031054045,0.4011495968945953,14.233088494097409,11.649121005553171,0.4509201754193476,0.5490798245806523,29.944664252112048,33.0436000924643,0.4724266575353598,0.5275733424646402,23.444228770131524,24.77480098076196,1.2474626681799537,1.335230584405828,1.3607937928509606,1.5722849776538617,-0.9510250003635292,-1.1458232850870689,-0.3416069948719653,0.0004618780242937,0.0781117874337966,0.6481584413795134,1.8458266904983307,5.887178779970338,1.1521531576602546,1.1184645185486142,1.2530680590859724,1.3881729151364737,1.731199526307465,1.6927916880443397,2.2677595332676157,0.9888432895175931,Relax
06,100.5949130469848,596.6969696969697,35.79831672745914,27.671174126715695,27.813254200006742,0.0599941319387614,0.0463739142847807,595.0,32.6172,0.0548188235294117,44.0,1.29370429182103,568.0,624.6,6.0606060606060606,43.43434343434344,509.0,684.0,7.071428571428571,117.1875,0.0228026791338771,0.0273542413273322,0.003719908658466,0.0538768291196754,0.8336067106015036,0.4232372154498188,0.5077181002350911,-3.598883686183533,19.66694065168999,46.576061191564335,0.4222542685780391,2877.7259865409205,2.3682413048600943,4.166019548555184,441.2134077262156,0.5050505050505051,0.5104166666666666,0.7551020408163265,0.1071428571428571,49.76569821930645,49.73887389036642,49.79153967377098,52.083333333333336,0.5369812628268343,0.4630187371731655,14.411836486993428,13.382555193428296,0.4507821499005146,0.5492178500994853,31.271312813632974,34.51716197824292,0.4638258414206892,0.5361741585793108,24.34744376742578,26.17754051221593,1.2489763445775044,0.7876284778959608,1.3160332951207017,1.4511649663884176,0.2410437324371503,-0.1656925506919071,-0.3284322176507618,0.0003739210426506,0.0387988770761005,0.6331295022010681,1.7414976344471669,5.972593488679067,1.164675360624425,1.3304469032839434,1.0424196616091663,1.5772070315366946,2.009716583574068,1.7106856352712174,2.660674391540778,0.8035583781914678,Relax
06,96.96200347505624,621.3789473684211,104.317965135177,152.08364859580652,152.89907110156025,0.167881396009585,0.2447518526977625,603.0,26.6868,0.0442567164179104,35.5,0.6859249242002563,582.0,631.2,12.63157894736842,46.31578947368421,448.0,1331.0,5.588235294117647,179.6875,0.0179757701724242,0.0606549295768128,0.0310443207207345,0.1096750204699715,0.2963612405098894,0.1639003129007475,0.5530423365037784,-2.802554367804973,108.11597001303733,101.51155276280036,1.0650607450136178,34479.04218765876,0.9389135827996496,5.244525302775945,381.2423028003062,0.5368421052631579,0.5483870967741935,0.7843137254901961,0.1,50.110909457551934,49.4151187432268,50.7754305759257,50.53763440860215,0.553246829705354,0.4467531702946462,80.41729204726464,72.26429984617621,0.4415042308284932,0.5584957691715069,67.45014782408248,75.86219679671966,0.5008925607942252,0.4991074392057747,74.21746189983065,74.08509274841425,0.3647809848319496,2.208473351048725,1.095921226701016,1.0027112623317982,-0.2310302916829005,-0.2984174956338724,-0.5422056097371317,0.0056163508679043,0.4541235858030136,0.7577145004744823,0.7764001638637298,5.911652187141677,0.5749914264253867,0.6889015628933958,0.8444676719045217,0.8388558850202238,0.8473840646912599,1.8660726069316973,1.730113857637034,0.8298764978944355,Relax
06,98.3651408925644,612.4479166666666,104.83710369617955,150.62424492057957,151.42302824419667,0.1711771741616334,0.2459380476635026,598.5,28.9107,0.0483052631578947,38.5,0.6960174555660517,576.0,623.0,7.291666666666667,43.75,448.0,1331.0,5.647058823529412,171.875,0.0159229946979669,0.0585848131177616,0.0287106502408812,0.1032184580566098,0.2717938976089266,0.1542649928875519,0.5675807817786906,-2.837279777800338,107.07225009927356,103.64513926671631,1.0330658133782622,34863.88187997476,0.967992539342549,5.249345851461893,401.3108861972035,0.4583333333333333,0.4680851063829787,0.7045454545454546,0.0588235294117647,50.29387069689336,49.62692838376709,50.92475916137317,48.93617021276596,0.5526908201443121,0.4473091798556878,79.60106649558185,71.61131789782834,0.4412305442307298,0.5587694557692705,68.84647737399867,77.47565712408323,0.4987731010055563,0.5012268989944435,74.41830162682616,74.60113369739209,0.3639196772522372,1.9223202065151723,1.0060736184167016,0.9037979382700784,-0.2847135080864991,-0.4421498236070091,-0.5532042891709654,0.0048131543753807,0.3373145151078746,0.6971001871160807,0.7310921121240687,5.815438511336498,0.5573732528027562,0.5584331575417824,0.8529533007814235,0.7763023982020216,0.8159585058434873,1.905726337354298,1.6859347417546766,0.9603070313551686,Relax
06,100.53922320459252,596.969696969697,27.563083320850257,21.880006715665125,21.98940126848464,0.0461716624156374,0.0366517878993375,593.0,26.6868,0.0450030354131534,40.0,1.2597383391622223,575.0,622.4,0.0,37.37373737373738,539.0,658.0,7.071428571428571,54.6875,0.019648159824777,0.1132071158233177,0.0082888818758327,0.1411441575239275,0.1735594064196629,0.139206327555189,0.8020673176225964,-2.178536254558685,15.548854751177558,35.85504514808213,0.433658769273904,1751.453263950909,2.305960517469412,3.950368662989165,330.7212738542424,0.404040404040404,0.4183673469387755,0.6341463414634146,0.0,50.9922822491731,51.009606138091335,50.97380888969154,47.95918367346938,0.4801560235314179,0.5198439764685823,10.775832065368824,11.212336725471673,0.4637074779499239,0.5362925220500759,24.415876721693092,26.257365185450208,0.4663117627273902,0.5336882372726098,18.871322062721863,20.18868149889256,1.0988144831041533,2.2579299112573032,1.2277508664589911,2.2277794387328047,-1.5480302153633474,-2.5621783223014907,-0.0571038023421378,0.0131142736232858,0.7090165181339454,0.4776802112279195,1.5533484457830569,5.707293867401384,1.2467540344141592,1.4699428349804695,1.2783716274354693,1.864817538831554,2.05206954552891,1.8532281468814853,2.984956005334328,0.9374847745567124,Relax
06,101.3806706230188,591.959595959596,28.47301593737093,19.609972473416764,19.70733693250248,0.048099593505558,0.0331272144370394,591.0,29.652,0.0501725888324873,40.0,1.4519661348820807,567.6,618.4,0.0,29.29292929292929,532.0,658.0,8.25,117.1875,0.045363966249507,0.046875632649252,0.0169019160799432,0.1091415149787023,0.9677515520471794,0.4156435455230698,0.4294940624417686,-3.0602572982652627,13.935191584100592,37.91020539998944,0.3675841752127377,1659.6593388130827,2.720465317695612,3.92698906399194,412.5335959095526,0.4747474747474747,0.489795918367347,0.8125,0.0,48.865069356872624,48.8557630420761,48.87597767493904,53.06122448979592,0.4998407896831714,0.5001592103168285,9.853828603356662,9.856966765411812,0.4143617438683781,0.5856382561316219,24.40315416494223,29.01154494802803,0.4245398388430016,0.5754601611569985,18.60929702248673,21.665981792730783,1.2108043180851973,0.6137719332707565,1.286547858280219,1.3152214271195248,0.4275170740131564,0.0020342155933823,-0.4532830237340668,3.3551461934498544e-05,0.0165565411472681,0.5714088804856678,1.7197859696029658,5.964968362394587,1.170989893974102,0.0,0.9767378208731632,1.5162287122358526,1.9183356039692256,1.7497073622929489,2.939453862640328,1.0714111709219571,Relax
06,103.3716442812181,580.7450980392157,30.199890588782797,37.01351104664349,37.1980703215041,0.052001972450129,0.0637345216887979,578.0,23.7216,0.0410408304498269,30.0,0.8159153167265233,558.0,597.8,4.901960784313726,33.33333333333333,497.0,702.0,6.375,117.1875,0.0354594744247546,0.0212126629849121,0.0060164394259019,0.0626885768355687,1.6716182428380524,0.5656449103600538,0.338381632758272,-3.853156965014085,26.30300777138961,33.60452144259964,0.7827222838545149,2776.8537108777305,1.2775923474102475,4.150523110982472,171.73151773379553,0.5196078431372549,0.53,0.8301886792452831,0.0555555555555555,50.14005602240895,50.10242845416616,50.17901498408104,55.00000000000001,0.5407675074076749,0.459232492592325,19.34244038377784,17.824701961042717,0.4277248808536068,0.5722751191463931,21.97758518499405,25.42143998325957,0.4706703236618361,0.5293296763381637,20.70198360741876,21.954152350096194,0.805267863192621,2.944970839656732,1.1370144362675854,1.567868429637749,-2.256857643414241,-1.6392416768766496,-0.3536983838453272,0.0023017745544889,0.4622172521258342,0.7238330560085555,1.4522523289116878,5.750473381017498,1.1384631022468177,1.5717019488678428,1.5224121777909287,1.718632295966394,1.6534531359225444,1.8092484973288605,2.758568094578835,1.0466549556033715,Relax
06,102.93769258807949,583.1782178217821,36.37674972825471,36.75363927558739,36.938795953098506,0.0623767291311476,0.0630229973486753,578.0,26.6868,0.0461709342560553,35.0,0.989745517593328,557.0,603.0,8.91089108910891,41.58415841584159,497.0,686.0,6.3125,117.1875,0.0104056465800042,0.0499558759348176,0.0354061895428728,0.0957677120576947,0.2082967495872057,0.1086550608386197,0.5216358923216422,-2.9966151444734987,26.11967310730215,44.58972284998398,0.5857778752108018,3658.91552647004,1.7071317342604202,4.270322492989963,304.4821235963385,0.4752475247524752,0.4848484848484848,0.7083333333333334,0.0333333333333333,50.0205676676265,50.05239908423613,49.98828696521699,53.535353535353536,0.4643663525388095,0.5356336474611906,17.799103370902728,19.116204982404145,0.4236464522678122,0.5763535477321879,29.022616281239724,33.85160451190316,0.434049312404858,0.565950687595142,24.074055917274947,27.489638238430818,0.8948226657674017,1.2899246883383877,1.132105982996007,1.0674355558783823,0.0076383262922625,0.1796386857409491,-0.5501350409851676,0.0001725741002377,0.0821170086015368,0.7207115377864688,1.2498432583920331,5.853417299433535,1.0686745896158247,1.365885289636535,1.326117856987242,1.684265739214811,1.7806849655060808,1.7824600234209185,2.9633454254488827,1.1206890614532723,Relax
06,103.6640488235247,578.8333333333334,34.771982386339545,25.48946588862012,25.61616135903811,0.0600725293170277,0.0440359330065421,575.0,31.1346,0.0541471304347826,41.75,1.3641706946030454,552.0,606.4000000000001,3.92156862745098,36.27450980392157,522.0,686.0,7.846153846153846,70.3125,0.0345364534436361,0.0144931443318944,0.0043359272379554,0.053365525013486,2.3829510458702274,0.6471678754197284,0.2715825306362472,-4.234079546059925,18.11336140494465,45.90021031466732,0.3946248019512138,2611.942431195765,2.5340525862934147,4.123933710555051,465.2541866371776,0.5,0.5050505050505051,0.72,0.0,49.610389610389625,49.62108370179476,49.59899604761935,52.52525252525253,0.4860486734429526,0.5139513265570473,12.628341142050289,12.985761433200596,0.4417444630198686,0.5582555369801312,30.507051330219078,34.295030632236966,0.4477144117447644,0.5522855882552354,23.34689680519256,25.93047556511519,1.22855600549311,1.100895126344958,1.384628359193142,1.361812655926958,0.0574581284356785,0.1134155265617691,-0.5207246836871134,6.252627235401737e-05,0.0527453774004774,0.7935887264408366,1.8672670217362,6.059392743805016,1.050951127696012,1.1924676656544586,1.150036254515335,1.2713093249528742,1.7049709150848669,1.6257338132400303,3.162864391948648,0.9812390208781612,Relax
06,103.37346977344892,580.6176470588235,31.636563668412,18.39366012171768,18.47543190722252,0.0544877749215342,0.0316794713610456,580.0,32.6172,0.0562365517241379,43.75,1.71997109107492,554.0,607.0,0.0,29.411764705882355,522.0,665.0,7.846153846153846,109.375,0.0567112877330517,0.0203217096352625,0.0048052502020492,0.0818382475703635,2.7906750342818247,0.6929680121057334,0.2483155521846948,-3.8960655242174247,13.064103186947351,42.797229715101054,0.3052558138438962,1756.4877793042956,3.275940881870924,3.951615242513306,560.8047778180827,0.4705882352941176,0.48,0.7291666666666666,0.0,52.00789993416722,52.0013387342972,52.01061487742148,49.0,0.520499839044804,0.4795001609551959,9.430270409696638,9.051243008559654,0.5194496073785335,0.4805503926214663,30.8451842653516,29.66778520421831,0.5195392159210718,0.4804607840789279,22.80740441570997,21.93288032753148,1.3779254844057238,0.6037022957161824,1.4917475478991458,1.6077355810602878,0.5151548289632117,-0.3073636636506052,-0.3078721350172382,0.0002814110013597,0.032338170920431,0.6506931742714168,1.509354453877118,5.96875438598309,1.0692453373661075,1.2860368384587075,1.146472940999726,1.366888640328645,1.897459585898849,1.6122386587135284,2.3300911958506845,0.7849912167025288,Relax
06,103.6053665040976,579.2058823529412,33.09283019930274,17.8672220493947,17.954612744692692,0.0571348309945814,0.0308477910770029,577.0,36.3237,0.0629526863084922,47.0,1.8521530715752117,549.2,607.8,0.0,24.509803921568626,518.0,666.0,8.5,117.1875,0.0471001924624909,0.0089308946223434,0.0015403929518042,0.0575714800366386,5.273849312324745,0.8181167555969765,0.1551270632031664,-4.718238707438176,12.695828425350612,45.20737366473932,0.2808353460102253,1803.1015828294155,3.560805340947324,3.9629903045818766,643.8986303824206,0.4411764705882353,0.4554455445544554,0.717391304347826,0.0303030303030303,50.85091899251191,50.83159298644847,50.86816330593679,52.47524752475248,0.5454517259560215,0.4545482740439786,9.377366368016128,8.560373823613078,0.4856013977329118,0.5143986022670882,31.502806190289693,32.42344577308852,0.4899774129695428,0.5100225870304569,23.24179207659077,23.71244225929092,1.466931185748289,0.2664086706232482,1.4585641800890916,1.385074539877704,1.0,0.5892760014684697,-0.7758530345107112,8.495669420224712e-05,0.006131927994794,0.6953439178325285,1.6094379124341005,6.069388332125153,1.0041218541373993,0.772760613339579,0.8360097419555517,0.969530363438116,1.9079372573942404,1.4976160031978796,2.6141554743922417,0.8504071514277396,Relax
06,106.56960135548066,563.1333333333333,26.964031122200076,19.744522122506638,19.83979901847177,0.0478821435815083,0.0350618955650052,558.0,25.2042,0.045168817204301,34.0,1.3656461754252325,539.0,585.0,4.761904761904762,23.809523809523807,518.0,635.0,6.176470588235294,70.3125,0.0230269525925962,0.0068645881578766,0.0018825527415731,0.031774093492046,3.354455076256041,0.7247084042967459,0.2160435563518126,-4.981379233131091,14.028856423339596,35.62897973787715,0.3937484745998922,1570.2743236952194,2.5396923785321346,3.9029456393518944,361.9465931806498,0.4857142857142857,0.5,0.75,0.0857142857142857,49.62453066332916,49.61583922126188,49.63372011423838,49.03846153846153,0.5113703630623521,0.488629636937648,10.032229615990712,9.80662545999496,0.5209048244260148,0.4790951755739852,25.714765963252287,24.66120452486502,0.5196249995347304,0.4803750004652696,19.517874110834917,18.766258438083018,1.238411293413653,0.4987332683514451,1.5272325213391378,1.483019181298258,0.0358794393827377,-0.9641205606172624,-0.5886512748327903,0.0004242955084827,0.0322434406575962,0.6958742800993702,1.5198257537444133,5.894825517501289,1.0961446930279335,1.5935728706953325,0.9987707597421688,1.2909000411278468,1.782714709905768,1.6597954988408752,2.9545451217173406,0.9591779310951604,Relax
06,105.66943761862883,568.3173076923077,47.57625752473334,48.4467478644416,48.68340243026695,0.0837142506145379,0.0852459483614233,564.5,42.2541,0.074852258635961,57.75,0.9820320170479974,534.0,603.2,25.0,50.96153846153846,449.0,691.0,7.428571428571429,125.0,0.058201830009429,0.0231371681634581,0.0054431036239517,0.086782101796839,2.5155122527635214,0.6706662872222464,0.2666122124769847,-3.7663149431212655,34.424363989675406,58.15124909060543,0.5919797859550501,6288.90226800383,1.6892468691083506,4.505544955637001,392.9272618441802,0.5288461538461539,0.5436893203883495,0.7857142857142857,0.217391304347826,50.23148148148149,50.27707762487814,50.18873865827369,47.57281553398058,0.4663660806618406,0.5336339193381591,23.50886357667394,25.14721362181457,0.5878308072259858,0.4121691927740142,44.58463538482011,37.3333370916703,0.5563103924992241,0.4436896075007761,35.64026079494944,31.828920900192813,1.1001896387911865,1.6109358284270865,1.3662491025971626,1.7846927402352923,-0.9449830109504518,-1.688240582641538,-0.2402481028392689,0.0011542556261673,0.1950462508588989,0.591609414666765,1.5998684614179497,6.0679932036140025,1.0514667547032317,1.0661724206167726,1.037281790689357,1.3662707802878178,1.6593986923318045,1.7458607707092333,3.181717600627925,1.159691489678266,Stress
