PPG_Rate_Mean,HRV_MeanNN,HRV_SDNN,HRV_SDANN1,HRV_SDNNI1,HRV_SDANN2,HRV_SDNNI2,HRV_SDANN5,HRV_SDNNI5,HRV_RMSSD,HRV_SDSD,HRV_CVNN,HRV_CVSD,HRV_MedianNN,HRV_MadNN,HRV_MCVNN,HRV_IQRNN,HRV_SDRMSSD,HRV_Prc20NN,HRV_Prc80NN,HRV_pNN50,HRV_pNN20,HRV_MinNN,HRV_MaxNN,HRV_HTI,HRV_TINN,HRV_ULF,HRV_VLF,HRV_LF,HRV_HF,HRV_VHF,HRV_TP,HRV_LFHF,HRV_LFn,HRV_HFn,HRV_LnHF,HRV_SD1,HRV_SD2,HRV_SD1SD2,HRV_S,HRV_CSI,HRV_CVI,HRV_CSI_Modified,HRV_PIP,HRV_IALS,HRV_PSS,HRV_PAS,HRV_GI,HRV_SI,HRV_AI,HRV_PI,HRV_C1d,HRV_C1a,HRV_SD1d,HRV_SD1a,HRV_C2d,HRV_C2a,HRV_SD2d,HRV_SD2a,HRV_Cd,HRV_Ca,HRV_SDNNd,HRV_SDNNa,HRV_DFA_alpha1,HRV_MFDFA_alpha1_Width,HRV_MFDFA_alpha1_Peak,HRV_MFDFA_alpha1_Mean,HRV_MFDFA_alpha1_Max,HRV_MFDFA_alpha1_Delta,HRV_MFDFA_alpha1_Asymmetry,HRV_MFDFA_alpha1_Fluctuation,HRV_MFDFA_alpha1_Increment,HRV_ApEn,HRV_SampEn,HRV_ShanEn,HRV_FuzzyEn,HRV_MSEn,HRV_CMSEn,HRV_RCMSEn,HRV_CD,HRV_HFD,HRV_KFD,HRV_LZC,Labels
60.24742448453163,997.5084745762712,102.91381946700908,,,,,,,113.10926971982325,114.02012775900698,0.1031708723183786,0.11339178824307294,1012.9999999999999,97.85160000000016,0.09659585389930915,121.0,0.9098619390075742,909.8000000000001,1080.6,52.54237288135594,86.4406779661017,782.0,1246.0,11.8,242.1875,,,0.005579614726911673,0.04645371105698569,0.013578779747492888,0.06561210553139026,0.12011128066963368,0.08503940975102932,0.7080051871641465,-3.069298923329421,80.62440553015034,119.72783021204269,0.6733973662377524,30325.747189288133,1.4850072930741698,5.188781620116629,711.1868041953173,0.7288135593220338,0.7543859649122807,0.9534883720930233,0.4166666666666667,52.528856243441766,52.870823549715794,52.19977540109616,50.877192982456144,0.4651842568072936,0.5348157431927065,55.02654861638679,59.0013380758169,0.4824800567087613,0.5175199432912386,83.16388998991061,86.13083494910383,0.47707895169442827,0.5229210483055717,70.5129550185125,73.82302697589218,0.5461467691778351,1.7957393293669701,0.8319596012468342,0.9098951494914039,-0.6719203165003407,-0.3507379620542441,-0.45659974308629564,0.000255361637667768,0.15692851338682498,0.36391433025736264,1.4213856809311607,5.814846439192349,1.1523194707153677,0.6299994923998176,0.9213587938586364,0.9976223120664994,2.00194570252294,1.9208744709724581,2.4065952445971424,0.9970581439596342,Relax
58.577160978913625,1025.8245614035088,85.21949031073851,,,,,,,90.66057183646201,91.47158915956706,0.08307413715474235,0.0883782424866318,1030.0,68.19959999999999,0.06621320388349514,79.0,0.9399840369908719,962.8000000000001,1090.8,57.89473684210527,82.45614035087719,800.0,1187.0,9.5,203.125,,,0.011763267523935833,0.025059135482229062,0.006467279770565795,0.04328968277673069,0.4694203250657978,0.27173374276281115,0.5788708503934565,-3.686516828025121,64.68018098063975,102.06261685720318,0.6337303801560803,20738.999372045768,1.5779581211708862,5.023757908413924,644.2021405511053,0.7192982456140351,0.7454545454545454,0.926829268292683,0.4166666666666667,49.10385465259023,49.07628815280502,49.13445100965369,47.27272727272727,0.4534688441676101,0.54653115583239,43.560198680572036,47.821543262425145,0.4169170809255138,0.5830829190744861,65.90093001043857,77.9348778372016,0.42739205517520956,0.5726079448247904,55.85885554382417,64.65580091337334,0.7448086117685611,0.821321702016403,0.8565286153814223,1.0916742781273394,-0.142006460338588,-1.0137884173252059,-0.21369846654652153,0.00019566338368100008,0.045052435465698676,0.39029538277462583,1.475906519809578,5.69253913697176,1.3373648945050027,0.9818291602807921,1.04733625829906,1.297637466339349,1.801963398728876,1.8952468916417122,3.9599277789964065,1.1256454413300379,Relax
61.27957261806869,980.9666666666667,94.95546978946422,,,,,,,128.389040664349,129.48092882459997,0.09679785564184738,0.13088012572396174,1001.5,79.31909999999999,0.07920029955067398,116.75,0.7395917073460258,901.4,1055.2,55.00000000000001,76.66666666666667,779.0,1168.0,15.0,250.0,,,0.022455027317360675,0.0398291202333076,0.010158067572057408,0.07244221512272568,0.5637841656010865,0.30997157222924787,0.5498053885546205,-3.223156970074015,91.55684280620733,99.21083259654809,0.9228512694630175,28536.438857165664,1.0835982276774385,5.162369885286336,430.01872947209023,0.7,0.7241379310344828,0.9047619047619048,0.3,49.12183398040304,49.19614754082435,49.05204543368971,51.724137931034484,0.47597684827683345,0.5240231517231665,63.17101856236684,66.28270175335446,0.49493862170285247,0.5050613782971476,69.79668023682036,70.50682755889204,0.48621655656412566,0.5137834434358745,66.56633592998733,68.42736763950326,0.8086338619608826,1.417807664188907,1.0910858993738002,1.4064824022883937,-0.09706952816384629,-0.8763450713315684,-0.2775463408183618,0.002125949022250949,0.2068736226641814,0.2890681446434118,2.70805020110221,5.873557262275184,1.2677204710585246,0.0,1.0793720283840775,1.1968729356955115,2.3255801065829598,1.8578123325744258,3.6175165659420547,1.0829299425282284,Relax
63.20501026691189,952.2786885245902,95.15060538387569,,,,,,,138.00712541990964,139.16493892496305,0.0999188646459126,0.1449230430996314,966.0,105.26459999999999,0.10896956521739129,142.0,0.6894615411658213,856.0,1037.0,50.81967213114754,80.32786885245902,768.0,1142.0,15.25,289.0625,,,0.02392943819410656,0.06706875503323581,0.021069430239339354,0.11206762346668173,0.35678965834759224,0.21352677476221227,0.598466827068709,-2.702036991242923,98.4044720172531,92.42032757544492,1.064749223453284,28571.445416785038,0.9391882876953093,5.162902321666027,347.2003568152867,0.6885245901639344,0.7118644067796611,0.9047619047619048,0.25,50.69280162216966,50.66218749245439,50.71761316371074,55.932203389830505,0.5081793345572728,0.4918206654427272,70.15273893199763,69.01436843764823,0.4259847712915679,0.574015228708432,60.32044548963309,70.02114541397296,0.46965909719681004,0.5303409028031899,65.42156725319569,69.51957945763266,0.6324167771717197,1.1647753823467366,0.6273724224476918,1.143132995378356,0.010037876046098404,-0.8466191780204375,-0.05720168819885837,0.0013108701606864193,0.13508239470307162,0.37188442479209405,2.9957322735539913,5.897950452316984,1.1831374224621567,1.133732460554052,1.1968729356955117,1.2168836126138958,2.3489531157817325,1.866542146720354,5.596419625090839,0.972252022551293,Relax
63.801467642398286,941.9047619047619,70.74162763312935,,,,,,,97.62461019706573,98.41230489976759,0.07510486250231124,0.10364594611417495,947.0,75.6126,0.07984435058078142,93.5,0.7246290406725292,878.4,1000.4,53.96825396825397,88.88888888888889,792.0,1124.0,12.6,195.3125,,,0.01962475398037331,0.05391485240010678,0.005821274583939279,0.07936088096441936,0.363995320523857,0.2472849814907154,0.6793630784451468,-2.920349284292454,69.58800814682375,72.25464052735055,0.9630939637777675,15796.105405158276,1.0383202860886673,4.905520133021098,300.0938360943697,0.6190476190476191,0.639344262295082,0.9230769230769231,0.10526315789473684,50.89536138079828,50.86778922326349,50.91570244877608,52.459016393442624,0.49545689166433976,0.5045431083356602,48.98669943271821,49.43384385249427,0.469500334663239,0.5304996653367611,49.50894795069672,52.62696220144052,0.48199202264884344,0.5180079773511566,49.248515959855446,51.055372237329905,0.711600247273382,0.7195077732628257,0.8954561788206528,0.8944478061363966,0.5740639599490436,-0.06798945644841448,-0.5014014757334495,0.00024381643747488458,0.03999916619248504,0.31598591245483476,1.6094379124341007,5.774821391719543,1.465758128616462,1.0357680164036986,0.7489330683884978,0.8888370153723535,2.3661622638058906,1.9658673052934363,4.582249526949762,1.328284427444426,Relax
63.50483838079236,946.4354838709677,73.2323096677295,,,,,,,114.39541719583802,115.34363484111577,0.07737696960410417,0.12086974669203561,955.5,74.13,0.07758241758241757,94.24999999999989,0.6401682118293273,886.8,1013.1999999999999,67.74193548387096,88.70967741935483,781.0,1123.0,12.4,210.9375,,,0.04267523636112604,0.0968579732514268,0.03616798480890898,0.17570119442146181,0.44059600803692633,0.24288529455729913,0.5512653090968154,-2.334509566741494,81.56026636285787,65.11792161799234,1.2525010678523016,16685.108639989234,0.7984025129134044,4.929299148737693,207.96124902201277,0.6612903225806451,0.6885245901639344,0.9523809523809523,0.16666666666666666,49.73113616652212,49.75494464497008,49.71002132215233,45.90163934426229,0.4630479853181586,0.5369520146818412,55.50037537410594,59.76551402495143,0.6243338894853836,0.37566611051461635,51.45279666713616,39.91182069233795,0.5258347103301045,0.47416528966989535,53.51486686677041,50.817664732079145,0.5051075749302257,0.6164865543436898,0.6434593764357971,0.729312722864401,0.56505798298255,-0.2658658854982461,-0.36073768223541697,0.0002546056221597327,0.03351685413296362,0.2898349814186454,1.504077396776274,5.748472318416495,1.636904170568735,1.2166985644675914,0.9810173385750259,1.4289919208724744,2.1817610933843223,2.022435451707911,5.7996935758788135,1.2484605166940221,Relax
63.87022211594126,940.1428571428571,93.0287602326009,,,,,,,129.12303460078735,130.1238487874844,0.09895172794836747,0.1373440574693073,949.0,105.26459999999999,0.11092160168598524,143.0,0.7204660308690859,852.2,1022.5999999999999,71.42857142857143,85.71428571428571,774.0,1133.0,15.75,125.0,,,0.038253141300311835,0.08796323312979451,0.014163063950321969,0.14037943838042832,0.434876481221049,0.27249817880483185,0.6266105217732395,-2.430836357152146,92.01145587172313,92.74002331737606,0.9921439803485965,26807.664271169768,1.0079182253856374,5.135229085886761,373.8974388970892,0.6349206349206349,0.6557377049180328,0.925,0.10526315789473684,48.273782602140805,48.21083326337803,48.33514816319246,47.540983606557376,0.45179358640858047,0.5482064135914195,61.871363115503534,68.15405644447044,0.6335112967700249,0.36648870322997523,73.81495894934534,56.143243228494704,0.5433318490768423,0.4566681509231578,68.10548340061918,62.43812605311749,0.7973620447949888,0.7283599649163611,0.9873856037634425,1.1615420272531694,-0.5042308347532609,-1.5058984932818666,-0.2608923720708269,0.00023565269932862145,0.038603301163862534,0.32910593814679556,2.833213344056216,5.9137878600078535,1.62542402692058,1.4836500411109528,0.0,0.0,2.3356294456693973,1.9654510820564983,5.42299108055157,1.1385295092380794,Relax
62.676570919263376,960.7540983606557,108.57895065154278,,,,,,,167.9264223799618,169.32298808426845,0.1130142987022508,0.17478605885366122,972.0,127.50359999999999,0.13117654320987654,171.0,0.646586458001616,857.0,1056.0,75.40983606557377,90.1639344262295,725.0,1226.0,20.333333333333332,179.6875,,,0.028286778101559495,0.1297320462360337,0.04985534300993072,0.20787416734752392,0.21804002112241952,0.13607644693180984,0.6240893127386422,-2.042284138487043,119.72943308515518,94.87128583352401,1.26201971474542,35684.99051376926,0.7923806485081133,5.25945569560516,300.69668397426534,0.6721311475409836,0.6949152542372882,0.926829268292683,0.26666666666666666,50.93955715140635,50.83701525560477,51.042782291680744,44.06779661016949,0.49240494882553143,0.5075950511744685,84.02622673701953,85.31243675107856,0.6709567481024266,0.32904325189757355,77.71091980064172,54.42034380123342,0.5612619683063147,0.4387380316936856,80.93019781244448,71.55342648626697,0.49026826493749504,1.260457932406253,0.6450946254386681,1.0510511001800633,-0.9184123572861562,-1.779479002918194,-0.17792937447233032,0.0005012943876576502,0.10741634074558136,0.35074256936770265,2.9444389791664407,5.799589796579279,1.5024101493710054,1.136998617702687,1.0107628169586376,1.0826833350715828,1.9576995656461373,2.008257865441775,6.2182453194814755,1.2639276293166808,Relax
64.45516783276963,933.2857142857143,103.64539866098481,,,,,,,135.68916090497711,136.79608821693057,0.11105430745857854,0.1453886616156191,955.0,126.02099999999999,0.13195916230366492,158.5,0.7638443481389608,823.2,1026.8,57.14285714285714,82.53968253968253,745.0,1226.0,15.75,242.1875,,,0.008527911079020283,0.029757818850601286,0.011351760268961852,0.04963749019858342,0.28657715546406615,0.1718038330484255,0.5995028904876123,-3.514663363013626,96.72944161798478,109.2652616744152,0.8852716786256897,33204.019757986985,1.1295967375262885,5.228160773576526,493.70273244950243,0.6507936507936508,0.6774193548387096,0.9047619047619048,0.2,50.218681661980625,50.29462842374814,50.13685524584157,38.70967741935484,0.420038790520676,0.5799612094793238,62.691084941541256,73.66489254348113,0.7061312505982805,0.2938687494017193,91.81736523133998,59.23232943885579,0.580430175898785,0.4195698241012149,78.61488627853132,66.83930447048266,0.6168853199795219,1.5537536485671988,0.9383566843599067,1.0776629530131583,-0.2481197266486017,-0.5023041806863444,-0.4103421132547535,0.0008803431419755454,0.16668310711580925,0.38124239579653185,1.5755363607584192,5.67958329648145,1.2794058493136113,0.5909984302806723,0.6463535756254107,0.8598425498690881,2.1825311291026166,1.889138519160295,3.8575714243514,1.1385295092380794,Relax
66.62204657332411,902.876923076923,97.76126976151964,,,,,,,115.05868068077261,115.96439998332272,0.10827751519925669,0.12743562022680013,889.0,130.4688,0.14675905511811022,170.0,0.8496644423792395,800.4,994.8000000000001,50.76923076923077,78.46153846153847,744.0,1118.0,13.0,125.0,,,0.00715998307674115,0.039082756385529695,0.009105826213899448,0.05534856567617029,0.18320056564362788,0.12936167341051444,0.7061204912552295,-3.2420739224235287,81.99921360443666,110.52227204978924,0.7419247911180906,28471.435501144133,1.347845512067317,5.161379474351775,595.867793463166,0.5846153846153846,0.609375,0.8974358974358975,0.1,50.549048316251834,50.52857278734838,50.56719689406015,45.3125,0.46466036560033214,0.5353396343996676,55.897440098128,59.998280398638514,0.6037912040621808,0.3962087959378194,85.88022929337195,69.56837525460456,0.5543938907017261,0.44560610929827377,72.45666840604096,64.95980482713571,0.4442923913862035,1.5177035267914605,0.7859543871349993,1.0259342914261507,-0.2550374728126066,-0.9066238850050419,-0.34187958975196764,0.001444933749336955,0.1968818219046089,0.36119825257821425,1.83258146374831,5.764600312995171,1.378382799582868,0.6872180489056163,0.8047189562170501,0.8605048440456026,1.7454719893450765,1.883910755560461,3.914850786246356,1.111821750097561,Relax
66.56831065402473,901.8787878787879,84.37854542322312,,,,,,,105.96429006618581,106.73833029350867,0.0935586317776481,0.11749282884833451,887.5,83.76689999999999,0.09438523943661971,121.25,0.7962922732792327,835.0,986.0,50.0,71.21212121212122,744.0,1118.0,13.2,125.0,,,0.025087393221195353,0.11188353451045337,0.02236840661101586,0.15933933434266456,0.22422775014183538,0.15744632877180267,0.7021714692860715,-2.1902968191697987,75.47539716306947,91.42116717528992,0.8255790151787692,21677.142938885412,1.211271097756115,5.0429721513132675,442.9432700902349,0.5454545454545454,0.5692307692307692,0.8108108108108109,0.21052631578947367,47.9117415287628,47.954765429878485,47.87128434923657,52.307692307692314,0.501997676228475,0.49800232377152515,53.50102218649657,53.287692059236335,0.5000607060174475,0.4999392939825524,64.64845144632841,64.64060282271525,0.500846244130628,0.49915375586937205,59.337094845502335,59.236752351407745,0.6622550218951019,3.6297593935048003,1.367732152280933,2.1314054303971885,-1.0808815402360779,-1.2701683220187001,-0.2896077410853195,0.033179552937036165,1.785262763719962,0.3828332683527207,2.4849066497880004,5.851138248113551,1.4287714850194924,1.1303653426677984,1.170532806781055,1.2624640018123843,1.934370041238026,1.8814572351088066,3.071353295275354,1.2821442071366418,Relax
68.81911861942868,871.9411764705883,85.62498630185159,,,,,,,75.2038026983909,75.74538092712696,0.09820041605150624,0.08624871118347469,868.0,88.2147,0.10162983870967741,109.5,1.1385725618856726,799.8,947.0,38.23529411764706,70.58823529411765,698.0,1120.0,13.6,171.875,,,0.007195476184163713,0.018480939781002674,0.004770382426342244,0.030446798391508628,0.3893457946094409,0.2363294850131262,0.6069912357733108,-3.991015360111256,53.56007249712965,108.91961836827527,0.49173944326571345,18327.243071539855,2.0335972916039724,4.970067249835748,885.9945636650514,0.5147058823529411,0.5303030303030303,0.7142857142857143,0.23529411764705882,48.20652173913044,48.20858245477566,48.219144770689724,48.484848484848484,0.48931453634746624,0.5106854636525336,37.47868080858123,38.28837943815329,0.49575596597980554,0.5042440340201945,76.6902380109008,77.34397623165047,0.4945009822288688,0.505499017771131,60.35745240365985,61.024956613348415,0.805179246640553,1.8120917090922997,1.0789399495906866,1.2340964640359149,-0.48254899992732625,-0.23815323751849116,-0.4143771180748086,0.0008056124731289638,0.1900425122586739,0.4788478769276545,1.8191584434161696,5.910992253015046,1.1926574975697024,1.1024914981688185,1.0227744261587466,1.4568027712612164,1.9493355081671038,1.793915176729364,2.671759063176578,0.9847366360846136,Relax
68.05112289026242,883.2835820895523,102.67598432287458,,,,,,,111.65429601310385,112.48750979615409,0.1162435104703041,0.12640820940990127,875.0,106.74719999999999,0.12199679999999999,127.5,0.9195883005775652,793.2,975.0,47.76119402985074,77.61194029850746,698.0,1175.0,13.4,132.8125,,,0.010226636254543394,0.04494694741721704,0.010048884019269108,0.06522246769102955,0.227526825339557,0.15679621787677206,0.6891328863872299,-3.1022724309997485,79.54068097564874,121.81666122107002,0.6529540391137479,30440.085615528784,1.5315013616537179,5.190415979555051,746.2495301287136,0.582089552238806,0.6,0.8205128205128205,0.3125,51.41318977119784,51.54287406795748,51.28811106939123,47.69230769230769,0.5103931570331102,0.48960684296689,56.836607921303674,55.66721172771689,0.532460821068744,0.467539178931256,88.88951177478744,83.29437944716842,0.525862750297563,0.47413724970243687,74.6047763335568,70.84063843948378,0.6936753530405744,2.028005977546043,1.0423693970924426,1.252546824881709,-0.6412674566401471,-0.49684898324397997,-0.3963625205663405,0.0014390510319560491,0.26879572451705513,0.483986482145744,3.4011973816621555,5.946686205383145,1.1573336074362681,1.347221434797729,1.023586140555525,1.1968729356955115,2.1812420854275585,1.9003385073810612,2.5255398552884256,0.905386446336981,Relax
96.39941984579099,622.8105263157895,101.23853176310801,,,,,,,56.810060541451676,57.098264867113514,0.16255109296559334,0.09121563965450181,597.0,78.5778,0.13162110552763817,108.5,1.7820528758148204,539.8,714.4,29.47368421052631,70.52631578947368,479.0,904.0,15.833333333333334,46.875,,,0.013436298724771072,0.0014317850962881757,0.0004903857540359128,0.01535846957509516,9.384298495356559,0.8748461986446212,0.09322446414907876,-6.548833294130135,40.374570281521564,137.26629313932938,0.2941331725228434,17410.918856720116,3.3998205351092676,4.947791801462409,1866.7230487736815,0.6736842105263158,0.6881720430107527,0.890625,0.4,48.44130540672188,48.64224614979324,48.251888369977834,48.38709677419355,0.45039126622584663,0.5496087337741532,27.10364416239485,29.940532458040348,0.5722324191453962,0.42776758085460376,103.83652248872568,89.77756863304258,0.5625256149934722,0.4374743850065281,75.88356518190666,66.91953120551443,1.433852964879049,0.9038664755107826,1.6495610043758857,1.6860493602550348,-1.0548938819801563,-2.0548938819801563,-0.45963081177612075,0.0024912204715199734,0.11653028460909519,0.6262515358869938,0.9604619501872924,6.3303304767292286,0.8016961005443894,1.0188744086469,0.9380638368718085,1.116105108870415,1.729074485931206,1.6853019282396358,2.387108494575332,0.5532509985962903,Stress
87.18914312711058,689.2558139534884,101.92594613351422,,,,,,,75.6407142156843,76.07430762164086,0.1478782537195867,0.10974258422546813,659.5,114.9015,0.1742251705837756,167.75,1.3475011069155083,597.0,795.0,39.53488372093023,68.6046511627907,532.0,954.0,14.333333333333334,85.9375,,,0.029434917910911296,0.006072348786634903,0.005702307901696857,0.04120957459924306,4.847369435645208,0.7142737627641504,0.14735286267057077,-5.104009798734358,53.79265879333371,133.6347021302677,0.4025351045486403,22583.545930118016,2.4842553822014923,5.060762243165363,1327.930912064043,0.6395348837209303,0.6547619047619048,0.8909090909090909,0.1875,51.39459459459459,51.63591004144011,51.16661663524622,47.61904761904761,0.49864803456096596,0.5013519654390342,37.993342148579764,38.09621278515003,0.5139640607908684,0.48603593920913146,95.80443761391416,93.16514019163502,0.5118276484703191,0.48817235152968075,72.87655423432635,71.17255361267586,1.3661260092446506,0.7457764617873801,1.3709577797771937,1.7211129996170604,0.05948369629561512,-0.9047138226618245,-0.030482339170828453,0.00040028270940040443,0.04786641655708665,0.5203795995258713,1.0340737675305385,6.1704508012137245,0.9014745101797764,0.6243746143027684,1.0390368052129801,1.5409200113430235,1.8064527861922262,1.650709577669891,2.189268627081185,0.7472400877560579,Stress
77.25088774034953,777.8026315789474,115.41496375968379,,,,,,,98.8257726169309,99.49083528801187,0.1483859260354908,0.12705764753754248,775.0,123.79709999999999,0.1597381935483871,158.25,1.1678630047958847,678.0,874.0,46.05263157894737,73.68421052631578,569.0,1022.9999999999999,19.0,132.8125,,,0.023925551510017816,0.012106949706984504,0.006198838713701487,0.042231339930703805,1.9761832739930485,0.5665354580100126,0.28668163801694313,-4.413975635309558,70.35064429806704,148.08825162810948,0.47505891604917416,32729.43872373606,2.1050020665152367,5.221908667629271,1246.9043028151953,0.6842105263157895,0.6986301369863014,0.9607843137254902,0.2,50.198771232381645,50.24489710907061,50.15390849015352,45.20547945205479,0.4780461166705349,0.5219538833294652,48.64126820892906,50.82601483279781,0.5455743320044365,0.4544256679955635,109.38243082402664,99.82792243304122,0.5331404742056338,0.4668595257943664,84.64776767861615,79.2114192559415,1.2735423905782093,1.1905080545086366,1.6143219937712168,1.8687964178325276,-0.09625993279079026,-1.0936867314128556,-0.28624720505033363,0.0031449798979899333,0.1912450065223675,0.5058160388873372,1.5141277326297757,6.09003277660148,1.038503873027751,0.9381819303424354,1.2131381752928587,1.5012428230240773,1.6799094118375046,1.6481225740461283,2.9303419107555357,0.986514870543724,Stress
82.51157540321462,729.4691358024692,155.21662978074812,,,,,,,114.03694576758885,114.74682919421599,0.21278025643949763,0.1563286781724355,716.0,182.35979999999998,0.2546924581005586,245.0,1.361108268342129,587.0,879.0,49.382716049382715,82.71604938271605,400.0,1022.9999999999999,20.25,203.125,,,0.00523793259773434,0.008148947700915602,0.0029175920861154517,0.016304472384765394,0.6427741089988607,0.3212574117165895,0.49979830739753545,-4.809866476517686,81.13826104288462,204.51234062607182,0.39674017125077526,52130.8837722633,2.520541332750271,5.424065197523833,2061.927230422066,0.6790123456790124,0.6962025316455697,0.9636363636363636,0.3157894736842105,49.10822249093107,49.43903859506851,48.85965621590171,46.835443037974684,0.43490292727283214,0.5650970727271679,53.51286370844379,60.99911806791383,0.5239799691589353,0.47602003084106487,148.03924505863856,141.1016633169956,0.5118640489473377,0.4881359510526621,111.30868038884056,108.69814118899659,1.0381538558819545,0.3929110151429178,1.093564826325831,1.232558210893317,0.5830553838066477,-0.2979180650652138,-0.1462471673976144,0.00038148321657854693,0.020068422337659694,0.5768951433037923,1.1913940221190764,6.182382255944334,0.909362015325917,0.7092425611077141,0.9957313526702741,1.0801262785970622,1.737738252153472,1.7812784640839954,2.446206025157661,0.6261580249762592,Stress
90.1312185805518,668.7159090909091,131.71145307234457,,,,,,,124.10627629613239,124.80989982084982,0.1969617460595497,0.18558893935221252,657.5,128.9862,0.1961767300380228,169.5,1.0612795501016026,559.4,793.6,46.590909090909086,80.68181818181817,346.0,983.0,17.6,242.1875,,,0.015214376667657986,0.012870828639863203,0.00253591258788449,0.03062111789540568,1.1820821404253963,0.49685895595407753,0.4203252371068501,-4.352791874064995,88.25392652253656,164.64275072069128,0.5360328719984472,45648.50120986322,1.8655572302343741,5.366396632752773,1228.6018960506453,0.5909090909090909,0.6091954022988505,0.8301886792452831,0.35,51.19080587094989,51.42858357095972,50.97269503336154,42.5287356321839,0.43908236231778064,0.5609176376822195,58.48737689291556,66.10566770198741,0.5190311491972995,0.48096885080270063,118.61492116505879,114.18290520862827,0.5011831295561544,0.4988168704438457,93.51543396361657,93.29441340243308,0.9999957173661719,1.42570455914059,1.237207659473445,1.4903061942940725,-0.3415936778363289,-0.8387549341234029,-0.32247476645989365,0.000755487361228529,0.1423543182457283,0.534498541498114,1.211940973975113,6.254886164091841,1.0278954471909865,0.9738990232481519,1.1818936368477813,1.3491892067965963,1.7215571158395595,1.776248337844305,3.0156344262329333,0.9542342163896008,Stress
87.2439569329478,689.4069767441861,104.69118485358027,,,,,,,99.65617362299473,100.24076338624774,0.15185686885270291,0.14455347419550924,672.0,94.1451,0.140096875,113.0,1.0505238265482004,615.0,789.0,41.86046511627907,75.5813953488372,346.0,939.0,9.555555555555555,312.5,,,0.025234642765317054,0.032887590468753856,0.007539898126718511,0.06566213136078942,0.7672998357630431,0.3843104425998893,0.5008608430336896,-3.414659881764204,70.88092354173196,130.74223148025646,0.5421425253280595,29113.547883576197,1.8445334082488425,5.1710652433418725,964.6336553373463,0.5697674418604651,0.5783132530120482,0.8125,0.3888888888888889,49.11654470819205,49.40625770445745,48.86418826501186,46.98795180722892,0.41338127024929966,0.5866187297507004,45.575813343315794,54.292144042779384,0.6006592069883908,0.3993407930116089,101.32811470966287,82.62048330663757,0.5581138193418617,0.4418861806581383,78.56380080074842,69.90629859527782,0.941071575909107,2.7400003250184843,1.4981760940602697,1.9474566214417246,-0.5567850926735574,-0.7634313812624485,-0.3360290240555267,0.012044941730632091,0.8472270175675247,0.5402628104844869,0.9416085398584447,5.988943353836553,1.0841802652078434,1.0957068188393422,0.851879447278321,1.3182507642540666,1.519291943860291,1.7449203698611955,2.440471427673022,1.0461361228584811,Stress
78.43661022900883,766.1298701298701,133.75894959230033,,,,,,,105.02299247007019,105.68927230661473,0.17459043800188373,0.13708249288370294,741.0,143.8122,0.19407854251012144,210.0,1.2736158668342974,646.0,912.0000000000001,57.14285714285714,77.92207792207793,511.0,1062.0,11.0,148.4375,,,0.005541662161117861,0.008048692255311374,0.001656462932461788,0.015246817348891023,0.6885170889048329,0.36346353696700734,0.5278932692072156,-4.822245653504894,74.73360114667885,174.04533665262713,0.4293915745403615,40862.80488104814,2.3288766228597786,5.318298283872343,1621.320463392254,0.6493506493506493,0.6621621621621622,0.9183673469387755,0.4,51.66070516096066,51.678334254182175,51.59711504441542,43.24324324324324,0.40657332329675394,0.5934266767032461,47.666689976684275,57.58761440911868,0.6106848203387557,0.3893151796612445,136.01003545665853,108.59580777177726,0.5788938773503568,0.4211061226496434,101.90888842062513,86.91772776291995,1.0868621086707053,1.4519699022102133,1.2808248912568017,1.627932006653094,-0.17360501851481214,-0.609401829486881,-0.26094055746753425,0.002978545065731544,0.21162193684281522,0.4368449680111097,0.7316134613877411,5.997242547160313,1.0172428985742794,0.6845832944256733,0.8794439390914999,0.926952797561723,1.6506014657937575,1.7543645048544712,3.0141974173089614,0.8138683819084287,Stress
69.75243449352398,863.0147058823529,114.06249827113425,,,,,,,134.13058907413006,135.0955087047106,0.13216750246974746,0.155420977371404,865.5,133.434,0.15416984402079723,178.75,0.8503839359722429,754.0,969.8,72.05882352941177,88.23529411764706,599.0,1128.0,17.0,156.25,,,0.04143395864250747,0.06779164154606152,0.005628285084661085,0.11485388527323007,0.6111956827945355,0.36075365272962884,0.5902424753397721,-2.691316372667059,95.52695031294711,129.53776937696804,0.7374447682123814,38875.16095487758,1.3560337575166086,5.2966423101103945,702.6303525942794,0.6764705882352942,0.7014925373134329,0.9574468085106383,0.3333333333333333,51.66433566433568,51.71493368828776,51.5984562055697,46.26865671641791,0.4318971825073544,0.5681028174926456,62.80127387243033,72.02640509079313,0.6041581279960777,0.3958418720039223,100.68661154780862,81.49993834464692,0.5434502345077343,0.4565497654922657,83.91005227319106,76.9091768922418,0.9408573703409467,0.9951759331007937,1.009521660928606,1.1297709664832385,-0.12449496962560147,-0.23309101863715753,-0.3791677917893806,0.00024108957820744391,0.04437437858217558,0.30612978212184583,1.5686159179138452,5.881580488309163,1.4865315176367364,0.840093846785475,0.9120143648984202,0.991627797678054,2.0910304394302273,1.9265083792691227,3.675573536135573,1.0742581484559421,Stress
71.93554356438355,840.3142857142857,126.47718965531134,,,,,,,184.55410423857916,185.87342148624762,0.1505117689958144,0.2196250942963609,829.5,149.0013,0.1796278481012658,205.5,0.6853122566800797,731.4,971.6,80.0,94.28571428571428,565.0,1128.0,11.666666666666666,210.9375,,,0.047486111214481465,0.10928026822355037,0.056155761395569055,0.2129221408336009,0.43453509024466325,0.22302101147664094,0.5132405103373121,-2.2138394287011907,131.432356775271,120.02987248953934,1.094997054060233,49561.16573654435,0.9132444660851047,5.402111622899764,438.4664672638902,0.6428571428571429,0.6666666666666666,0.9347826086956522,0.2777777777777778,51.143431250598034,51.216643937731234,51.08473196835867,44.927536231884055,0.4439941195367964,0.5560058804632033,87.59259806224563,98.02085612406228,0.6564643134016342,0.34353568659836603,97.25118586624087,70.35180976680657,0.5405960238223386,0.4594039761776614,92.5479777944506,85.31548913520643,0.6822417604091687,2.254426752359632,0.8599057090605822,1.6662848152063563,-2.282207415046015,-2.900177998712792,-0.14231301580245867,0.003351638735301331,0.3967703732163018,0.4141448777693282,inf,5.986425874087824,1.711976528918317,1.000784962309667,0.8654928084817017,1.4059248670626212,1.8812128396497736,2.033701020254683,6.256557068046723,1.1382954174326365,Stress
71.11192345189232,851.7971014492754,132.86100429419872,,,,,,,213.20043731331378,214.76369755099904,0.1559772909160464,0.25029486124168254,836.0,160.1208,0.19153205741626794,240.0,0.6231741640330205,726.4,999.1999999999999,88.40579710144928,95.65217391304348,565.0,1092.0,13.8,171.875,,,0.013832362934712449,0.021577962935677188,0.04166481899084064,0.07707514486123027,0.6410411852103937,0.17946593496018579,0.2799600698062543,-3.836082719544834,151.86086689100813,111.08756156520833,1.3670375400387729,52998.207508893385,0.7315088069722192,5.431231291219921,325.04611852007395,0.6811594202898551,0.7058823529411764,0.9583333333333334,0.2222222222222222,50.81233812102659,50.91312354372825,50.7161324822369,45.588235294117645,0.457472432795486,0.5425275672045142,102.72416332754081,111.86675843069308,0.6252897582478253,0.3747102417521748,87.84278402448453,68.00067374174843,0.515962228670274,0.4840377713297258,95.57355396896025,92.56960427462882,0.42581467182388394,0.8232579068013843,0.502430332406471,0.7161682062130436,-0.4069099211583431,-1.088945203330786,-0.2403755590553495,5.4871944767851914e-05,0.03108789735244285,0.3796264976043835,2.0149030205422647,5.9056259060535305,1.6535518356794856,1.0631611608641767,0.6040568221627275,1.1222336486395597,1.9514364232329118,2.037931996666931,10.060424524473353,1.0623520794396815,Stress
73.28336226541569,824.9722222222222,146.87725758262297,,,,,,,201.71881140151365,203.1370472359942,0.17803903407436034,0.2445158830416678,811.5,157.1556,0.19366062846580406,208.75,0.7281287082852643,702.6,974.6,75.0,88.88888888888889,454.0,1098.0,18.0,250.0,,,0.0042383253742948965,0.049443357157601356,0.017031248737982188,0.07071293126987843,0.0857208251613089,0.05993706240403437,0.6992123826531673,-3.006927564464885,143.63958361078352,148.20889874091895,0.9691697653180531,66880.3120059752,1.0318109744909647,5.532268400441754,611.6942729524013,0.6527777777777778,0.676056338028169,0.9166666666666666,0.15,49.19713016740691,49.570696498178734,48.86751394385261,47.88732394366197,0.449031922199331,0.5509680778006689,96.26095484967634,106.62886234840116,0.5331530016124737,0.46684699838752636,108.21817597186782,101.26551266506195,0.49240555730045155,0.5075944426995481,102.41422029984307,103.9817732610675,0.4276953856252323,1.3255767025695362,0.710591831586697,0.9115280184519703,0.30528189583152354,-0.2890966234460417,-0.34841602415328154,0.0026855264292594,0.1922106544625803,0.2965582616263287,0.9903987040278769,6.086591668108979,1.5199616883152265,1.1279250692965166,0.6998706988404294,0.8825457132522239,2.025159229296071,2.0014270576727506,3.1360747224669243,0.9426274307759088,Stress
76.78738979722635,788.5333333333333,141.0385545653169,,,,,,,207.97033962121176,209.38347688499024,0.17886188015554225,0.26374324436237545,768.0,118.60799999999999,0.15443749999999998,208.0,0.6781666790668249,690.4,924.4,74.66666666666667,89.33333333333333,454.0,1102.0,18.75,296.875,,,0.020739297552396455,0.06233001312184751,0.028422009846259734,0.1114913205205037,0.3327337267177159,0.18601714873923675,0.5590570892052962,-2.7753122176392195,148.05647637379332,132.71578344108082,1.1155905690714096,61730.508879414316,0.8963862080981695,5.49746996707811,475.85839149411305,0.7066666666666667,0.7297297297297297,0.9444444444444444,0.2777777777777778,49.49671408368688,49.89168249747089,49.13749433827429,44.5945945945946,0.4353808617884707,0.5646191382115294,97.6957115476136,111.2547674828869,0.5933986812838967,0.4066013187161034,102.23412011113699,84.62661436853936,0.505779357696191,0.4942206423038094,99.9906679888001,98.8415073416849,0.3646353151769436,1.4909323192288038,0.7140733896799671,0.8330306979855702,0.2806699531127972,-0.08481358585061849,-0.4202128045844934,0.002306348650844218,0.21471450024850505,0.5606599782436117,1.8718021769015916,6.14881869049588,1.455921919712842,1.501542023240115,1.4227018662086666,1.5185958903592602,1.8260552957331306,2.000835776174418,3.5134861126648156,1.411865569845733,Stress
74.1367506155521,812.8767123287671,124.47991194538172,,,,,,,181.55979272221407,182.80074101461668,0.15313504502886527,0.22335464895048243,793.0,115.6428,0.1458295081967213,168.0,0.6856138690124834,713.8,920.4,82.1917808219178,87.67123287671232,540.0,1102.0,14.6,250.0,,,0.03231805010637534,0.08196374742219067,0.03791944002057378,0.15220123754913978,0.3942968827414256,0.2123376302767651,0.538522214024231,-2.5014782340823705,129.2596435773613,119.41072016357806,1.0824793904625263,48490.44216851009,0.9238051170403492,5.392626254284956,441.2489372663465,0.684931506849315,0.7083333333333333,0.9215686274509803,0.3333333333333333,48.83065652296422,49.07731977258455,48.612265171185015,41.66666666666667,0.4159606135488886,0.5840393864511114,83.38114590815927,98.80133716378596,0.6568667805357554,0.34313321946424463,96.77918646808631,69.94790316056462,0.526865510372425,0.4731344896275749,90.32891681621773,85.59910449856307,0.519739439142636,2.079297873914993,0.724958734681024,1.3909227804209183,-1.6899808757683488,-2.2805031205764266,-0.1797168630360845,0.0027502600956247594,0.33805166357025607,0.38044751711612124,1.7227665977411033,6.080235517784125,1.6454944481716096,0.0,0.0,0.0,1.9056097350351893,1.9696254282256425,4.078305528421833,1.1022975241841126,Stress
