PPG_Rate_Mean,HRV_MeanNN,HRV_SDNN,HRV_SDANN1,HRV_SDNNI1,HRV_SDANN2,HRV_SDNNI2,HRV_SDANN5,HRV_SDNNI5,HRV_RMSSD,HRV_SDSD,HRV_CVNN,HRV_CVSD,HRV_MedianNN,HRV_MadNN,HRV_MCVNN,HRV_IQRNN,HRV_SDRMSSD,HRV_Prc20NN,HRV_Prc80NN,HRV_pNN50,HRV_pNN20,HRV_MinNN,HRV_MaxNN,HRV_HTI,HRV_TINN,HRV_ULF,HRV_VLF,HRV_LF,HRV_HF,HRV_VHF,HRV_TP,HRV_LFHF,HRV_LFn,HRV_HFn,HRV_LnHF,HRV_SD1,HRV_SD2,HRV_SD1SD2,HRV_S,HRV_CSI,HRV_CVI,HRV_CSI_Modified,HRV_PIP,HRV_IALS,HRV_PSS,HRV_PAS,HRV_GI,HRV_SI,HRV_AI,HRV_PI,HRV_C1d,HRV_C1a,HRV_SD1d,HRV_SD1a,HRV_C2d,HRV_C2a,HRV_SD2d,HRV_SD2a,HRV_Cd,HRV_Ca,HRV_SDNNd,HRV_SDNNa,HRV_DFA_alpha1,HRV_MFDFA_alpha1_Width,HRV_MFDFA_alpha1_Peak,HRV_MFDFA_alpha1_Mean,HRV_MFDFA_alpha1_Max,HRV_MFDFA_alpha1_Delta,HRV_MFDFA_alpha1_Asymmetry,HRV_MFDFA_alpha1_Fluctuation,HRV_MFDFA_alpha1_Increment,HRV_ApEn,HRV_SampEn,HRV_ShanEn,HRV_FuzzyEn,HRV_MSEn,HRV_CMSEn,HRV_RCMSEn,HRV_CD,HRV_HFD,HRV_KFD,HRV_LZC,Labels
85.23519017273844,706.632911392405,139.33782754516042,,,,,,,188.3007346418666,189.4228756183524,0.19718558999834612,0.26647603247183044,677.0,72.64739999999999,0.10730782865583455,98.0,0.7399749544799715,626.2,746.2,40.50632911392405,67.08860759493672,576.0,1421.0,11.285714285714286,78.125,,,0.058430161083548496,0.12156028254081487,0.027883044293873525,0.2078734879182369,0.4806681908124891,0.28108520075696664,0.584780116782513,-2.1073449866452383,133.9421998615929,132.53628013157586,1.0106078103944167,55770.1840025338,0.9895035341253926,5.453372187323233,524.5804703601095,0.569620253164557,0.5844155844155845,0.8,0.2631578947368421,46.72714584787159,47.72632593299466,45.74270039692841,50.649350649350644,0.41252374208100123,0.5874762579189987,86.07230424731033,102.7150578877465,0.44883825765311214,0.5511617423468881,88.79320068637873,98.39528984145545,0.4304801519477034,0.5695198480522965,87.44333607134703,100.57836790251456,0.9195895610309668,2.8276161877176262,1.4357065831697975,1.6401250985133804,-1.3177334962237168,-0.8772794621037052,-0.4277064135396027,0.0021694917284327216,0.4944921682294635,0.716566906230029,0.9866943724641241,6.06637710890921,0.7245354499153677,0.8261520401551561,0.9939225399776337,0.9159989436074684,1.3713637736302078,1.9528385824260164,2.199208232810079,0.8777416231639004,Relax
85.052791736244,706.7469879518072,63.58992928656695,,,,,,,83.59987454769441,84.10846816667258,0.08997552217499244,0.1182882643617224,704.0,65.2344,0.0926625,85.5,0.7606462286051443,655.4,754.0,61.44578313253012,77.10843373493977,558.0,952.0,13.833333333333334,101.5625,,,0.053137795998389345,0.049781243174206465,0.025347446423637454,0.12826648559623327,1.0674260546775987,0.4142765411509007,0.38810795308535656,-3.0001170089875764,59.47366819586704,67.82206614241827,0.876907348575601,12672.013133086713,1.1403713307048273,4.80981572430381,309.3693592719213,0.6265060240963856,0.646341463414634,0.9056603773584906,0.23809523809523808,50.739996345697044,50.76434360737544,50.71989003613857,52.4390243902439,0.5237840978689322,0.4762159021310677,43.045841198011736,41.04469108991645,0.4483329557075583,0.5516670442924418,45.412075160103264,50.374359405154614,0.4811340178716472,0.5188659821283527,44.2447794366257,45.9469408782911,0.7872849469538864,2.716923659943735,1.0122205152828185,1.8809536751108842,-2.602854513747957,-2.862609099071363,-0.180251170602984,0.004995609341491109,0.5618490079821757,0.5482464449120212,1.6274564179367788,6.124980545778692,1.5474766067723815,1.2124447568507641,1.0354039827678916,1.271890580840553,1.8379502302489692,1.9389140744955227,2.9002090444554285,0.998500151897711,Relax
86.08087126373063,697.7857142857143,53.46501421739998,,,,,,,65.44251593242932,65.83934221459137,0.0766209641768451,0.09378597840659335,698.5,58.5627,0.08384065855404438,75.0,0.8169767536535982,652.6,751.6,44.047619047619044,66.66666666666666,558.0,798.0,7.636363636363637,101.5625,,,0.040858014557715844,0.03557089601456234,0.011296659457600717,0.08772557002987891,1.1486360799286308,0.46574806574411315,0.4054792234743766,-3.3362275031629833,46.55544534879928,60.00796670588947,0.7758210768409539,8776.659901965897,1.2889569900213005,4.6502993796113925,309.3907525700868,0.5595238095238095,0.5783132530120482,0.8541666666666666,0.07692307692307693,50.363196125908,50.35284076465542,50.37415607493171,50.602409638554214,0.5354886261977236,0.4645113738022764,34.068439010106786,31.730380917517074,0.5130278196841224,0.48697218031587747,42.981282442875084,41.87559465537102,0.5214674186967851,0.4785325813032147,38.78175587192751,37.150925297438214,0.9039978819367762,0.8265804663746374,1.1686667396708803,1.200392746405714,0.7644266532947706,-0.004475586928805786,-0.4616177637562823,0.0015059924407300298,0.0931683375284207,0.5087147925907112,1.6094379124341005,5.930949714419671,1.4459193532522314,1.2477777763458813,1.0332669187261607,1.3039102534119673,1.595924544590859,1.8673135361060467,4.331935029687011,1.0653862371297935,Relax
86.06369089183006,697.5238095238095,39.51954715073828,,,,,,,33.34305079240018,33.54574597725816,0.05665691494849153,0.047802025303140615,691.0,40.0302,0.05793082489146165,55.0,1.185240888627561,663.6,723.6,11.904761904761903,46.42857142857143,636.0,798.0,8.4,23.4375,,,0.04979227973887503,0.026472396865612244,0.0020802965588863163,0.07834497316337359,1.8809131636869427,0.6355516854290405,0.33789528283338716,-3.6316527165738646,23.720424460480587,50.707811075078546,0.46778640129742266,3778.7415797328517,2.137727811724461,4.284317302399168,433.5979920274602,0.5119047619047619,0.524390243902439,0.7906976744186046,0.037037037037037035,50.000000000000014,49.993169387351934,50.00752129808785,46.34146341463415,0.5211214183536346,0.47887858164636526,17.123475541902884,16.414783640097713,0.49799790826943025,0.5020020917305696,35.78397838943425,35.92755202696618,0.5021494356391887,0.49785056436081143,28.050904833976784,27.930575688674782,1.3000217558282035,1.7604183503297088,1.5848729150537082,1.7467037810553019,-0.46896068747054365,-0.35853701661490867,-0.4080724953978784,0.0008531594048316289,0.18679143826639477,0.6348826919411139,2.451005098112319,5.788092571562527,1.226036299633326,1.2725156069318944,1.1883975477765911,1.321054610542134,1.8526907061850308,1.7340352943070405,2.655338277498948,0.9131882032541088,Relax
86.49564697724027,694.0833333333334,51.32561030413929,,,,,,,44.26045584725974,44.52928127624056,0.07394733145031473,0.06376821589231803,692.5,40.0302,0.05780534296028881,53.25,1.159626789232831,660.4,725.0,14.285714285714285,47.61904761904761,598.0,865.0,7.636363636363637,85.9375,,,0.04136764884409813,0.033739231560735355,0.004179053836997072,0.07928593424183056,1.2260993191155096,0.5217526821078048,0.42553867698433245,-3.389093977442723,31.48695675179286,65.82172335448304,0.47836724939910463,6511.03169128217,2.090444112250866,4.5206199191645435,550.3865361783377,0.4880952380952381,0.5060240963855421,0.8095238095238095,0.07692307692307693,50.24875621890548,50.191843311036,50.309869464538515,49.39759036144578,0.6059435656473713,0.39405643435262866,24.51032634546051,19.765700767472634,0.4934945387820351,0.5065054612179647,46.239212003768266,46.84479201175593,0.5144351183721031,0.4855648816278971,37.005545694465866,35.9521728512613,1.1328230550035303,1.5441443814505327,1.2741770190824306,1.6049040990612706,-0.5668575554221409,-0.7373766923655021,-0.2858185517158941,0.0015720009336471696,0.16524408533326856,0.7663608358756524,1.7311348474116202,6.011365041826378,1.0129060113869188,1.3855266643840742,1.1173743398555118,1.6225118458184231,1.7870449866598541,1.6716690954215718,2.321272430995722,0.9892872201919511,Relax
83.56206795323988,718.6219512195122,66.34340892098363,,,,,,,54.88011625802033,55.186269874997436,0.09232032059192997,0.0763685497846092,713.5,62.2692,0.087272880168185,87.0,1.2088787969957704,671.2,780.6,25.609756097560975,57.3170731707317,598.0,865.0,11.714285714285714,140.625,,,0.05242517496971766,0.049891055268213004,0.0029717264516738863,0.10528795668960454,1.0507930667708127,0.49792185752327156,0.4738533906142271,-2.9979135454344528,39.022585657001564,84.9628795125361,0.45928982022371145,10415.860101590139,2.177274470209069,4.724665248091107,739.950033912376,0.4268292682926829,0.4444444444444444,0.6944444444444444,0.04,52.6178010471204,52.54095559880048,52.69161429228439,58.0246913580247,0.6742799990162242,0.32572000098377596,32.063998502993975,22.285365152942862,0.39744494654153445,0.6025550534584656,53.563347700528105,65.95194218651986,0.44572129384495934,0.5542787061550408,44.14256572112494,49.22548211127067,1.0995368028362524,1.9719206639901077,1.4939928383339733,1.457786845574241,-0.06109415687605946,0.4474316186585279,-0.5183607755732276,0.0009804818986975424,0.24755845310321556,0.5582415411382464,1.3987168811184478,5.973286455784828,1.1127589387289225,1.1092570147106482,1.0191357607318123,1.3707491532431904,1.7183786728511998,1.7070619566855723,2.581468711870267,1.162966830113064,Relax
80.84886687836521,742.4050632911392,45.33112333998765,,,,,,,43.22703925874317,43.50543388155987,0.06105982512973614,0.058225679478954996,746.0,47.4432,0.06359678284182305,60.5,1.048675183804519,704.0,775.4,24.050632911392405,56.9620253164557,650.0,861.0,9.875,132.8125,,,0.05508072152833074,0.05842710100968784,0.001203038401990423,0.114710860940009,0.9427255601676654,0.48017006477823077,0.509342363320277,-2.8399754384046823,30.762987316113957,56.66623939624621,0.5428803401086788,5476.49595398388,1.842026550086177,4.445472881112069,417.52286984569923,0.45569620253164556,0.4675324675324675,0.75,0.03571428571428571,50.52920423363386,50.50621791418203,50.5518533645209,53.246753246753244,0.5766283130587516,0.42337168694124827,23.360945319780324,20.01720039586734,0.42376257712480647,0.5762374228751937,36.888049551107066,43.01551449916363,0.4585613835222418,0.5414386164777583,30.874438990196214,33.54864229231988,1.0208400073824304,2.859045149538735,1.3833588719528507,1.9497052289932617,-1.4486808058844165,-1.157624363722885,-0.30191066337942135,0.006757970103569489,0.6530714046758271,0.5245191127808173,2.1282317058492684,5.898717457037862,1.4368779464813062,0.9519584407175632,1.2309545129795085,1.4107445487321932,2.0058066221168542,1.8092047599747134,3.2301825961995605,1.0373310091937005,Relax
80.26432554781286,747.632911392405,31.584716043823654,,,,,,,33.96076167186674,34.17775905642753,0.042246289004318587,0.045424380273224735,748.0,35.5824,0.047570053475935827,43.5,0.9300355613045211,717.6,775.4,13.924050632911392,55.69620253164557,695.0,826.0,7.181818181818182,70.3125,,,0.05192856515887699,0.10704693505098746,0.005157458856355363,0.1641329590662198,0.4851009058236271,0.3163810940490404,0.6521964610885931,-2.234487895360641,24.167325194559844,37.72566024903263,0.6406070837469187,2864.2789275210357,1.5610192665229174,4.16398541786605,235.56192996415078,0.5063291139240507,0.5194805194805194,0.8,0.034482758620689655,50.78413284132842,50.77387386409868,50.79362488529225,48.05194805194805,0.47477767896843037,0.5252223210315696,16.653652927936136,17.516040885762067,0.6000470597357175,0.3999529402642825,29.223316741061325,23.85839893783835,0.5635931775550359,0.4364068224449641,23.783885271256157,20.92886628784195,0.7197586957122803,1.127606922142078,0.8886587491351587,0.9878174885718558,-0.14937341930951664,-0.37653508445165107,-0.4120626722933481,0.00012505047383336618,0.0625117808495215,0.4328503619164539,2.169053700369523,5.8036570139451165,1.6232546468115423,1.3053356967509118,1.1256701965066827,1.3600863745795841,2.0112130292664423,1.9648631736298412,4.121085363832984,1.1171257022086005,Relax
80.8675792220991,742.1139240506329,33.19676665664438,,,,,,,32.69301658356618,32.89696981046465,0.04473270960265587,0.0440539053695691,739.0,34.099799999999995,0.04614316644113666,45.0,1.0154084916511321,714.2,768.4,8.860759493670885,54.43037974683544,659.0,823.0,7.9,78.125,,,0.02464036496392236,0.07505400307407914,0.0025630887655659347,0.10225745680356743,0.3283018087603142,0.24096399161633303,0.7339709535144703,-2.5895473835632465,23.261670433468687,40.809888136295704,0.5700008379287888,2982.3332841918373,1.7543833858800955,4.181526285429327,286.3847589037696,0.5189873417721519,0.5384615384615384,0.8333333333333334,0.037037037037037035,48.6810551558753,48.70830937357572,48.65493426456737,46.15384615384615,0.4352816994326429,0.5647183005673572,15.350663084793997,17.48468717805056,0.5573136964518839,0.442686303548116,30.46598770639821,27.152726617608085,0.5273776940365958,0.4726223059634042,24.122803154580357,22.83620862232661,0.805232244960687,1.6058543083939867,0.957936026453561,1.4287256325171436,-1.196761314952715,-1.7455791360658477,-0.2068291914137474,0.0011102981956555228,0.1727622544705387,0.5125254117255449,1.9218125974762528,5.879606381033725,1.4962815550935915,0.8270267396490358,0.7551062215360906,0.928393016676077,2.0191163258270257,1.8694154541379548,2.809934008480157,1.1969203952235006,Relax
80.84353661481428,742.9873417721519,38.2436499407673,,,,,,,45.067328549228456,45.345767109385136,0.05147281493322571,0.06065692645817514,743.0,35.5824,0.047890174966352624,47.5,0.8485892368568632,713.2,773.8,18.9873417721519,59.49367088607595,643.0,850.0,7.181818181818182,109.375,,,0.03454372146378994,0.047415933942261054,0.008559040766019547,0.09051869617207053,0.728525594494337,0.3816197418279692,0.5238247560716766,-3.0487969476504926,32.064299421152135,43.439342078655386,0.7381396192210619,4375.773834004116,1.354757249116735,4.348024976947511,235.39905431168003,0.6075949367088608,0.6282051282051282,0.8979591836734694,0.13043478260869565,51.62151850438763,51.6576044611118,51.58404143138357,44.871794871794876,0.455104372471169,0.544895627528831,21.637359466333333,23.675841158139544,0.5679882629955691,0.4320117370044308,32.7380584427021,28.55163689928586,0.5281603950512599,0.4718396049487404,27.748475591220345,26.22728945367893,0.905510622112472,1.8826371104467161,1.1611349202708028,1.5569633895422557,-1.1884276008450492,-1.4315833864703986,-0.28974786639708283,0.0011003853745326284,0.22188600151146962,0.3827822441065143,2.3025850929940455,5.8036570139451165,1.4683511456669254,1.451302258504148,1.2658288879812922,2.0049031986000667,2.054875840213516,1.8772190218545632,2.8618308408355206,1.1171257022086005,Relax
82.78954411972441,724.939024390244,50.365417186986065,,,,,,,50.535893612460015,50.84415185424748,0.06947538412537399,0.06971054380051679,729.5,57.080099999999995,0.07824551062371486,69.5,0.9966266268727477,677.4,765.4,28.04878048780488,60.97560975609756,610.0,850.0,10.25,148.4375,,,0.018056860734582177,0.03007689496531914,0.009994291704516392,0.05812804740441771,0.6003565446301241,0.3106393822065639,0.5174248286040537,-3.503998011115653,35.95224455981697,61.74467788330894,0.5822727689625816,6973.895112532282,1.717408151821475,4.550445521256552,424.1632525135436,0.524390243902439,0.5432098765432098,0.8409090909090909,0.07142857142857142,48.933419521654805,48.91885078925991,48.952955436927375,50.617283950617285,0.47628393533915997,0.5237160646608399,24.815065988225783,26.021385435829508,0.5434324985804765,0.4565675014195236,45.51686400589967,41.720742299029325,0.5264273689719808,0.4735726310280191,36.65768956802628,34.76875636244425,0.8931019157686674,1.4529543855025429,1.1746712559356975,1.4732911791617274,-0.41864768211844705,-1.117387214731604,-0.2944739861033255,0.0011945592148752836,0.1719609505558485,0.5722394941184397,1.8405496333974871,5.906094077683281,1.30598743697483,0.0,1.3839069201799539,1.7410348858015892,2.0198543248262366,1.8319542243859503,3.480741047839956,1.0854357081055264,Relax
85.36635221252563,702.952380952381,51.0324500501219,,,,,,,57.88855100405777,58.23779114429932,0.07259730734673892,0.08235060094060515,698.0,47.4432,0.0679702005730659,61.25,0.8815637835976361,663.0,739.4,30.952380952380953,54.761904761904766,597.0,836.0,10.5,62.5,,,0.03620132521013849,0.04231702051170826,0.011491003743358279,0.09000934946520503,0.8554790666351927,0.40219516556036056,0.4701402772393859,-3.162565897698168,41.180337039459914,59.32640304408057,0.6941317006672761,7675.16617841852,1.4406487976830469,4.592057897314777,341.87404486525816,0.4880952380952381,0.5,0.7560975609756098,0.037037037037037035,49.32590855803048,49.297700970035486,49.35748516605034,54.87804878048781,0.5998310203494644,0.4001689796505358,31.895121578194445,26.05142662635374,0.43694456468945986,0.5630554353105401,39.2158098927841,44.5167648487815,0.4899109688161236,0.5100890311838765,35.74338068814132,36.472038480663514,0.8288557924410106,0.8441405101670459,1.2696839161587574,1.0686915083296418,0.9668951962544545,0.32256626788865583,-0.7381030236178827,0.0022412881507010273,0.11438585890781804,0.5193786044184057,1.5939337258981352,6.049997333467289,1.2587385007962295,1.4209009219162645,1.3480089238195996,1.6930424535510673,2.0785689167930923,1.8281911715937924,3.0999612860322454,1.2175842710054783,Relax
83.22903025870049,721.4512195121952,42.345770246314906,,,,,,,49.35772670195808,49.642502821873855,0.058695264629182745,0.0684145031112859,723.5,33.3585,0.04610711817553559,43.25,0.8579359925147242,693.0,750.0,18.29268292682927,56.09756097560976,617.0,837.0,7.454545454545454,125.0,,,0.04825163463574343,0.10005158762546051,0.037604860616845065,0.18590808287804902,0.4822675559769394,0.2595456522855721,0.5381777170554323,-2.30206934975785,35.102550380419316,47.51256331581686,0.7388056532983084,5239.586390142268,1.353535934024897,4.4262671153484625,257.23984706236496,0.5609756097560976,0.5750000000000001,0.8260869565217391,0.13043478260869565,52.1880650994575,52.27420336691121,52.10821922474578,56.25,0.6480532709001627,0.3519467290998374,28.271120423499315,20.834166650000668,0.40170080116540385,0.598299198834596,30.113401202212305,36.75087401510479,0.4887394142903667,0.5112605857096334,29.20679015199549,29.872137861844642,0.9193413838660806,3.347907581678556,1.4764903420155313,1.9566106064014268,-1.1808349223710675,-0.6337689023997655,-0.3565909444414307,0.01084234935889781,0.9701663435057973,0.5422908085434504,1.6863989535702286,5.826944992370194,1.2575418372255873,1.0302923789251857,1.109257014710648,1.586127176283775,1.9328532226121151,1.9514094370616728,2.3584470924463,1.0854357081055264,Relax
81.66527773755864,735.15,54.84779861269026,,,,,,,54.6564645208968,55.00156676532679,0.07460762920858365,0.07434736383173067,731.0,58.5627,0.08011313269493844,78.5,1.003500667184946,689.8,779.4,30.0,61.25000000000001,619.0,891.0,10.0,148.4375,,,0.05296419532208217,0.04300850895487033,0.004630332051591759,0.10060303632854427,1.2314817837014191,0.5264671649582663,0.42750706662983146,-3.146357300193365,38.89198083564722,67.18187322173522,0.5789058710417824,8208.46677798115,1.727396542378174,4.621232154773577,464.198942054857,0.575,0.5844155844155845,0.8,0.2777777777777778,49.154704944178626,49.06434948221035,49.2435181615983,57.14285714285714,0.5589049106140279,0.44109508938597214,29.077813376683444,25.83205125023702,0.40006901633514236,0.5999309836648576,42.493212804420914,52.03586220232642,0.43994297595573373,0.5600570240442663,36.40873772332016,41.07934899030397,1.179840130746484,1.1957438226035961,1.3439790109540999,1.4704705048026643,-0.3419996552975402,-0.5812505976937068,-0.39421522281156884,0.00010364658912820113,0.06724473871510411,0.5259162155137465,1.7707060600302222,5.909183719779189,1.259645368630879,1.3559108052283602,1.1843284451597424,1.502886046148265,2.099589689127489,1.7647843812631583,2.9676592062215517,1.0273133154191965,Stress
83.39140290431826,719.439024390244,65.72691305904304,,,,,,,58.41074228953793,58.72055080139961,0.09135855969830033,0.08118928819442842,709.0,67.4583,0.09514569816643159,89.75,1.125253857128529,665.4,771.8,30.48780487804878,60.97560975609756,544.0,969.0,13.666666666666666,117.1875,,,0.03847142933585112,0.015482446116462933,0.00678187303232272,0.060735748484636774,2.4848418038376594,0.6334231535087205,0.2549148813137497,-4.168048405444701,41.52169966667883,78.79371802371048,0.5269671327628451,10278.188763236998,1.897651557046988,4.718886699384055,598.0920867728621,0.5609756097560976,0.569620253164557,0.8444444444444444,0.3125,46.98186143324413,47.42718514842711,46.43846084836636,62.0253164556962,0.585698932902007,0.41430106709799286,31.80624938593043,26.750584105772344,0.3625975236458394,0.6374024763541605,47.44648138354426,62.90692652101983,0.41115639513356367,0.5888436048664364,40.39063069375751,48.336710450345024,1.196899176035783,1.514301071451328,1.401545975406318,1.7308185251377193,-0.6797010312885412,-1.1095453403261946,-0.28255806857759025,0.0009187650964571815,0.15415550869176226,0.5336752522104646,1.4170660197866443,6.006882644835603,1.1156056792420792,0.929324850524386,1.3027571813095737,1.6549649469828858,1.8864413498903816,1.6914918430018104,1.889313995570508,0.9303734640904512,Stress
85.83260604847494,699.964705882353,56.09843539512946,,,,,,,57.992199803898096,58.33448076897869,0.0801446629004152,0.08285017703970517,697.0,50.4084,0.0723219512195122,72.0,0.9673444977915574,660.0,747.8,30.58823529411765,68.23529411764706,544.0,843.0,9.444444444444445,140.625,,,0.054097370174784803,0.025627067655516804,0.019079613049517115,0.09880405087981872,2.1109465547120108,0.547521783702843,0.25937264137771576,-3.664106155782969,41.24870692874108,68.08115664297348,0.6058755309498444,8822.407972947,1.6505040209038944,4.652557246866311,449.47289114806244,0.5176470588235295,0.5301204819277108,0.8636363636363636,0.08695652173913043,50.96048298572996,50.907744404147856,51.010543561170486,57.831325301204814,0.5800176991150443,0.41998230088495564,31.41780248924186,26.734414443983066,0.5120490435022296,0.48795095649777037,48.71724325519696,47.55706150992784,0.5303025178688782,0.4696974821311219,40.990536125056025,38.57721487563423,1.0339144916257945,1.0649192257936066,1.2163394664200977,1.5169400825795338,-0.044442177315104914,-0.9455741334289771,-0.21772449132428753,0.0010411612705054423,0.11074937860190787,0.4368637274033138,1.3581234841531942,6.000509906700483,1.2855770212689188,0.9914921930161793,1.170321519141336,1.6149780347224811,1.896410424110937,1.7853508065983656,3.301732243168194,0.980259790232825,Stress
86.89053857905986,691.1294117647059,47.80386222573945,,,,,,,58.93075032046795,59.28294514128166,0.06916774400278919,0.085267316536271,696.0,45.9606,0.0660353448275862,63.0,0.8111870622006337,654.4,730.2,30.58823529411765,67.05882352941175,564.0,800.0,10.625,117.1875,,,0.044119397485563934,0.04864324175677092,0.013112436183452904,0.10587507542578775,0.9069995315314837,0.4167118399503673,0.45943997263895214,-3.0232423955851737,41.91937251811035,53.446854585281635,0.7843187937509468,7038.608301308193,1.2749917609618582,4.554456907340956,272.57719698224236,0.6,0.6144578313253012,0.9019607843137255,0.17391304347826086,50.52341597796143,50.50080102506095,50.54637551910774,53.01204819277109,0.5405768584729086,0.4594231415270912,30.82167911737545,28.4141064575878,0.4345895105337524,0.5654104894662477,35.233985510296144,40.18871147624021,0.4749578278331078,0.525042172166892,33.101432284375676,34.80297383776,0.8920631373658945,2.7537255810075933,1.2674937085073672,2.0889096164626952,-2.0202038959011617,-2.639483492790866,-0.20170742007823073,0.006715919116483803,0.6913493260540444,0.4459745408267244,1.7272209480904839,5.997396230153536,1.3176076493261666,1.2755010906089603,0.6205207870333276,1.1691210559537102,1.874337100174386,1.8517667684969734,4.374161069433203,1.1310689887301828,Stress
84.73025726375192,708.3493975903615,51.08993355454954,,,,,,,59.86437924541625,60.211977498391356,0.07212532929137162,0.08451250110335497,705.0,47.4432,0.06729531914893616,69.5,0.8534279349177656,669.4,750.8000000000001,34.93975903614458,71.08433734939759,564.0,813.0,7.545454545454546,109.375,,,0.057693582030073895,0.06746409517995183,0.026615116701421047,0.1517727939114468,0.855174621051148,0.3801312510840101,0.4445071704966726,-2.696159745884991,42.57629759776434,57.82597856542578,0.7362832182700105,7734.651605705872,1.358173017102882,4.595410866377646,314.15073510052366,0.6385542168674698,0.6499999999999999,0.8653846153846154,0.19047619047619047,51.693357836702546,51.59714997083504,51.78939791871924,53.75,0.5691384197613205,0.4308615802386794,32.13119325899543,27.95675673095111,0.4340674943031561,0.5659325056968438,38.097951366526864,43.50160800157662,0.48157147617724905,0.5184285238227512,35.241080279789664,36.56480647861011,0.69364663533476,2.014291636151528,1.0232650718046044,1.2822306130126693,-0.8225521843552883,-0.8115862485998768,-0.3714359248877982,0.0010943222210082052,0.2543746008708852,0.4346154315663213,2.1041341542702074,5.832635214375192,1.4078719113285514,0.8392242806913939,1.268056618004876,1.6603985227706182,1.8606446988593377,1.8937279482357368,4.04712801393201,0.998500151897711,Stress
83.06871184661685,723.1975308641976,60.13327276830324,,,,,,,75.09793605685844,75.57147677044443,0.08314916769204941,0.10384152717877625,727.0,65.2344,0.08973094910591471,86.0,0.8007313639455405,675.0,772.0,56.79012345679012,86.41975308641975,572.0,841.0,13.5,101.5625,,,0.0512819884161726,0.047078125323888456,0.01918957487350729,0.11754968861356835,1.0892954650033826,0.4362579690428316,0.4004955340941192,-3.0559468163316996,53.43710368866291,66.83021184456827,0.7995950067156056,11219.296399143257,1.2506331225198273,4.756935731627832,334.3203060713358,0.6419753086419753,0.6538461538461539,0.8823529411764706,0.14285714285714285,50.158667195557314,50.11357606912927,50.20006717524011,56.41025641025641,0.563050782843059,0.43694921715694096,40.09758665675782,35.32319136348337,0.4121339233054233,0.5878660766945767,42.903430530271386,51.24034410427051,0.4709921975042871,0.529007802495713,41.524214664229504,44.007389788678196,0.7812194973793559,1.667648944483164,0.9959400426579204,1.5447788399473967,-0.820564046653935,-1.6837603548684736,-0.17089068769232374,0.0029961729559573407,0.27663937370959624,0.489039666165604,2.054123733695546,5.916829478113138,1.58111294101336,0.9932604352077794,0.8601045237038591,1.0333913188438455,2.0743813762553622,1.9162223430169985,5.441967199002266,1.0957765437084537,Stress
84.48771469502884,710.9397590361446,70.0954661554582,,,,,,,70.5914905394791,71.02559750790566,0.09859550723466362,0.09929320964575591,719.0,80.0604,0.11134965229485397,102.5,0.9929733119356151,643.8000000000001,765.6,50.602409638554214,68.67469879518072,572.0,864.0,13.833333333333334,156.25,,,0.051574366765438986,0.01751327498144233,0.008917239494063709,0.07800488124094503,2.944872779082665,0.6611684543962542,0.22451511627005147,-4.044796115253619,50.22268163566643,85.8991994323202,0.5846699616244594,13553.107625935001,1.710366643809747,4.83900899705813,587.6765017560065,0.6265060240963856,0.6419753086419753,0.8846153846153846,0.18181818181818182,50.188094711219286,50.12442401835202,50.2446439491249,51.85185185185185,0.5701350157481664,0.4298649842518336,37.92194712925583,32.92818598250996,0.4627628141885627,0.5372371858114371,58.434366891462645,62.96107709615086,0.49011649749878117,0.5098835025012186,49.257736996740626,50.24123138024295,1.0822508758958989,2.1459895210197626,1.4642295003382144,2.0508308748323136,-0.6351255599442744,-1.3889446200879458,-0.22665226519123474,0.008596545279308724,0.5731896542604034,0.48376993608416274,1.1749852674526837,6.109979190383072,1.2014363684126401,1.2268656485588627,1.0788837723334532,1.2512294002552098,1.8180733498132124,1.7642836000121196,3.852145732669782,0.998500151897711,Stress
84.26204280081551,712.7560975609756,65.4289853417777,,,,,,,59.89105335194012,60.26395898948575,0.09179715973763426,0.08402741633061442,719.5,77.09519999999999,0.10715107713690061,86.5,1.0924667655667168,649.6,764.6,40.243902439024396,58.536585365853654,581.0,851.0,13.666666666666666,171.875,,,0.03770084736908641,0.015686404313058042,0.009963663859920315,0.06335091554206476,2.4034091316709585,0.5951113262767795,0.24761132777382405,-4.154960909115323,42.613054062613365,82.66214798731365,0.5155086711411526,11066.21796559996,1.9398315799157286,4.750969329999066,641.4025805178336,0.6463414634146342,0.6625,0.9245283018867925,0.23809523809523808,50.197405527354775,50.14924971224273,50.240201129689,48.75,0.5689917464600643,0.43100825353993577,32.1438174459724,27.976105876265194,0.49603017747036804,0.503969822529632,58.21846301372561,58.682546589220266,0.5113488563957255,0.4886511436042743,47.02453846493624,45.9690318268506,1.1429265589840163,2.5548730165846845,1.6430590677938153,2.1397639171490637,-0.7493798061536019,-1.085582147104506,-0.3055853084944175,0.008441182316189568,0.6857901419579642,0.49197473720525275,1.1657515915057386,6.080053376542921,1.2457641350869617,1.1381186786069473,1.0223584232682128,1.3567579702971042,1.6606078121265477,1.7685903639194043,3.5303750683581585,0.8528423420829138,Stress
80.67747592204067,744.9493670886076,66.6021287744363,,,,,,,70.5380421093142,70.96228355715229,0.0894049068525678,0.09468837108351298,736.0,68.19959999999999,0.09266249999999998,95.5,0.9442015511462829,688.8,807.4,40.50632911392405,72.15189873417721,614.0,930.0,9.875,125.0,,,0.05917547730238549,0.04490836888829237,0.0065244113266615545,0.11060825751733941,1.317693756582029,0.5350005382112533,0.40601280497753384,-3.10313111210803,50.17791191174502,79.15683711344751,0.6339049631282018,12478.169771948418,1.5775235377006485,4.8031210000971996,499.48709486559875,0.6075949367088608,0.6282051282051282,0.8775510204081632,0.09523809523809523,52.02044790652387,52.043272737901184,51.9975453937345,51.28205128205128,0.6220052667109854,0.3779947332890146,39.59199381220873,30.86407149244748,0.5126955408017028,0.4873044591982975,56.6784810327604,55.257168309857136,0.5440494833646541,0.45595051663534597,48.88750446794638,44.75458389212656,1.056936167084357,1.0450317282751227,1.2379559096537882,1.4814018921187757,-0.014076710548515337,-0.8076957397514413,-0.26704441034837545,0.0007494353050223926,0.09360585018575728,0.49331228151268647,1.8325814637483102,6.015744197516804,1.34910594360445,0.9446229032009059,1.398052674749774,1.674643770233797,1.9590793075458635,1.859311166882231,2.518693656250929,1.1171257022086005,Stress
79.39019270550385,756.6538461538462,62.043936447891916,,,,,,,81.25133365538821,81.7688379344042,0.08199778110329842,0.10738243659025534,742.0,51.891,0.06993396226415094,87.25,0.7636051453756962,708.4,808.6,51.28205128205128,85.8974358974359,633.0,930.0,11.142857142857142,70.3125,,,0.057720980347762976,0.052129812454567104,0.026159129824220653,0.13600992262655073,1.1072547095401266,0.42438800958846484,0.38327948026044056,-2.9540182778574122,57.81929979316101,65.91204862904127,0.8772189758290332,11972.573473459433,1.139966220013572,4.785157620869177,300.55003571599565,0.6153846153846154,0.6363636363636364,0.8571428571428571,0.15789473684210525,48.80788177339902,48.77079353248156,48.846219686145226,58.44155844155844,0.5906101660906052,0.40938983390939465,44.44311858402473,37.00177805116084,0.46858243798342497,0.5314175620165752,45.11882842888955,48.04882387407135,0.5216601977304548,0.4783398022695452,44.782247979915304,42.88252006720744,0.8199068513642639,0.5483235147769469,1.04173491759197,1.0940686087527374,0.6638543425170544,-0.3251282753189496,-0.4045569089225431,0.0010807855746736703,0.05184585923447476,0.5344346837740832,2.240709689275958,5.846111673907243,1.5787263463020362,1.0495010306434214,1.1670802272880048,1.5405959081959042,1.9039832584878038,1.938127476888174,3.7796486481318436,0.9669849567480383,Stress
81.40740972521495,738.3037974683544,58.77539918619794,,,,,,,86.76788960592891,87.32509182171906,0.07960869141908646,0.11752328770819848,730.0,59.303999999999995,0.08123835616438356,73.5,0.6773865245903338,690.0,793.4,59.49367088607595,87.34177215189874,594.0,871.0,11.285714285714286,156.25,,,0.014414313939853837,0.07898739432309665,0.02385436418478168,0.11725607244773216,0.1824887890451522,0.12293021281502614,0.6736315883197087,-2.5384670047774716,61.74816459487546,56.17281917783382,1.0992534378484908,10896.829268910373,0.9097083216380436,4.744270256403437,204.40352422377805,0.6582278481012658,0.6794871794871795,0.9245283018867925,0.13636363636363635,50.594197832925545,50.55167687769103,50.629973032236194,53.84615384615385,0.5531285547888753,0.4468714452111247,45.92604161803299,41.27977083898941,0.42823168866696565,0.5717683113330345,36.75916362002545,42.47528109785516,0.4965752423497484,0.5034247576502516,41.595897686821836,41.88179189612887,0.5857308436200469,2.2126872099670454,0.817972030297458,1.476504668555072,-1.9140153620404714,-2.39831504319345,-0.20238331234019216,0.002387781430299873,0.3497838156622314,0.4636026499982697,2.427748235948052,6.031505115210938,1.7346786680192634,0.9317578050195782,1.136345612239438,1.368081958623397,2.0347523487933135,2.0060995485852757,5.415413630132951,1.1969203952235006,Stress
82.71209025791738,727.679012345679,66.54487718083448,,,,,,,99.99962499929687,100.63049340300209,0.09144811936560675,0.13742271427747696,729.0,69.6822,0.09558600823045267,92.0,0.6654512672552759,674.0,794.0,71.60493827160494,87.65432098765432,584.0,871.0,11.571428571428571,164.0625,,,0.019544554342630322,0.07863264245395156,0.017948499028986823,0.1161256958255687,0.24855522760888904,0.16830516453471256,0.6771338754522075,-2.5429683673631565,71.15650427941091,61.43698789013551,1.158203009669945,13733.91616619277,0.8634064940696119,4.844764502031846,212.18037728167644,0.6419753086419753,0.6625,0.9433962264150944,0.16,50.05839416058393,49.99384899938716,50.11947672931648,52.5,0.5500303752278142,0.44996962477218566,52.772559516994086,47.73164701309057,0.4369973949126178,0.5630026050873822,40.613399122594245,46.09832201633286,0.5017552987826147,0.4982447012173854,47.08710665493168,46.92209191470366,0.5307963564021938,2.486152102308401,0.7685576488966233,1.6567712197090205,-2.570151164755176,-3.3269179592011593,-0.14273562748325505,0.0038456275768137243,0.49287728989107016,0.47792336007389213,2.917770732084279,6.0002231509793535,1.6909269281877952,1.4609082018994815,1.129276822714905,1.131802161129595,1.943802224741021,2.023802932476883,4.858764545620875,1.1740462968304861,Stress
82.61748319806087,729.1481481481482,71.22536611192517,,,,,,,101.46310905940149,102.05127077645142,0.09768298293401634,0.13915294075297607,726.0,77.09519999999999,0.10619173553719007,88.0,0.7019828859199094,668.0,794.0,80.24691358024691,90.12345679012346,584.0,926.0,13.5,187.5,,,0.009957639876193348,0.07749975546077958,0.017891677300186776,0.1053490726371597,0.12848608123973534,0.09452043218727867,0.735647248910316,-2.5574804979725934,72.16114559473334,67.23955791596325,1.0731948250599914,15243.269967737531,0.9317972623881224,4.8900482512837025,250.61454396112862,0.6172839506172839,0.6375,0.9411764705882353,0.15384615384615385,51.819075712881016,51.61752773635564,52.03592233014861,52.5,0.5877976786739859,0.41220232132601425,55.35266679681284,46.35321189696089,0.46835712926698253,0.5316428707330174,46.01648238950001,49.026946643973375,0.5323193068002654,0.4676806931997346,50.89908826797466,47.708813391215095,0.4547191611075697,0.8733580723750847,0.5485648907326013,0.7619433001369622,-0.42823021356749447,-1.1055418383382918,-0.25568049789236913,5.538080063654619e-05,0.035603661827462454,0.4609968584234485,1.3217558399823195,6.10830818187026,1.614357537749072,1.295041597708437,1.3355807013023482,1.509039081918831,1.6612614659518925,2.0504199614578438,4.1017455380955505,1.0957765437084537,Stress
