PPG_Rate_Mean,HRV_MeanNN,HRV_SDNN,HRV_SDANN1,HRV_SDNNI1,HRV_SDANN2,HRV_SDNNI2,HRV_SDANN5,HRV_SDNNI5,HRV_RMSSD,HRV_SDSD,HRV_CVNN,HRV_CVSD,HRV_MedianNN,HRV_MadNN,HRV_MCVNN,HRV_IQRNN,HRV_SDRMSSD,HRV_Prc20NN,HRV_Prc80NN,HRV_pNN50,HRV_pNN20,HRV_MinNN,HRV_MaxNN,HRV_HTI,HRV_TINN,HRV_ULF,HRV_VLF,HRV_LF,HRV_HF,HRV_VHF,HRV_TP,HRV_LFHF,HRV_LFn,HRV_HFn,HRV_LnHF,HRV_SD1,HRV_SD2,HRV_SD1SD2,HRV_S,HRV_CSI,HRV_CVI,HRV_CSI_Modified,HRV_PIP,HRV_IALS,HRV_PSS,HRV_PAS,HRV_GI,HRV_SI,HRV_AI,HRV_PI,HRV_C1d,HRV_C1a,HRV_SD1d,HRV_SD1a,HRV_C2d,HRV_C2a,HRV_SD2d,HRV_SD2a,HRV_Cd,HRV_Ca,HRV_SDNNd,HRV_SDNNa,HRV_DFA_alpha1,HRV_MFDFA_alpha1_Width,HRV_MFDFA_alpha1_Peak,HRV_MFDFA_alpha1_Mean,HRV_MFDFA_alpha1_Max,HRV_MFDFA_alpha1_Delta,HRV_MFDFA_alpha1_Asymmetry,HRV_MFDFA_alpha1_Fluctuation,HRV_MFDFA_alpha1_Increment,HRV_ApEn,HRV_SampEn,HRV_ShanEn,HRV_FuzzyEn,HRV_MSEn,HRV_CMSEn,HRV_RCMSEn,HRV_CD,HRV_HFD,HRV_KFD,HRV_LZC,Labels,HRV_DFA_alpha2,HRV_MFDFA_alpha2_Width,HRV_MFDFA_alpha2_Peak,HRV_MFDFA_alpha2_Mean,HRV_MFDFA_alpha2_Max,HRV_MFDFA_alpha2_Delta,HRV_MFDFA_alpha2_Asymmetry,HRV_MFDFA_alpha2_Fluctuation,HRV_MFDFA_alpha2_Increment
127.91358307890685,469.7936507936508,57.86858456334559,,,,,,,77.16538083881916,77.47589177577508,0.12317872850257704,0.16425377547878525,461.0,17.7912,0.038592624728850326,24.75,0.7499293586617533,449.0,478.0,5.555555555555555,26.190476190476193,390.0,901.0,5.7272727272727275,117.1875,,,0.03837131879240646,0.10827020376866796,0.03235866108049843,0.17900018364157286,0.35440331186954543,0.2143646895314956,0.604860853022735,-2.22312528961928,54.78372845312562,61.213250726588015,0.8949651881390817,10535.299879445787,1.1173618965887593,4.729617011950047,273.5894157128945,0.6031746031746031,0.6129032258064516,0.8552631578947368,0.23333333333333334,49.91418764302059,49.96569435443741,49.85318289146336,48.38709677419355,0.48402954674921267,0.5159704532507874,38.114270039516185,39.351753250280574,0.517462388133003,0.48253761186699684,44.03366535262647,42.52174008820702,0.5025934158696528,0.4974065841303473,41.180464209575504,40.967419152297104,0.6584578557086657,2.1119652883457034,1.223572532961864,1.0745646284696115,-0.529593162294125,-0.24903421855778873,-0.570554144670138,0.0035903379516631097,0.31913241866392755,0.7458788134683547,0.750088556960084,5.657818816945374,0.5605210168576229,0.5636685729695287,0.8420341742226841,0.7814480063281953,0.9495768858424943,1.932224729328001,1.7492312985727214,1.052129512273797,Relax,,,,,,,,,
132.0180926940625,454.5230769230769,13.08126975358776,,,,,,,14.977502508607664,15.035088965277142,0.02878021032978623,0.03295212777753514,453.0,11.8608,0.02618278145695364,15.75,0.873394596066325,445.0,466.0,0.7692307692307693,11.538461538461538,414.0,492.0,3.5135135135135136,62.5,,,0.039895925544580095,0.08894925550634585,0.005657264190244146,0.13450244524117008,0.4485245583841208,0.2966185891493985,0.6613207317298586,-2.419689234704692,10.631413363090498,15.154235710870411,0.7015473142907755,506.14495822145534,1.4254206090304018,3.4112450251016626,86.40463958551668,0.5846153846153846,0.59375,0.8157894736842105,0.1935483870967742,49.29078014184397,49.31403390858172,49.26771452894771,44.53125,0.3972976708825764,0.6027023291174235,6.701504028947531,8.254023640019454,0.6081514689384783,0.39184853106152184,11.81788931409492,9.486219064538897,0.5385996260238347,0.46140037397616535,9.606577540680107,8.89149195552752,0.7641365913696326,2.122347330517635,1.066058368253908,1.143718452029645,-1.0334396333972524,-0.29849802283263926,-0.46340840037865244,0.00024214336961983786,0.20243080267757094,0.7114382530377057,2.5552874465497997,5.314451537488648,1.2848830148044452,1.5845397749813155,1.2442988738569754,1.8746359111202626,1.9296001038356858,1.9062409546209163,2.942632400861405,1.1343824928738273,Relax,0.446206298797112,0.5379631350339431,0.5120013653581147,0.32604134809266205,0.9073185836588702,1.053622470503111,-0.8456742760890472,2.858555963914638e-05,0.013536127576716482
130.7044589629253,459.1171875,19.39421989294505,,,,,,,14.82522855050819,14.88389007373523,0.04224241745021809,0.03229072871620209,456.5,12.6021,0.027605914567360352,16.25,1.3081902802962346,447.0,468.0,0.0,12.5,414.0,561.0,4.129032258064516,70.3125,,,0.04956589146963285,0.03891004868794302,0.0017596243269810937,0.09023556448455697,1.2738583769747822,0.5492944134916519,0.43120524496305596,-3.2465027406900555,10.524499601573323,25.44355548435672,0.41364107339652373,841.2578470877454,2.4175548907382853,3.6318992382262314,246.04476799591004,0.5625,0.5609756097560976,0.8115942028985508,0.15625,49.81870920957215,49.81936606656114,49.81899717362034,47.96747967479675,0.4899150933256905,0.5100849066743094,7.366537383049991,7.516648189186453,0.4357780634477116,0.5642219365522883,16.79617851687831,19.111852419760222,0.4436875950678275,0.5563124049321726,12.968760268173622,14.521757863886428,1.1903892005838892,0.8656779211730914,1.3763471586361722,1.60993605237425,-0.8723850347315203,-1.8723850347315203,-0.23016651109509811,0.0007739938566234946,0.06589088234123877,0.9170424154960526,1.9974679587201634,5.407205059911622,1.0455413562490359,1.096947865477489,1.3960321736467867,1.7370546239215707,1.5962534367613759,1.7203967409546534,2.191748393730344,0.875,Relax,,,,,,,,,
130.2283791683163,460.84375,18.873986388803093,,,,,,,13.08843331396746,13.139317706459346,0.04095528340962223,0.028401021634702567,458.5,11.119499999999999,0.02425190839694656,15.0,1.4420355695789442,449.0,468.6,0.0,9.375,414.0,561.0,3.657142857142857,70.3125,,,0.054522279454206735,0.03356541374431872,0.001779500652311907,0.08986719385083736,1.6243589270051877,0.6066983636398335,0.3735001873990969,-3.394259095008115,9.290900650401879,25.05881844685131,0.37076371617869713,731.422436787668,2.6971355511984068,3.571138388391517,270.34812041611644,0.578125,0.5737704918032787,0.8285714285714286,0.18181818181818182,49.14821124361159,49.11677283141617,49.18121227341497,49.18032786885246,0.5081356867071153,0.4918643132928849,6.6233713182221345,6.516462668832356,0.4517172750150637,0.5482827249849365,16.842010719521923,18.555081699517373,0.4585364567401993,0.5414635432598007,12.796920971380947,13.906030033587053,1.298007822835212,1.4006215199586478,1.4701630690591894,1.782119670671026,-0.9166861901577654,-1.3392507178057844,-0.27727273416372544,0.0002975413270375837,0.1045466798015604,0.8385673001772096,1.4307461236907244,5.354050320556694,0.9030700869758117,1.3681168110287536,1.2440077333678172,1.7898275464393758,1.5055093034198852,1.659153466398078,2.017580799870042,0.9296875,Relax,,,,,,,,,
130.4187421213101,460.1007751937984,16.899447550715372,,,,,,,11.638768727833714,11.683339873950265,0.03672988280360358,0.02529612935977203,458.0,16.3086,0.035608296943231435,22.0,1.4519961643623802,445.6,472.8,0.0,6.976744186046512,414.0,525.0,4.3,70.3125,,,0.010496457386810222,0.0169517894696779,0.001677103003418136,0.029125349859906256,0.6191946523159402,0.36038905754947065,0.5820286984093402,-4.077381877295836,8.261368851777416,22.48642895078409,0.3673935452293925,583.6095320471812,2.721876889196902,3.473092486537703,244.8211651268294,0.5426356589147286,0.544,0.8088235294117647,0.21875,50.94850948509485,50.9560269391121,50.939642297848096,48.0,0.5147932406713189,0.4852067593286812,5.92804624505111,5.755175691852899,0.47152402341073263,0.5284759765892676,15.440892632425324,16.34681380797416,0.4766707449575381,0.523329255042462,11.695360139165258,12.254394495785363,1.1353355537460446,2.044036207300446,1.3992081098516902,1.744218463967443,-1.2750770273948628,-1.2425914817660604,-0.33121123154104637,0.0008724266289982297,0.2337087497404101,0.7121246068395983,1.17760069998674,5.44685734526693,1.00550378416526,1.235875751577114,1.1868243632204063,1.56598332119973,1.652578207374746,1.753143024523036,2.219159757864579,0.8696095820680005,Relax,0.9182449597770205,1.1454306987377527,-0.013833990686569209,0.5588813586823071,1.6081457606537732,-0.3180959465671025,0.0,0.0008791298102830905,0.09960639634725604
129.163239276977,465.1023622047244,43.51916830832959,,,,,,,61.73689694537979,61.98322148801033,0.09356901156561688,0.13273830012973578,461.0,19.273799999999998,0.04180867678958785,26.0,0.7049134385039162,444.2,479.6,3.149606299212598,14.960629921259844,408.0,895.0,5.7727272727272725,85.9375,,,0.057639267444292194,0.12653766891560805,0.0385063857071232,0.22268332206702343,0.45551074188614643,0.2588396244014353,0.5682404400160809,-2.0672152371526313,43.82875623395983,43.5294215408675,1.0068766062698833,5993.657402831602,0.9931703584857744,4.484662025029203,172.92852478568707,0.5511811023622047,0.5564516129032258,0.7971014492753623,0.18518518518518517,50.3361344537815,50.48720756457564,50.164394663366394,50.0,0.486004972493035,0.5139950275069651,30.55486867914834,31.422412383520136,0.511151359908128,0.4888486400918721,31.12129470518512,30.4347754313311,0.4984919759743803,0.5015080240256198,30.83938216085873,30.932535909261908,0.9826591800466614,1.4997329354596283,1.40213240990897,0.8197594966769886,0.5228775945603923,1.3389890636041808,-0.888317746088239,0.00594871794830332,0.26126696803762445,0.8500655121908753,0.8826175167675674,5.681164116313021,0.6335028879033664,1.269210617208654,1.1662643112996856,1.1503312156200347,0.8416142543849798,1.8094614971194396,1.5285414792322176,0.7153771726617177,Relax,,,,,,,,,
131.5315372758008,456.7596899224806,44.26143482088104,,,,,,,61.92895374943775,62.17228996322762,0.09690311075478861,0.13558322924675792,449.0,19.273799999999998,0.042926057906458794,26.0,0.7147131049550937,437.0,469.8,3.875968992248062,16.27906976744186,408.0,895.0,5.375,70.3125,,,0.06070011867061022,0.11986344945911674,0.03799640037012611,0.21855996849985307,0.5064105775740579,0.27772752296425696,0.5484236215892268,-2.1214021052979883,43.962447834894576,44.88807404738001,0.9793792397618035,6199.586313123189,1.021054928878431,4.499332820762955,183.33275701574934,0.5581395348837209,0.5599999999999999,0.8142857142857143,0.12903225806451613,49.98008761449622,50.07626881768745,49.87187479214204,48.0,0.47882787912121505,0.5211721208787851,30.420866750608337,31.73748125695284,0.5158448453549126,0.48415515464508746,32.2396649444951,31.23368687730868,0.49772195527881524,0.5022780447211846,31.343461276569105,31.486591689838367,0.6004425505204256,2.2799801159756132,1.3029031046254738,1.0141556962406897,-0.5090893467830089,-0.1007349256329862,-0.6266447046452542,0.0069356606775170014,0.43167331756518684,0.8817892238372926,0.8960219765397033,5.806396418194093,0.639523662319949,0.9611569436510484,1.1130202888606073,1.269139302840867,0.8244912780782243,1.7740397353010229,1.5520772786640231,0.8152589831887505,Relax,0.0946905350971489,1.3849386035949809,0.10775240574104616,0.09641668225621591,1.0,1.3066048174482003,-0.5081850007324551,0.014648694361324925,0.4990206551140125
130.66930943134355,459.2170542635659,20.409082399261486,,,,,,,13.87922233051982,13.932960888274007,0.0444432152721135,0.030223664826162778,458.0,23.7216,0.05179388646288209,32.0,1.4704773735328658,440.0,479.4,0.7751937984496124,6.976744186046512,419.0,501.0,7.166666666666667,78.125,,,0.027398134571799966,0.010090319849940802,0.000961316858841098,0.03844977128058187,2.715289007608684,0.7125695071595064,0.2624286052655058,-4.596178745422235,9.852091126105494,27.186472738308428,0.36238945820370894,841.4555074816171,2.759462168013378,3.632001267271774,300.0801720123567,0.5348837209302325,0.5245901639344263,0.765625,0.1935483870967742,50.7910074937552,50.78884791062895,50.79223892696917,43.44262295081967,0.3682524232469482,0.6317475767530519,5.978965754715692,7.8311411463172655,0.5644580356590344,0.43554196434096576,20.425311779685693,17.941876675906016,0.5416798758950198,0.45832012410498046,15.04894336479193,13.842646248224426,1.2104465255283163,0.7190667744642121,1.4289363023891175,1.17524058374568,0.9306121714035376,0.9474539384161327,-0.8528124614469499,0.00021370576625398007,0.035647810301441665,0.7933805644103238,1.4014845266138658,5.808448065531226,0.9123543701790978,1.0960011057382872,1.2190289501570182,1.7169102058899497,1.9385219427916274,1.6512963174580797,3.2372981333499258,0.7065577854302504,Relax,1.2042113468999607,1.1025653283181658,1.7534837888479773,1.7554940110590436,0.03618636902751504,-0.9340581288469916,-0.49817677723084886,0.0027847808857615736,0.16592109869340882
126.5705158455042,474.104,17.18580809854457,,,,,,,12.841465095792287,12.89351982184368,0.03624902573811773,0.02708575564811157,473.0,16.3086,0.034479069767441854,21.0,1.3383058685551212,459.8,486.2,0.0,8.799999999999999,437.0,529.0,5.0,70.3125,,,0.036629530062898215,0.08463791300909138,0.0020504155971416333,0.12331785866913121,0.43277922104439953,0.2970334585615642,0.6863394639066811,-2.4693729684411316,9.117095299388833,22.562333157815463,0.40408477419502703,646.234850078116,2.474728234915778,3.5173604848574485,223.34257164488957,0.544,0.5416666666666666,0.7538461538461538,0.20689655172413793,50.16528925619834,50.17234990879346,50.15833364857368,45.83333333333333,0.4645442097026605,0.5354557902973396,6.214002022707378,6.671441379589632,0.6495955638149132,0.3504044361850867,18.18467455195055,13.35576613167141,0.6236206776264263,0.3763793223735738,13.588528428394469,10.556623964251116,1.273022380464069,1.515683053967594,1.3994019680581968,1.8717615318780103,-0.959709062278705,-1.4912142910690669,-0.18835201885821656,0.0016987255197240363,0.17715437866049732,0.7896655828404331,1.7458497679239768,5.59148263682879,1.1185878835365504,1.5637749804536702,1.2852173524728108,1.6961745963317374,1.8326410221526306,1.6833268027947375,2.4288602466845397,0.7801678398821538,Relax,,,,,,,,,
128.90129295530528,465.5590551181102,19.372969855055118,,,,,,,13.360983235371304,13.413636747491367,0.041612271616412407,0.02869879360843209,460.0,13.343399999999999,0.029007391304347825,20.0,1.4499658830323157,453.0,478.0,0.0,10.236220472440944,429.0,529.0,3.4324324324324325,54.6875,,,0.022431039536176554,0.004214371318628841,0.0015920917848512397,0.028237502639656634,5.322511435341337,0.794370515779058,0.1492473103025122,-5.469254852003001,9.484873504524211,25.659868611176805,0.36963842832744803,764.6027298668206,2.7053464233273377,3.5904059542123914,277.67533508118635,0.5433070866141733,0.5519999999999999,0.7536231884057971,0.20689655172413793,50.67513899920573,50.64826723608912,50.70241245514592,44.800000000000004,0.4909971991286178,0.509002800871382,6.646502839839911,6.767274192760332,0.6596858402627853,0.34031415973721485,20.8412138292747,14.969056859578899,0.6394062611104241,0.3605937388895757,15.468228629638737,11.616123778294249,1.2824701768299112,1.4648356209156939,1.4434834505603362,1.8562032689605803,-0.3157303452750977,-0.8126826277690009,-0.21824837373749428,0.0032293235471467802,0.21510657551261944,0.7444555577473149,1.5421047923655133,5.558584341389424,1.0450583929233461,1.0827891386844193,1.248156851599879,1.4581597266157484,1.59109732666408,1.6910291976058425,2.966981306372995,0.9354932257884001,Relax,,,,,,,,,
130.5801424751322,460.1875,57.044084347591365,,,,,,,80.65250629492888,80.97181188975526,0.12395835251411949,0.17526009788386013,455.5,14.0847,0.030921405049396267,19.0,0.7072822280189708,444.0,469.0,2.34375,9.375,389.0,1077.0,3.4594594594594597,85.9375,,,0.03766471680229152,0.12259893645840315,0.0299056039869504,0.19016925724764505,0.30721895222207624,0.1980589152390873,0.6446832586549494,-2.098836930408329,57.255717272207455,57.25823957519209,0.9999559486459355,10299.276644925214,1.0000440532946717,4.719776833681615,229.04304795716993,0.5625,0.5573770491803278,0.75,0.21428571428571427,50.35520267446719,51.379084497605696,49.24667429614522,42.62295081967213,0.4184137036942888,0.5815862963057111,37.03585778545924,43.66430382556704,0.58780846341969,0.4121915365803101,43.89912953273029,36.76101774323803,0.5031146980206164,0.49688530197938346,40.61273405987459,40.36052436533803,0.5068525223892845,3.1004328481438668,1.3758018173007742,1.4152120728991648,-0.9328625913245059,-0.6618636327087787,-0.48728878916955604,0.006635266918214065,0.7694871196965205,0.6231692547472889,0.6119927440337185,5.460556008531233,0.41527075398272306,0.5971371207943234,0.8284108248228309,0.7375648758833503,0.45718353455388044,1.861898966047568,1.3765482910001539,0.8203125,Relax,,,,,,,,,
128.46520583356516,467.72222222222223,57.46089298142018,,,,,,,81.16506637710586,81.49168728633732,0.1228526040700277,0.1735326279591288,465.0,16.3086,0.035072258064516124,21.0,0.7079510378818357,452.0,478.0,2.380952380952381,8.73015873015873,389.0,1077.0,4.666666666666667,101.5625,,,0.02508317292254127,0.08495474397207994,0.02108280556576209,0.1311207224603833,0.2952533519586,0.19129831236340142,0.6479124152000313,-2.4656365881376154,57.623324690502685,57.7378251375379,0.9980168901969816,10452.22152761788,1.0019870503420307,4.72617871568628,231.4102124109022,0.5238095238095238,0.5126050420168068,0.7213114754098361,0.1,49.97815640017476,50.94883790434602,48.96311908358905,44.537815126050425,0.41762733599604607,0.582372664003954,37.23855095756755,43.974286841582845,0.5831765836892261,0.41682341631077363,44.092067094264934,37.27661560506454,0.5005662733731269,0.4994337266268731,40.80943553925069,40.7632430885568,0.4526239939999718,3.2128547986128613,1.3396687083389545,1.4704656283735504,-1.9279557534014984,-1.7507842235357947,-0.4592895016322968,0.009507685086665938,0.7510091648720918,0.533978756215838,0.4887549396466804,5.649627443220993,0.38844214668047333,0.6182022981949237,0.8824322383923014,0.8312953185130899,0.4990807224610781,1.8464284109615847,1.3863771792879154,0.8860037998095133,Relax,,,,,,,,,
130.2233026622223,460.9453125,16.650794402438684,,,,,,,9.226374382820616,9.262506450566264,0.03612314509096713,0.020016201776258687,462.0,16.3086,0.0353,23.0,1.8046952910822953,446.0,474.0,0.0,3.90625,415.0,503.0,5.12,70.3125,,,0.005178091905606954,0.03079339578831268,0.0027576265843910442,0.038729114278310675,0.1681559234714947,0.1337002408161661,0.7950968247564028,-3.4804550344517704,6.549581121979544,22.43807738166144,0.2918958255903196,461.6884816062292,3.425879756853788,3.371319149691067,307.4806203382111,0.5234375,0.5241935483870968,0.7538461538461538,0.16666666666666666,49.38547486033521,49.349449820324054,49.4198734350073,45.96774193548387,0.4306724632318934,0.5693275367681067,4.298393941484479,4.942125370182668,0.4785610373645849,0.5214389626354149,15.522236994205628,16.202699629417964,0.4748008291851414,0.5251991708148586,11.388942702913125,11.978148405654027,1.277170061078818,0.9889414504434297,1.4046593415565707,1.6620932594571376,-0.3535497703065964,-1.135596666784993,-0.2396874023379882,0.00025354014209374054,0.06026326750387783,0.8047118546298972,1.4505139538541845,5.609473149067329,0.93276334159723,1.2501703833952311,1.3037519095632626,1.7926410607620087,1.7061735570494923,1.7086348786769443,2.195669066377321,0.765625,Relax,,,,,,,,,
138.0770788646332,435.1102941176471,45.590556656057075,,,,,,,59.575411283763955,59.79682108649971,0.10477931060792162,0.13692025238009123,428.0,16.3086,0.038104205607476634,21.5,0.7652579423900987,414.0,444.0,10.294117647058822,24.264705882352942,375.0,804.0,5.037037037037037,70.3125,,,0.017794751826191266,0.14097835779140439,0.047815330331141284,0.20658843994873693,0.12622328777953912,0.08613624184686652,0.6824116481366862,-1.9591488912259971,42.28273768366268,48.9518874589454,0.8637611311540142,6502.530729917891,1.157727482671009,4.520052523240656,226.69178175935758,0.625,0.6356589147286822,0.8902439024390244,0.25,49.5266272189349,49.582479445886186,49.45264881835548,48.837209302325576,0.4642259353099057,0.5357740646900946,28.80920250985319,30.949766714815357,0.6175738868278186,0.38242611317218145,38.469266343971576,30.272146153681124,0.552049302586694,0.44795069741330606,33.98422135563176,30.61283139838035,0.9163928688173327,1.5844714933617543,1.104274106454039,1.0744844024428628,-0.6017708748200441,-0.08775840582932704,-0.518801035005036,0.0006180824470428053,0.1070527312360732,0.830330290198229,0.9007865453381899,5.657311485204856,0.6543887757412419,0.5322154522586644,1.0274183037269429,0.9958792935433948,0.9704504105268076,1.954089561251755,1.8577560296974016,0.8338191577941575,Stress,0.4408225056497589,2.006978072358479,0.8655541234870623,1.4443115418289982,-3.1078226202291734,-4.090474884874001,-0.21162743314787916,0.0021970040784990044,0.25199912929859825
140.46412471906285,428.3188405797101,68.26023470836849,,,,,,,88.56957346101252,88.8945703228811,0.15936780790679522,0.20678421089564405,421.0,14.825999999999999,0.03521615201900237,22.0,0.7706962113622009,405.0,432.0,10.869565217391305,22.463768115942027,345.0,1059.0,5.111111111111111,93.75,,,0.005803580011880428,0.009780283772284785,0.005724514624865798,0.021308378409031013,0.5933958714292649,0.27236141110675643,0.4589877082406074,-4.627386779785313,62.85795348597364,73.7181850946829,0.8526790696927701,14557.431141414352,1.172774183797324,4.870054854476045,345.81913742174714,0.6086956521739131,0.6046511627906977,0.8589743589743589,0.2,49.879285369386764,49.431439612606766,50.689928006598116,46.51162790697674,0.5664172341086771,0.4335827658913227,47.30734926116287,41.39009188057394,0.42454073387968,0.5754592661203203,48.03240336900655,55.92190125747672,0.4842681897432031,0.5157318102567969,47.67125479531978,49.19552188021451,1.0222460826311799,1.1691203301993633,1.1168131048193226,1.129702362019081,-0.023763015685418054,0.12972998648662992,-0.48897525184806223,0.0006573087305842785,0.0661096118442506,0.5332923015719913,0.4409772556614299,5.569995246690176,0.41732163275419365,0.31670128975748196,0.6764556802253033,0.6125993257540823,0.6046340776300523,1.872494695856625,1.6150966857676736,1.1332430293414473,Stress,3.1183810771685354,3.7133862758743295,-0.5950051987057943,1.2616879392313707,1.6418070257482342,-1.643612507324057,0.0,0.0814953864820359,2.6092174310996086
140.3267698784961,428.6474820143885,68.43846948853141,,,,,,,87.6840094158928,88.0034419015688,0.15966142893669003,0.2045597212045433,422.0,23.7216,0.056212322274881515,30.5,0.7805125466368886,402.0,438.0,10.071942446043165,15.107913669064748,345.0,1059.0,5.148148148148148,101.5625,,,0.052813685351669006,0.04709721837063848,0.02794937628455234,0.12786028000685984,1.1213758939231602,0.4130577951873365,0.3683490945594024,-3.0555413376519818,62.22783053635566,74.59026712552507,0.8342620684228795,14581.986623150755,1.1986641102962259,4.870786805459356,357.6347047231013,0.5539568345323741,0.5454545454545455,0.7916666666666666,0.12121212121212122,49.98678297647371,49.52220638888567,50.8179992851814,43.93939393939394,0.5659856495361499,0.4340143504638501,46.81525267700345,40.99554898396106,0.4332891796582367,0.5667108203417636,49.09882334080554,56.15170074366009,0.4877444929093615,0.5122555070906387,47.9706281836256,49.16120692630475,0.92740363846971,1.3407486948847862,1.2352239074442588,1.1198644563023838,0.025046845852845223,0.12119868568533221,-0.5860410691295046,0.0007456273589384086,0.10647058172675877,0.4131837526685327,0.362170469768,5.863706094917355,0.35178305868122606,0.564592460434169,0.7651544355615234,0.7014808846476559,0.667683374113408,1.834171976724538,1.5726387011627727,0.9218772612159938,Stress,1.8741494863269068,0.8577235185110834,1.8741494863269068,1.504738814368643,-1.375302022435342,-2.2162856062627876,-0.9306873531922283,0.023055738251829227,0.4750869170424544
137.08607606678586,437.74264705882354,18.255388376943074,,,,,,,13.641983129431868,13.689876340082261,0.04170347234750908,0.031164391272113515,439.0,14.0847,0.03208359908883827,19.0,1.3381770233653218,428.0,453.0,1.4705882352941175,7.352941176470589,389.0,481.0,4.533333333333333,85.9375,,,0.013271500437621798,0.015378138613685624,0.005275480616698926,0.03392511966800635,0.8630108474774025,0.39119981204186316,0.4532965178657346,-4.174808348647287,9.68020439367744,23.846000298534353,0.40594666914737965,725.1868913937006,2.4633777685633587,3.5674200550724726,234.96682801825895,0.5294117647058824,0.5267175572519084,0.782608695652174,0.13333333333333333,51.61016949152541,51.690363209321475,51.531200698522206,41.221374045801525,0.39607546569017676,0.6039245343098233,6.093488082775363,7.524338618230246,0.631299343929927,0.368700656070073,18.94668409608392,14.47946449289133,0.5980081402354436,0.4019918597645563,14.073155922743924,11.53842631476866,0.9953302960023406,1.5189242129827094,1.2818513071290671,1.3031355002541802,-0.2889623064400393,-0.22036339780306635,-0.48598732382880555,0.0003073008475985888,0.1231055430594015,0.7931880229609019,1.4343035803062512,5.634543154531084,0.8698644370084758,1.2921057932544897,1.375245941652577,1.642356478938813,1.7245754346198827,1.7528044596468808,2.2411676583567237,0.8859328551562924,Stress,1.1201642601038955,1.4905847515722643,2.240943556401506,1.4956511806153738,3.7991923526607643,2.7991923526607643,-1.0,0.004474874729185156,0.3172716279968564
132.33886446767173,453.4732824427481,15.673263979084702,,,,,,,17.333160748647707,17.4001298838873,0.0345627065273983,0.03822311351019021,457.0,14.825999999999999,0.032442013129102845,21.5,0.9042357713267901,441.0,465.0,1.5267175572519083,10.687022900763358,385.0,494.0,3.9696969696969697,85.9375,,,0.017563182725064453,0.016282756424069535,0.0026198554598803976,0.03646579460901438,1.0786369498902633,0.48163444437113173,0.44652136608163806,-4.117648619221874,12.303749834423403,18.50794684996348,0.6647819952242666,715.3945192241767,1.5042525326857663,3.5615157185734354,111.36250369548446,0.5725190839694656,0.5609756097560976,0.7971014492753623,0.25925925925925924,49.7301464919044,49.77081104606801,49.6917111595154,44.71544715447154,0.37050976777530265,0.6294902322246972,7.489268808556794,9.761893957804032,0.6033783088049375,0.3966216911950627,14.376497407166696,11.655917763213782,0.5320065314370303,0.4679934685629698,11.462391220532748,10.750697478447933,0.7468264892034925,3.177968117996886,1.3230609512852658,1.326221090018664,-0.9559663346260585,0.506011277212667,-0.49900561030946095,0.002080912586780157,0.5980195210147525,0.7776850443774723,1.168993085429909,5.440167330754378,0.9346326378566002,0.9057540608298387,1.4363521917724706,1.661461257874112,1.5436863753878574,1.8294561543825811,2.6189134745726044,0.6979732749617317,Stress,1.093243348259286,1.9978642059032161,1.0640557927222662,2.017111375683486,-2.394571771157757,-3.244443620102941,-0.022962781882189025,0.0010126109472952981,0.25689523560934757
133.25828192359762,450.8333333333333,57.504220444735566,,,,,,,60.345379984686346,60.57702085014805,0.1275509510788959,0.13385296854274237,444.5,27.428099999999997,0.061705511811023614,33.5,0.9529183586105221,423.0,465.0,3.0303030303030303,23.484848484848484,398.0,882.0,5.076923076923077,78.125,,,0.05326551994943275,0.11753606979109094,0.017302285818727742,0.18810387555925143,0.45318445685743186,0.2831707735476959,0.6248466143594574,-2.141010015560251,42.83442222721856,69.47998144423676,0.6165001967019322,9349.8034170492,1.6220594986825019,4.677772589733958,450.80265547963285,0.6742424242424242,0.6746031746031745,0.8705882352941177,0.46153846153846156,49.90343762070298,49.744006136562675,50.098012340643095,46.82539682539682,0.5227054051504575,0.4772945948495424,30.968594513698005,29.592813576688094,0.7852048737837699,0.21479512621623023,61.567452939596514,32.20118879827348,0.7129123987201511,0.28708760127984884,48.73194592679055,30.92451434870618,1.018014336481724,1.6690601026876726,1.2436307640227149,1.4256867033891294,-0.3184950501655379,-0.43832696706047347,-0.39092307756128647,0.0027312666349567365,0.2030554103923216,0.692301962180641,0.48582088648605826,5.774719290617401,0.4785445164239241,0.4687398951159917,0.6744118117066711,0.614120279125645,0.8895271632764957,1.8312240088504559,1.5711516680611173,0.640399465396223,Stress,-0.14657328628104221,1.1214205865784197,-0.16128080113310173,0.22168540964804098,1.2218773782861057,0.6067805730063588,-0.1584990365215109,0.02647912884154567,0.6461338211912304
138.91110270451776,432.54014598540147,57.53042859812896,,,,,,,61.21862942140484,61.44493966163355,0.1330059859925017,0.1415328264661727,426.0,14.825999999999999,0.03480281690140845,20.0,0.9397536198027602,412.2,437.0,5.839416058394161,32.846715328467155,355.0,882.0,4.566666666666666,78.125,,,0.05160108801129526,0.11578381605623812,0.016631079360809573,0.18401598342834294,0.4456675360072063,0.2804163369394978,0.6292052130424046,-2.156030481328413,43.448133504339324,69.1202821080239,0.6285873289179704,9434.665322185487,1.590868848281379,4.681696608918912,439.845214360304,0.7007299270072993,0.7045454545454545,0.9139784946236559,0.375,50.06165228113439,49.977562638869145,50.18829316950059,46.96969696969697,0.5111577625615572,0.488842237438443,31.063376077518253,30.377745265365025,0.8098886001881128,0.19011139981188727,62.203975979894494,30.13766366169611,0.7252829872069575,0.27471701279304256,49.16435680978967,30.25794258036165,0.7091068216058996,1.421788630312596,0.9226013949929124,0.9714338889118982,-0.4359282510841309,-0.5391685659931629,-0.4656541817272449,0.001099143393876082,0.10815090506654992,0.822215313020696,0.7637647477738988,5.615311762178713,0.6330958843083714,0.3762252916805492,0.8949944853099726,0.7753019194813464,0.775638233851724,1.8933071274807662,1.6893437165481933,0.8807777037250288,Stress,-0.13268290931799698,1.6201649891441023,0.3092270606944991,0.4067631488098623,1.1164235540068252,0.657696426895209,-0.43979866941397777,0.030991385520897665,0.8512411669673462
142.50837186289294,421.37857142857143,20.45576658142418,,,,,,,32.57023401642813,32.688016340265975,0.048544866702818726,0.07729447158645836,422.0,14.825999999999999,0.035132701421800944,18.5,0.6280509550869814,409.0,435.0,11.428571428571429,39.285714285714285,334.0,479.0,4.0,101.5625,,,0.005569968185377874,0.031766809676862844,0.028832700960557317,0.06616947882279803,0.17533923746314145,0.08417730174805,0.480082512995673,-3.4493332551052758,23.11391801773874,17.558979064950137,1.3163588801057882,1275.0367494024626,0.7596712531157429,3.8124928122476067,53.356206518815064,0.7214285714285714,0.7238805970149254,0.9381443298969072,0.25,49.93690851735015,49.943629124456876,49.9298830054553,47.76119402985074,0.46701344148005486,0.5329865585199453,15.795683688539912,16.874537030686206,0.5889220537719463,0.4110779462280537,13.474981264285677,11.258002741628165,0.5116228240428972,0.4883771759571026,14.681259197719655,14.34385976176753,0.34641814739502436,1.8861941008655587,0.6698166564633476,0.7639877305981042,-0.7908499704620988,-0.4704715845743902,-0.45007349768958443,0.00036794902326909066,0.17884300602761535,0.8545365897995851,1.7827096337081372,5.652552128219642,1.44981887582493,1.0234483494459812,1.3678560787060254,1.8518071037924433,1.732621046615218,2.0260998186979506,3.4841044798071246,1.1203159026627805,Stress,-0.09278229006636207,0.6277263140998354,-0.2444856568578364,-0.15485781872204246,0.9945499665134897,0.9469787712610714,-0.35721828745649925,0.0005039427074513031,0.04315839034118072
142.66773396700066,420.9357142857143,24.012949358548134,,,,,,,37.9073083821178,38.039338082952725,0.0570465953436517,0.0900548637134359,418.5,18.5325,0.044283154121863795,27.0,0.6334649011871252,404.0,440.0,17.142857142857142,49.28571428571429,357.0,497.0,5.6,70.3125,,,0.009455010774524455,0.030190878790864194,0.02908407306603394,0.06872996263142259,0.31317441403479634,0.1375675238647915,0.4392680809790118,-3.500215427013167,26.897873910303552,20.14471546204648,1.3352322578584104,1702.2720310490354,0.7489333740362953,3.937999073550084,60.3481988799664,0.6928571428571428,0.6985294117647058,0.9368421052631579,0.2857142857142857,48.917966784096635,49.01662443682286,48.817133255197085,45.588235294117645,0.40699316104096367,0.5930068389590364,17.162057915181908,20.71598836437797,0.6696587403666867,0.3303412596333131,16.48496040272369,11.57824000301629,0.5013644716384699,0.4986355283615302,16.826915215859174,16.78105800419762,0.35837197793831443,1.649762585489647,0.6346130283439176,0.7368814858681754,-0.36699075007783133,-0.2200036618532819,-0.43801019708911354,0.00046662972562409134,0.15110385822291025,0.7274956445946401,1.9328380674879608,5.872943220878737,1.5591918820307478,1.0870378118609783,1.4472412145170392,1.8903818930822074,1.8297232124493097,2.0252763284286712,3.326849191616003,1.1203159026627805,Stress,0.5826759273795407,1.11177563348253,0.7695001774287353,0.8054812315099539,0.35890707282713574,0.25453580824124633,-0.46763640702529935,0.0006298686965804521,0.07616120348556656
142.70663531758493,420.78014184397165,22.818567689675618,,,,,,,36.09323244836113,36.2228251616671,0.054229193397004244,0.08577693873620292,420.0,16.3086,0.038829999999999996,22.0,0.6322118065297233,406.0,435.0,12.76595744680851,44.680851063829785,355.0,497.0,5.035714285714286,78.125,,,0.010152988121493232,0.017008846489764258,0.03331796350194152,0.060479798113199014,0.5969239670428674,0.167874041221005,0.2812318661833012,-4.074021688526711,25.613405305549502,19.721714364419153,1.2987413179332836,1586.9449403292479,0.769976273328489,3.907531968962387,60.74100851985755,0.6737588652482269,0.6811594202898551,0.9361702127659575,0.2647058823529412,50.04163197335555,50.11052176140826,49.97270377907279,44.20289855072464,0.4106293967025073,0.5893706032974927,16.413168077215783,19.663536717970977,0.6714240283956356,0.32857597160436425,16.160065033263724,11.304791709378108,0.5076970849300423,0.49230291506995766,16.287108218008626,16.038282199964822,0.3394808151480868,3.3191589785373092,0.8646582086723169,1.5472976364932463,-2.163834638972226,-2.0908998427668246,-0.2943336151612251,0.006077422603079013,0.8471795773421888,0.7682029652946682,1.8689491079191851,5.830441866857716,1.4082473835558733,1.1676281470699756,1.2662678387877322,2.0165402295532693,1.8767153769119425,2.028094763023044,3.8147173404085377,1.0127023194891906,Stress,0.33826363311009106,0.9374572091505629,-0.5991935760404717,-0.13046497146519034,1.0154431501237275,-1.5182667713137277,0.0,0.0005048109115193552,0.07104145180866805
140.36921363714401,427.7410071942446,21.224247184374434,,,,,,,31.058733514685237,31.171838887320277,0.0496193884322532,0.07261107303789774,428.0,19.273799999999998,0.0450322429906542,25.5,0.6833584239466542,411.6,443.4,10.79136690647482,41.007194244604314,371.0,499.0,5.791666666666667,85.9375,,,0.00472359563311982,0.02323635896928425,0.004926495870633403,0.032886450473037475,0.20328467292848512,0.14363348932997624,0.7065632999321401,-3.762037030129547,22.04181865927869,20.25243278063965,1.0883541201207987,1402.4083766670724,0.9188185917732437,3.8538446071215606,74.43324706995841,0.7050359712230215,0.7132352941176471,0.9278350515463918,0.2962962962962963,50.114267058439424,50.12305910356355,50.10580430120057,47.794117647058826,0.46493791362745174,0.5350620863725483,15.029532970583904,16.123157394864133,0.5388436572855676,0.4611563427144324,14.866494926029654,13.753121905540654,0.4987695180018761,0.5012304819981238,14.948236228725015,14.98506867732384,0.45102606580000304,2.369302917508657,0.8424567718660398,1.0791241212032796,-1.2361319402669384,-0.8644187598562357,-0.4001109788080211,0.0009485930744909922,0.3152829956263126,0.7346438053725635,1.7788560643921472,5.827594224351499,1.274610875115507,1.5536038099536411,1.4554902197494495,1.7548752735766593,1.9328030076603866,2.0240435367970404,3.8061436661221926,1.1779542782204366,Stress,0.3792473551520106,0.6104483535107299,-0.08382799801250052,0.22139617874286444,1.0182914208223974,-1.8434887859512967,0.0,0.0004679182590601112,0.043794405594229834
137.42819842043042,437.24264705882354,27.331570762555597,,,,,,,44.711006184988435,44.873285139176836,0.0625089317028094,0.10225673658720974,439.0,16.3086,0.03714943052391799,24.0,0.6112940211963308,421.0,452.0,17.647058823529413,47.05882352941176,316.0,556.0,5.037037037037037,140.625,,,0.011077123327667244,0.028236678980524402,0.03492011176212798,0.07423391407031962,0.3922955435130113,0.14921917382901578,0.38037437920593303,-3.5671334731122863,31.730204216029463,21.703693327067132,1.461972565584405,2163.49743253744,0.6840073634352111,4.042126494111518,59.38194419781429,0.7058823529411765,0.7099236641221374,0.9247311827956989,0.4583333333333333,51.07820213042348,51.241323520835635,50.91403962208454,46.56488549618321,0.4230625289485874,0.5769374710514126,20.640309785943174,24.103399772584257,0.7059347360926934,0.29406526390730675,18.235426292401225,11.76943210056376,0.5132133006767713,0.48678669932322877,19.475024520206635,18.96698991098476,0.32923287640021787,3.538593922328723,0.9790318851944247,1.4390827262344066,-1.5300560788950417,-0.9591417346834306,-0.3699904959037443,0.007085580809805667,0.9760483902388366,0.7101289295502378,1.076353818067167,5.886725893116901,1.1412832237738093,1.0061101050684116,1.3384401362148146,1.8490643590341445,1.457243151323114,1.9772584338237564,2.747276530271553,1.0943876446048317,Stress,0.8560712523745043,0.8457773632144884,0.6632160196127723,0.5439136982928636,1.0,2.054185406777675,-0.6410564133171931,0.0006242275769610086,0.061007450850642374
137.53399991420744,436.9037037037037,29.68186392195919,,,,,,,49.75319685221167,49.939888116540494,0.0679368558113406,0.11387680266943434,439.0,17.7912,0.04052665148063781,24.5,0.5965820449714428,421.0,453.0,15.555555555555555,32.592592592592595,309.0,587.0,5.0,156.25,,,0.008964395071570902,0.023002365129168954,0.014580008137115805,0.046546768337855655,0.3897162322757536,0.19258898934730811,0.49417748966390734,-3.7721582366368067,35.31283353890326,22.93186947055192,1.5399020818712763,2544.0280823759554,0.6493919397685393,4.112492010945086,59.56708479200262,0.6296296296296297,0.6307692307692307,0.9024390243902439,0.25,49.98617638927287,50.188245725097566,49.78150411611002,46.15384615384615,0.4219161232555827,0.5780838767444175,22.937476311679802,26.848992924365554,0.706099212603688,0.29390078739631187,19.269583363677835,12.431966634635964,0.5062109703143403,0.49378902968565963,21.183067088580465,20.92154649467067,0.2464992391124515,2.8503107054351267,0.8641603606894543,1.033183703944332,-0.9993048880499558,-0.5728739504592366,-0.44070002862053775,0.0027590827789394806,0.5708181763224858,0.7677046222414106,1.2264456601779945,5.734543612841531,0.9646862387155867,1.1331598619437346,1.1332205510962805,1.425070233882004,1.3444026117525463,1.9922513394502654,2.9626429981772042,0.9959962692145613,Stress,0.1269290838933033,1.1130629662523515,0.4435249726838133,0.5099420290643001,0.3969613489593504,-0.272227447594821,-0.44032947066408024,0.0010870436644492875,0.1200225361614996
