PPG_Rate_Mean,HRV_MeanNN,HRV_SDNN,HRV_SDANN1,HRV_SDNNI1,HRV_SDANN2,HRV_SDNNI2,HRV_SDANN5,HRV_SDNNI5,HRV_RMSSD,HRV_SDSD,HRV_CVNN,HRV_CVSD,HRV_MedianNN,HRV_MadNN,HRV_MCVNN,HRV_IQRNN,HRV_SDRMSSD,HRV_Prc20NN,HRV_Prc80NN,HRV_pNN50,HRV_pNN20,HRV_MinNN,HRV_MaxNN,HRV_HTI,HRV_TINN,HRV_ULF,HRV_VLF,HRV_LF,HRV_HF,HRV_VHF,HRV_TP,HRV_LFHF,HRV_LFn,HRV_HFn,HRV_LnHF,HRV_SD1,HRV_SD2,HRV_SD1SD2,HRV_S,HRV_CSI,HRV_CVI,HRV_CSI_Modified,HRV_PIP,HRV_IALS,HRV_PSS,HRV_PAS,HRV_GI,HRV_SI,HRV_AI,HRV_PI,HRV_C1d,HRV_C1a,HRV_SD1d,HRV_SD1a,HRV_C2d,HRV_C2a,HRV_SD2d,HRV_SD2a,HRV_Cd,HRV_Ca,HRV_SDNNd,HRV_SDNNa,HRV_DFA_alpha1,HRV_MFDFA_alpha1_Width,HRV_MFDFA_alpha1_Peak,HRV_MFDFA_alpha1_Mean,HRV_MFDFA_alpha1_Max,HRV_MFDFA_alpha1_Delta,HRV_MFDFA_alpha1_Asymmetry,HRV_MFDFA_alpha1_Fluctuation,HRV_MFDFA_alpha1_Increment,HRV_ApEn,HRV_SampEn,HRV_ShanEn,HRV_FuzzyEn,HRV_MSEn,HRV_CMSEn,HRV_RCMSEn,HRV_CD,HRV_HFD,HRV_KFD,HRV_LZC,Labels
77.1198953204865,778.25,41.05609983100359,,,,,,,43.26599896762661,43.5265601838859,0.05275438462062781,0.05559395948297669,776.5,40.0302,0.05155209272376046,54.25,0.948922960538215,743.0,813.0,10.526315789473683,53.94736842105263,680.0,887.0,9.5,117.1875,,,0.053830233156068344,0.02795638312726778,0.014088027624163064,0.0958746439074992,1.9255077779916394,0.5614647519108836,0.29159308434292985,-3.577109728808573,30.7779258677501,48.630965554991924,0.6328874106549746,4702.211014157529,1.5800598703094773,4.3792722243780915,307.3593485113808,0.5657894736842105,0.5866666666666667,0.9090909090909091,0.0,47.39316239316239,47.42000024699919,47.3683156568517,44.0,0.4049474343998405,0.5950525656001596,19.59953805302288,23.758782160071455,0.6053568205858664,0.3946431794141335,37.837167055830314,30.550279867785164,0.5479832356358236,0.45201676436417665,30.13132176575318,27.366031222390735,0.9101337294945785,1.5114954761014219,1.1105144722169302,1.1670111878768823,-0.3818851856412486,-0.11597014495749658,-0.4626219750219344,0.00018959762664250688,0.10463906072152704,0.702205458137485,2.0949457282158015,5.823392480463448,1.2220814355702347,1.2039137083275393,1.2233999352064697,1.5605668745825354,1.8134073870208398,1.8741072808156463,2.555512068117859,0.9043052979984136,Relax
78.9356207133542,759.8589743589744,56.24176115339648,,,,,,,69.82361822719919,70.22937227404809,0.07401605172965506,0.0918902330344959,754.5,48.925799999999995,0.06484532803180913,66.5,0.8054833390385373,717.4,806.6,28.205128205128204,67.94871794871796,614.0,887.0,11.142857142857142,125.0,,,0.050235201266583485,0.019587658131058942,0.016612964893732537,0.08643582429137497,2.564635390839736,0.5811849621198814,0.22661504407048852,-3.9328555982727793,49.659665373453905,60.08357417104499,0.8265098416429678,9373.664838208639,1.2099069480070095,4.678879530927635,290.7821354025673,0.6153846153846154,0.6363636363636364,0.8775510204081632,0.19047619047619047,47.32627228106433,47.125774929699574,47.50519079980721,50.649350649350644,0.47683410539662924,0.5231658946033706,34.31702048163334,35.945591194411996,0.4772248778461522,0.5227751221538477,41.506613139586186,43.44234053142389,0.4770661372673042,0.5229338627326959,38.081864640902964,39.87055603552567,0.7523671332342523,1.5845459127654626,1.0958084434764912,1.1783658176121965,-0.1496375487940007,-0.29200937719364317,-0.44789840201498465,0.0008693102879323979,0.17197940876206752,0.5698975177265475,2.3025850929940455,5.96803186627041,1.3210740285211198,1.3542718314128441,1.0970594736682902,1.3950881089226095,2.0082878472087455,1.901115837288255,3.069271724520917,0.8864028770190351,Relax
81.25313695276029,739.1518987341772,53.431501466014325,,,,,,,71.11321778396575,71.57347323738084,0.07228757926147196,0.09620920666746519,731.0,45.9606,0.06287359781121751,64.0,0.7513582303128714,699.6,780.0,30.37974683544304,63.29113924050633,643.0,880.0,8.777777777777779,93.75,,,0.046373176903351944,0.06455582407458435,0.01614719241842785,0.12707619339636414,0.7183422652892612,0.3649241896844445,0.5080087965275123,-2.740224939972068,50.61008827922587,56.76668002187514,0.8915456789039483,9025.691038596366,1.1216475203260294,4.6624505729228645,254.6888235347096,0.5316455696202531,0.5394736842105263,0.7560975609756098,0.14285714285714285,49.93518278454757,49.92309403493799,49.94479406153829,53.94736842105263,0.5057535371767992,0.4942464628232008,35.99206261703504,35.58025499423164,0.5014518303487154,0.49854816965128484,40.19833876809005,40.08178540174862,0.5033568486411377,0.4966431513588622,38.15321094706645,37.897915948283845,0.8063991882285574,2.373159846690798,1.2849447408520127,1.6593621218394052,-0.9143776052264325,-1.1871645532248283,-0.3422283347202715,0.0032856109940055927,0.46266820349703086,0.5206029935786587,2.0583881324820035,5.835178849333383,1.310394617277245,1.0825232778075218,1.13845537171723,1.6112000993147437,1.7697051574153109,1.8355717048151303,4.244991047111978,1.2767150882384006,Relax
82.86163690141888,724.9135802469136,53.16112243239043,,,,,,,69.21154166755716,69.60230495055734,0.07333442755243068,0.09547557605967726,720.0,42.9954,0.05971583333333333,66.0,0.7680962040657686,691.0,769.0,34.5679012345679,56.79012345679012,599.0,849.0,7.363636363636363,101.5625,,,0.05672032474855768,0.04194805284436856,0.018660457794054237,0.11732883538698047,1.3521563196030983,0.48343039084534983,0.3575255196730895,-3.1713232632518187,49.216261816753104,55.0305144063072,0.8943449347642713,8508.67762042302,1.1181368185012162,4.636832179238077,246.12657719501468,0.5061728395061729,0.5128205128205129,0.825,0.043478260869565216,52.619233776387794,52.573081246536916,52.67259459686267,52.56410256410257,0.5181397582061431,0.48186024179385667,35.450178982248,34.18656927782227,0.5106059177334791,0.4893940822665208,39.32298651668985,38.497535599451204,0.5139564022747547,0.48604359772524525,37.43669629164137,36.40591824290629,0.8655439331927207,2.2785538338244473,1.388076633436489,1.541097133325676,-0.45084476987976707,-0.41572898569448613,-0.4328431491862761,0.0026982591694496255,0.4114001764338524,0.5100280134345949,1.5404450409471488,5.876766360855894,1.1595325344328928,0.7702225204735744,0.8610443931823246,1.1018200558999036,1.6582589808316335,1.8264753043011657,3.0581834905722727,1.0957765437084537,Relax
81.56473734766118,736.4375,54.9816640897304,,,,,,,70.49777804201179,70.94791713501404,0.0746589684660686,0.09572812090912235,735.5,48.1845,0.065512576478586,59.5,0.7799063405511184,696.8,773.8000000000001,32.5,62.5,599.0,875.0,13.333333333333334,117.1875,,,0.04622639957453393,0.049230987940486304,0.012727567762577552,0.10818495527759778,0.9389695699467879,0.4272904624854634,0.4550631630263356,-3.0112320175586964,50.167753317229675,59.676498603358404,0.8406618097799456,9405.412746246462,1.189538989836785,4.680347968804492,283.9500874625411,0.5875,0.6075949367088608,0.875,0.09090909090909091,50.21579080985021,50.27464260814782,50.15741319500903,45.56962025316456,0.4428755173511621,0.557124482648838,33.38624006444909,37.445772757894815,0.6127128264126077,0.3872871735873922,46.71236113497986,37.13811792150835,0.5423865221955417,0.45761347780445827,40.59978884456052,37.2922626035734,0.6724680359957012,1.9257227294608457,1.1462083698872028,1.1833948821527676,-0.09059569469564366,-0.08366791995380951,-0.4806895812690666,0.0018780947176009087,0.29165623716232897,0.4792157327133655,1.8325814637483102,6.07192809488736,1.1660883050809197,1.0703338821280437,0.8916587691690558,1.1173127391379434,1.9755946817359848,1.8971254553915224,3.2922111659084585,1.0273133154191965,Relax
81.41579441226601,737.4625,67.94095421388833,,,,,,,86.79694038823888,87.34386635556231,0.09212801222284298,0.11769675120869046,739.0,62.2692,0.08426143437077131,82.0,0.7827574786621676,686.8,787.8,41.25,70.0,591.0,941.0,13.333333333333334,187.5,,,0.04888560177742658,0.03199602557422712,0.004060344020849678,0.08494197137250338,1.5278648175854708,0.5755176267695074,0.3766809865279931,-3.4421435847013715,61.76144019506965,73.8384993463364,0.8364395368516387,14326.831365957976,1.1955436776267216,4.863120259016137,353.10860423582926,0.6125,0.6329113924050632,0.88,0.125,49.079878665318496,49.041381580378435,49.10779046435949,46.835443037974684,0.466448687166373,0.5335513128336271,42.18495600116839,45.11736830841225,0.5226814976474219,0.477318502352578,53.382809313626396,51.01372026723717,0.4995315916006794,0.5004684083993206,48.110782798846195,48.155874919789625,0.7124014377540658,2.2234962014540245,1.1883856117537628,1.4965200749246754,-0.8953591207746872,-1.2252589692281695,-0.36141893880033965,0.002287072987468767,0.38142375683596375,0.5091984618435887,1.6964492894237302,6.1124920011103185,1.2550655371704338,0.8614122860582473,0.945150242879307,1.1307800419158696,1.7041797138654426,1.9143386711154748,3.8984698836190277,1.1063374166052884,Relax
82.9804028994095,724.6341463414634,85.40557014753331,,,,,,,116.22817065720767,116.95182346738198,0.11786026173170198,0.16039565792479013,707.0,89.6973,0.12687029702970296,121.5,0.734809553179843,655.4,807.4,60.97560975609756,78.04878048780488,567.0,936.0,13.666666666666666,125.0,,,0.030109543586402852,0.03745580605724023,0.01454267333414517,0.08210802297778826,0.8038685254934638,0.3667064739160513,0.45617717610096054,-3.2845935461292965,82.69742744591781,87.43192943056111,0.9458492793710624,22714.95782686949,1.057250898012995,5.063282044791729,369.7499436218782,0.5975609756097561,0.6172839506172839,0.88,0.08333333333333333,49.81263383297644,49.808488296358675,49.80711646113037,50.617283950617285,0.47118150878975856,0.5288184912102413,56.76596691680676,60.13775852158109,0.5556244855209835,0.4443755144790165,65.1719552312677,58.283432768534276,0.515750942257611,0.48424905774238886,61.113659474238496,59.217854297856206,0.7767431484765106,2.014807944421375,0.755960211039842,1.6924463425723513,-1.0599729962726023,-1.8765714400429085,-0.03519831300771693,0.003580738736216628,0.3883077118451019,0.45788420745567304,1.3862943611198906,5.982492400933164,1.365097125432327,0.9814796597221468,1.2110803505045769,1.365605094457161,1.7597768662616233,1.8801417164593752,3.695099849625647,1.0079045860979887,Relax
82.81736677923729,728.1358024691358,90.24671089386302,,,,,,,131.61197703856593,132.42189900255562,0.12394214182001907,0.1807519649387721,713.0,88.95599999999999,0.12476297335203365,124.0,0.6857028738913197,655.0,818.0,67.90123456790124,80.24691358024691,567.0,936.0,16.2,125.0,,,0.0441589373118013,0.03211144273691524,0.030075228945108962,0.1063456089938255,1.37517761732444,0.4152398743079764,0.30195363062690866,-3.4385428408120644,93.63642276230719,86.64858780723054,1.080645687736108,25489.198268224878,0.9253726835249246,5.113326285440405,320.72894489128794,0.5925925925925926,0.6124999999999999,0.8571428571428571,0.10526315789473684,51.072215138518594,51.056706119668995,51.07490151182513,53.75,0.5222636041326745,0.4777363958673254,67.6794380082601,64.73006266533524,0.5127142338804822,0.4872857661195176,62.043912431583784,60.48578923325134,0.5178592294527855,0.48214077054721466,64.9228519049031,62.64388123283682,0.7145931154184851,1.1747005250009956,0.8664407420465323,1.2267909564832225,-0.6317897535839663,-1.4802745172356668,-0.19324078199727993,0.0005278519298369174,0.09852770200850769,0.5612607721126004,1.9661128563728325,6.167010496711785,1.4536480989186495,1.0733253303485506,1.0958683296327936,1.3559936451721222,1.8371627746473909,1.9407869345771083,4.296870781224273,1.2523160499525183,Relax
82.33418114700248,730.0,78.45986235012141,,,,,,,108.81745034689978,109.49993858734767,0.107479263493317,0.14906500047520518,717.0,75.6126,0.10545690376569038,120.0,0.7210227964356706,670.0,809.0,54.32098765432099,72.8395061728395,552.0,903.0,16.2,171.875,,,0.04770872412502832,0.07424149823220197,0.014248493754430849,0.13619871611166115,0.6426153197476131,0.3502876200823714,0.5450969021714993,-2.6004320097783795,77.42814911462405,78.75788035717079,0.9831162134313881,19157.673603407147,1.017173744403708,4.989312879707161,320.44179225681063,0.6790123456790124,0.7,0.9107142857142857,0.4,49.434815373021856,49.34998645969241,49.511087735198146,53.75,0.49974506465223767,0.5002549353477626,54.73804129266009,54.76595773454782,0.4502814278656832,0.5497185721343167,52.84891025433923,58.39346199090467,0.47459307259098965,0.5254069274090102,53.80176799896154,56.60877374517799,0.7681626679715464,3.4146409375235276,1.2423671336433406,2.3773639297848623,-2.399007396645075,-3.2113752609473423,-0.16760874220506494,0.017096821630120582,1.3207262250427723,0.4294228750651228,1.767661917648994,6.117627780662401,1.460489001984208,1.1825071552457378,0.9912216237463034,1.1350626599721938,1.930707846082218,1.9167066033647298,4.277942587072451,1.0957765437084537,Relax
81.02956367034747,743.775,84.72994703203014,,,,,,,107.30336741327295,107.9643996285212,0.11391878865521178,0.14426858581328084,747.0,73.3887,0.098244578313253,99.0,0.789629897687157,686.0,811.6,41.25,66.25,544.0,1016.0,10.0,218.75,,,0.043079559050399174,0.04517375131535675,0.016943130178246554,0.10519644054400248,0.9536413912066306,0.40951536789288495,0.42942281204335125,-3.0972390839405035,76.34235910406171,90.84939440351751,0.8403177545133519,21789.00936785624,1.190026028402939,5.045207595561257,432.45257601932053,0.6375,0.6538461538461539,0.8627450980392157,0.3157894736842105,51.626820061118096,51.419210996224265,51.82342924945004,52.56410256410257,0.5268099300027376,0.4731900699972625,55.42319703184551,52.526977195849874,0.48659931532549733,0.5134006846745024,63.37351318724742,65.09539376785165,0.5032461144005823,0.4967538855994176,59.53122266057112,59.145978828340446,0.9006372241062199,3.1879058071817394,1.493133020294733,1.7897192589816624,-1.658008670949675,-0.9861386393119957,-0.40696518133667015,0.0027801160676162937,0.6491651088642538,0.4687021336831143,1.572396640753751,5.9518075889569015,1.1951407187213372,0.9107028231440628,1.014325822635438,1.129208904980048,1.7879837638757627,1.7869551492428817,3.296987656559377,1.1063374166052884,Relax
79.98137425758199,754.3461538461538,104.64222620192818,,,,,,,158.2128272337572,159.16783444380684,0.1387191088181376,0.2097350485941818,749.0,86.73209999999999,0.11579719626168222,119.0,0.6614016577007424,681.0,825.6,52.56410256410257,66.66666666666666,544.0,1080.0,13.0,218.75,,,0.03689791294734676,0.07116908001823204,0.04191324206239662,0.14998023502797542,0.5184542632544117,0.24601850330788114,0.47452305968821196,-2.6426968242933278,112.54865508199353,92.17746320642352,1.2209997017378367,32592.29437430275,0.819001019063895,5.220085044192682,301.9737452031422,0.6153846153846154,0.6315789473684211,0.875,0.2631578947368421,52.396088019559905,52.52371460177927,52.27033854271751,53.94736842105263,0.5030782241453557,0.49692177585464437,79.86987772884751,79.37966728922065,0.5025454143473699,0.49745458565263023,65.34500703791547,65.01318926484336,0.502864449108831,0.49713555089116895,72.96974480291908,72.55289917478733,0.5270696657489877,2.6138019804631414,1.175534682671772,1.3755946090461517,-0.36216567167686264,-0.29965396860009497,-0.42346018257322965,0.0064601914204299666,0.6582852690798681,0.5718515492964302,1.4087672169719492,5.839826738065281,1.1289106563852551,1.0784901368778979,1.3014818659931664,1.6411145111359218,1.5456484238658417,1.896641374417673,2.7383911125620086,1.289313275664051,Relax
81.59000812515664,741.775,110.24586734124225,,,,,,,177.35646719445052,178.4853807983015,0.1486244040864713,0.23909739098035188,718.5,97.85159999999999,0.13618872651356992,114.25,0.6216061307782513,669.6,815.8,56.25,68.75,474.0,1080.0,13.333333333333334,210.9375,,,0.03534686314418023,0.06697977834999964,0.042836080714895565,0.14516272220907545,0.5277243970482685,0.24349821087862167,0.4614116994411953,-2.7033645208183343,126.2082231051422,89.85487505913211,1.4045784719202659,35626.993099421714,0.7119573736829758,5.258749279620271,255.89136343884653,0.7,0.7142857142857143,0.9454545454545454,0.3888888888888889,49.49463696369637,49.6973470732516,49.295920167196236,49.35064935064935,0.46217419123772124,0.5378258087622788,85.8027329072855,92.5590940828393,0.5551335137430546,0.44486648625694525,66.94842555146141,59.93168517631279,0.4934427031955446,0.5065572968044553,76.95518390004193,77.97112537827246,0.524438195235548,3.444283945615961,1.2528932088887759,1.813184973598898,-1.3264088181691225,-1.302213146631268,-0.3373270689766194,0.012645414256175885,1.1751660253994214,0.5716303079258505,1.5339303599259553,6.07192809488736,1.1289665642685578,1.0785291185620531,1.0085524978059524,1.5483160292844969,1.5126747102850475,1.9436256212179968,3.290974959855913,1.1063374166052884,Relax
85.46067507665579,704.9759036144578,90.61052756146057,,,,,,,141.81970691089685,142.68836633933327,0.12852996406954398,0.20116958066761984,695.0,51.891,0.07466330935251798,63.5,0.6389135158655332,652.4,744.6,55.42168674698795,72.28915662650603,476.0,982.0,9.222222222222221,226.5625,,,0.020799603000716857,0.07966954949676704,0.025220955534400992,0.12569010803188488,0.2610734356111917,0.16548321364669719,0.6338569577532432,-2.5298678302215514,100.89591143497286,79.95810028925716,1.2618597874383068,25344.627218507005,0.7924810743276742,5.1108560177470554,253.46112487372176,0.6144578313253012,0.625,0.9,0.16666666666666666,49.46987951807229,49.72706006364318,49.224252109626654,45.0,0.41968844057791044,0.5803115594220893,65.36563827169951,76.86287292684226,0.6406787763616862,0.35932122363831387,64.00039228485986,47.92961077716947,0.5049345173417552,0.49506548265824474,64.68661716028524,64.05134199928547,0.48405789493067514,2.8029941214420715,1.1444521648367745,1.4454573014395455,-0.45167693258776964,-0.40978418943120665,-0.3926129975442434,0.009495325034913937,0.8082200475960467,0.5453077660633139,1.2116356770715049,5.799443798686475,1.2286049896621924,1.088419949097446,1.2048098237790748,1.248087280072107,1.499033997768696,1.9849921157142605,4.578703217945841,1.2289232638741059,Relax
81.72254523720463,739.7875,128.51643186570996,,,,,,,206.01745040995368,207.3135237058294,0.17372073989586193,0.27848192948644535,726.0,103.0407,0.1419293388429752,136.25,0.6238133304240752,639.2,822.4000000000001,62.5,77.5,430.0,1092.0,16.0,109.375,,,0.01666527380451358,0.07339650171054944,0.018433514315316826,0.10849528983037984,0.22705814876893843,0.15360366178631216,0.6764948213447478,-2.611879005116688,146.59279844407004,107.62995586821886,1.3620074194172944,49567.34651346626,0.7342103910328392,5.402165780422229,316.0921279394088,0.6625,0.6835443037974683,0.8703703703703703,0.29411764705882354,49.03569615970224,49.26251243834358,48.83388974022032,51.89873417721519,0.4297995354624438,0.570200464537556,96.11434829783714,110.705459296047,0.5683182952860448,0.4316817047139552,81.13887478834458,70.7155598031726,0.478310211794631,0.5216897882053692,88.9423547884713,92.88807543550678,0.41872016435160614,1.5670674284145907,0.7556988586329363,1.0029509468046856,-0.14580448851394134,-0.699945160653259,-0.34221987919058766,0.0018983933987504423,0.2224694787672933,0.5184183351403941,1.308332819650179,6.19692809488736,1.292743125710931,0.8059131579505631,1.037419600416504,1.0671861127270306,1.6770560080719077,1.9833721459366724,4.662480162925016,1.1063374166052884,Stress
79.64710719551681,760.6493506493506,137.26556725384614,,,,,,,217.45888903664672,218.80836444450014,0.18045840325330637,0.285885853778757,751.0,90.4386,0.1204242343541944,121.0,0.6312253679853658,674.6,862.6,64.93506493506493,79.22077922077922,498.0,1138.0,15.4,234.375,,,0.022128420471481215,0.09874227400771483,0.033786243289045746,0.1546569377682418,0.22410280392927046,0.14308068419563133,0.638460035693214,-2.3152421161582084,154.7208782790435,112.3952299668373,1.3765786886569344,54631.946570466534,0.7264386760016274,5.444416784936401,326.59296818403095,0.6363636363636364,0.6486486486486486,0.875,0.35294117647058826,51.961099501687826,52.38696875225287,51.60259139083456,47.2972972972973,0.4495511302990943,0.5504488697009055,103.78339623144606,114.84096249451527,0.6542149472727571,0.3457850527272431,90.90925767045898,66.09231868458194,0.520207149733142,0.479792850266858,97.55892184604963,93.692692499925,0.3915449138270314,2.951856582490681,1.0134190461829893,1.5976007557606033,-1.0433842557952158,-1.4242411954243508,-0.3020968521835501,0.011715363356386328,0.9564946503033274,0.4869661066780018,1.3862943611198906,6.136916410824774,1.2045895228347094,1.174647062483446,1.0191490976789574,1.24738735042139,1.691717799543727,2.013697049447155,3.3089844544168527,1.1394157346718001,Stress
79.20743701857198,763.922077922078,134.23278741305367,,,,,,,208.03298700977817,209.4149289237526,0.1757152873211576,0.27232226037456936,766.0,85.9908,0.11225953002610965,132.0,0.6452476087686244,671.6,844.6,59.74025974025974,75.32467532467533,498.0,1100.0,9.625,281.25,,,0.009148161840138804,0.10196926176326679,0.023903679091829562,0.13502110269523515,0.08971489723420083,0.06775357079394997,0.7552098133387949,-2.283083866376578,148.07871632368432,118.09803948340785,1.2538626125498773,54939.563130469156,0.7975355433609925,5.446855311628407,376.7495363570705,0.6363636363636364,0.6486486486486486,0.875,0.2777777777777778,50.12867157689237,50.76446005836647,49.498029278148096,48.64864864864865,0.3779192954196991,0.622080704580301,91.03175270201052,116.79297924104854,0.7446708034861959,0.2553291965138042,101.91188895596275,59.67506865728833,0.5205033963820357,0.4794966036179643,96.62508243352883,92.74080498694217,0.41600841473568867,3.349759221433971,1.111272798205051,1.8062807710801108,-1.7617738046787537,-2.181721336820053,-0.2925200210128716,0.010858034459378371,1.1010826276961057,0.5188160466882299,1.0586069540544105,5.987438813365983,1.1451439127340959,1.0657710911424991,0.8837376620041069,1.2425349908846557,1.3624236845666526,1.962681144435636,4.3100042222307176,1.220802572862643,Stress
80.50793040738873,752.6666666666666,128.65070667899312,,,,,,,199.9650294101771,201.2620731233833,0.17092653677457015,0.2656754155139643,748.0,66.717,0.08919385026737968,93.5,0.6433660278422939,662.0,807.2,53.84615384615385,70.51282051282051,451.0,1067.0,13.0,328.125,,,0.013238998880966694,0.1255836564896637,0.018412611475025015,0.1572352668456554,0.10541975963294511,0.08419866068572456,0.7986990387655116,-2.074783156904773,142.3137767012071,113.53972192686126,1.2534272084344296,50762.69174902966,0.797812583986454,5.412514752950171,362.33367574229055,0.5897435897435898,0.6103896103896104,0.851063829787234,0.15,50.86263788064487,51.308358797362885,50.43501233678549,50.649350649350644,0.42340876988479437,0.5765912301152059,92.60992756832567,108.07161368375381,0.6640933912650572,0.3359066087349428,92.52570554252083,65.80472831862245,0.5170129622622525,0.4829870377377474,92.5678261340078,89.4699277782715,0.548287070570314,3.4443568541304446,1.4059523046810134,2.069045574639546,-0.8226277224262546,-1.4194064333212548,-0.30748415508591775,0.02954619852620369,1.7182107914413423,0.5824138735611801,1.2527629684953674,5.999957827753397,1.194505343763103,0.9008452936586135,1.0842296130084597,1.375003150577712,1.4038345553491325,1.9811983105439464,5.0425321386683635,1.1281491162060446,Stress
80.92028001826482,745.9240506329114,128.90970524541177,,,,,,,199.9970512603136,201.26732173538454,0.17281880794168358,0.268119858973065,740.0,71.1648,0.09616864864864864,88.5,0.6445580293962662,656.0,798.6000000000001,54.43037974683544,72.15189873417721,451.0,1129.0,11.285714285714286,320.3125,,,0.02016545501559604,0.08366311819263843,0.05792504032953037,0.16175361353776485,0.24103159733018906,0.12466772503285055,0.5172256517972965,-2.480957041458057,142.317488030345,112.60627643774342,1.2638504045467485,50346.668748506985,0.7912328835774101,5.408940850154248,356.39115525900274,0.5822784810126582,0.6025641025641025,0.8936170212765957,0.13636363636363635,48.90319071791153,49.19431900600508,48.64240029220046,51.28205128205128,0.40660910514027976,0.5933908948597202,90.76096048440623,109.64301577889451,0.6399031118714592,0.3600968881285409,90.07820200998523,67.57285709381974,0.4964169338398129,0.5035830661601872,90.42022568375855,91.07052740846704,0.39236582416681487,2.8822033859571436,1.0724021647375923,1.615926293130549,-0.7058175821985344,-1.252149214875421,-0.3114206197102017,0.014687356317127398,1.0345452434342661,0.5688469180953017,1.3350010667323402,6.0916935646054124,1.1971306672437863,1.3632326043890712,0.8104733374136766,1.0917041966103467,1.5633617904201615,2.0151655076606327,4.443813822663269,1.1969203952235006,Stress
82.50112436145659,731.6125,114.73033807447592,,,,,,,174.01607666163738,175.1109306685266,0.15681844975923173,0.23785279319535602,722.5,73.3887,0.1015760553633218,97.5,0.6593088424672474,656.0,772.0,46.25,61.25000000000001,509.0,1129.0,13.333333333333334,257.8125,,,0.03551652613338516,0.12032128815646212,0.04308401523923617,0.19892182952908344,0.29518073382991505,0.17854514116155587,0.6048671905004297,-2.1175897127503,123.82212653560255,102.45639583604226,1.2085348652489318,39855.40305294556,0.82744820092056,5.307457315418342,339.1094416293517,0.55,0.569620253164557,0.8222222222222222,0.21052631578947367,51.0600706713781,51.390580530425424,50.73268548711862,44.303797468354425,0.4054064673950756,0.5945935326049245,78.84714195753574,95.4884205625921,0.7019066334118877,0.2980933665881121,85.8378335070851,55.939068516750616,0.5258937760070423,0.4741062239929576,82.41664108680314,78.25349144945605,0.39771160525181276,3.3818297999661597,1.3984997176977927,1.7309109045664761,-0.6411187226478567,-0.9232553721299739,-0.40170670715835266,0.02000946886680188,1.4384023811419,0.6012042452312496,1.1767770615174462,6.0280559073332745,0.9053641257201475,1.227955447047513,1.1311376335016958,1.4408014773879398,1.5598399122728184,1.9483251992250035,3.9973878262530964,1.1853615177913803,Stress
83.02422340033911,725.9629629629629,91.52191601529718,,,,,,,128.0600933155993,128.76329413975674,0.12606967667022212,0.1764003122045396,715.0,63.751799999999996,0.08916335664335663,87.0,0.714679441859728,671.0,775.0,34.5679012345679,54.32098765432099,525.0,1004.9999999999999,11.571428571428571,210.9375,,,0.02641482100072035,0.13708535895368776,0.07448020731621928,0.23798038727062737,0.1926888560699192,0.11099578962648653,0.5760363722654025,-1.9871514891179813,91.04939845414003,87.05865865879368,1.0458396655407607,24902.26928274125,0.9561695094849372,5.103209035052156,332.9713397847813,0.5802469135802469,0.5897435897435898,0.8913043478260869,0.22727272727272727,53.26585481575202,53.56710680597807,52.979159662687046,47.43589743589743,0.45856895570032724,0.5414310442996729,61.70673803554471,67.0504722040405,0.6103182316111543,0.38968176838884566,68.01271993664405,54.3459287738095,0.5309835845566658,0.46901641544333417,64.93632108522826,61.02968866491448,0.5398774076475893,3.4665363111007856,1.4900604046000725,1.7466364119953095,-0.8518931976513962,-0.7280701712179105,-0.42598490701695196,0.012008248018478619,1.2124031871834777,0.6043146506769914,1.2878542883066382,6.058925465820876,0.8587934287070407,1.2965789296634342,1.2962898602753303,1.5057526424934744,1.6700337927252613,1.8654325232677786,2.440566853800058,1.017506790586421,Stress
83.34436577661737,721.4938271604939,82.60101746600796,,,,,,,107.3031336914258,107.93756912731509,0.11448610418621591,0.14872356443259852,724.0,42.9954,0.05938591160220994,53.0,0.7697912877693367,685.0,762.0,23.456790123456788,40.74074074074074,472.0,1048.0,11.571428571428571,234.375,,,0.021434668610494007,0.17051536491191593,0.02117447627389301,0.21312450979630296,0.12570520329101503,0.10057345647847131,0.8000739336591959,-1.7689298695334084,76.32338707471624,86.76908054490144,0.8796150264058665,20805.22914303056,1.1368609789285093,5.025142613316218,394.5775273960133,0.5061728395061729,0.525,0.7857142857142857,0.08,52.69997759354693,53.18123489913257,52.27770127212506,45.0,0.5113964892624933,0.4886035107375067,54.60189638288761,53.37122203746277,0.5486612414764975,0.45133875852350236,64.27130769542305,58.292987105893346,0.5323986089452649,0.46760139105473525,59.63291071835812,55.88631177444079,0.655063531015364,3.4850572609983694,1.578133925332582,1.6047313681531177,-0.8609984134939115,-0.17610695796485754,-0.4923681475428853,0.006552559284882498,0.9935248371240099,0.5733232871932086,0.9963334395476916,6.083616823845568,0.7716300901790139,1.1494587684262223,1.1131522582012092,1.1364365177566433,1.3596044979355588,1.809684842736776,1.9855476784192074,1.0957765437084537,Stress
85.52384327362353,707.277108433735,117.89281130497541,,,,,,,183.90678975250796,185.03552561396194,0.16668546160931041,0.2600208426931412,712.0,56.3388,0.07912752808988764,82.5,0.6410465402807005,645.8000000000001,749.6,45.78313253012048,54.21686746987952,435.0,1079.0,9.222222222222221,257.8125,,,0.008635137787520302,0.11618520223658285,0.01272368355543784,0.13754402357954099,0.07432218235448734,0.06278090143645279,0.8447128360280486,-2.152569790035283,130.83987492204957,104.61463387114624,1.2506842501901305,43001.38388668686,0.799562319464708,5.340452542394413,334.58367723185955,0.6265060240963856,0.646341463414634,0.8679245283018868,0.2222222222222222,49.56220728975769,50.23406020109464,48.94808986673694,45.1219512195122,0.386311288031211,0.613688711968789,81.32346631101939,102.49938271419065,0.6845283768329781,0.3154716231670221,86.55420418001,58.75875559232952,0.5026087228232277,0.4973912771767722,83.9795702360829,83.54254848743017,0.36515978149743317,3.5351516249962014,1.3136087916125039,1.8067626710942504,-0.7859239732928884,-1.0684572299354103,-0.3604999355629403,0.025027327850569644,1.640361796352899,0.5671793671700605,0.9322545828631693,6.10997919038307,0.9734399969069331,0.9266618355211902,1.0294659111657356,0.9545366145632052,1.24488629884231,1.9675780758800268,3.96468441678819,1.0753078558898426,Stress
84.7383174837868,717.9268292682926,136.8676733638903,,,,,,,217.8112219217865,219.09380566098244,0.19064292875554623,0.3033891659178953,721.0,81.54299999999999,0.11309708737864077,120.5,0.6283775103793224,620.2,789.8,56.09756097560976,68.29268292682927,435.0,1059.0,13.666666666666666,257.8125,,,0.010348416544364336,0.07266815714123417,0.028923601367180224,0.11194017505277873,0.142406481070542,0.09244595641810598,0.6491695864060587,-2.6218519939536065,154.9227156988483,112.10783361578571,1.3819080317776642,54563.33839673432,0.723637157469601,5.44387104424448,324.5015761912086,0.6585365853658537,0.6708860759493671,0.9245283018867925,0.19047619047619047,51.80590452261307,52.48034398724513,51.1610239794581,51.89873417721519,0.43133668854319024,0.5686633114568099,101.78199742587095,116.86659060655444,0.6618556715977303,0.33814432840226977,91.20478159418194,65.19090559566003,0.5105264673511689,0.48947353264883103,96.63820979727022,94.62466425933107,0.3040017034585608,4.409958193401284,1.3265501116939602,2.245814983554787,-1.300146910371737,-1.7124834627237253,-0.2915479395617985,0.05538834224239863,2.9427967601631564,0.5109854121985862,0.8792494601938061,6.104443620445359,1.140968367362539,1.0348872430100071,1.3472368628308125,1.7046323257651772,1.352621483044718,1.9924722404565296,3.269245371792592,1.2404979521206017,Stress
81.2537353325758,743.5189873417721,126.7339086796339,,,,,,,178.9121328531167,180.0265737775045,0.17045147580256526,0.24062886879696654,734.0,80.0604,0.10907411444141689,108.0,0.7083583804999961,655.4,800.2,48.10126582278481,67.08860759493672,507.0,1131.0,15.8,179.6875,,,0.015307681495601615,0.1260927371423597,0.031168370205609742,0.17256878884357105,0.1214001840432659,0.0887048092426355,0.7306810112497188,-2.0707376336861576,127.29801111185373,125.26717800012851,1.0162120129482213,50096.66148981505,0.9840466233997892,5.406778894813836,493.07497413538727,0.5316455696202531,0.5512820512820513,0.8604651162790697,0.08,51.61595957469207,51.97036885040591,51.225813835556124,50.0,0.4381676943380282,0.561832305661972,84.28434403464648,95.43992466876333,0.5702573574813055,0.4297426425186946,94.59599343009708,82.11859662152605,0.5031345032381975,0.4968654967618023,89.58865057131294,89.0287681928379,0.52646780923463,3.6277102264959313,1.3332375767878066,1.9383733933243656,-1.3357150121568289,-1.429702015472623,-0.33319069640215715,0.015891707458173237,1.3943047826698276,0.5241543269310993,1.0216512475319812,6.117010020301616,1.0037645205378682,0.922271936014136,1.0518072410592971,1.6083334354808252,1.5916935969239934,1.9130649408212408,3.03786180645361,1.0373310091937005,Stress
80.9580176614047,743.5875,130.63919718741442,,,,,,,177.82657602068514,178.88247979444475,0.175687726309835,0.23914680655697568,746.5,96.369,0.12909444072337575,129.25,0.7346438317083618,633.8,823.8,57.49999999999999,75.0,498.0,1131.0,13.333333333333334,265.625,,,0.01296977837094708,0.15273320140461757,0.007419402904844824,0.17312238268040947,0.0849178715018735,0.07491681994054915,0.8822267753013133,-1.8790626614159198,126.48901449811746,131.86669365125815,0.9592188216429935,52400.785677897635,1.0425149897362884,5.426307908644324,549.8920191135986,0.5375,0.5512820512820513,0.8372093023255814,0.125,47.915222343270294,48.064359048970715,47.74039198670029,50.0,0.40484180162927835,0.5951581983707215,80.51755661392689,97.62569150088332,0.5280455105998708,0.47195448940012913,95.82322745637299,90.59102590410913,0.4689794062958078,0.5310205937041922,88.5018865426967,94.17406653475417,0.7190016106065809,3.2868265821093723,1.3910293274346612,1.9193922426694001,-0.9762305420815824,-0.8655513411499456,-0.3392483138262641,0.015331265694963167,1.1554699293377935,0.37290985181181124,0.8602012652231117,6.22192809488736,1.112437601498042,0.6405851697964242,1.0439111073447482,1.265912496377238,1.6431873804427077,1.9342844528150986,3.6653764725299274,1.1853615177913803,Stress
80.66596141719506,752.7820512820513,135.03569969878407,,,,,,,210.70071715063574,212.04872552292983,0.17938219896290952,0.2798960426750275,753.5,104.52329999999999,0.13871705374917054,148.75,0.6408886572618703,629.4,829.4,69.23076923076923,78.2051282051282,520.0,1066.0,19.5,54.6875,,,0.019775216958415602,0.06022757589683482,0.05085451613192679,0.1308573089871772,0.328341572177652,0.15112046175696145,0.4602538166418855,-2.8096249601740326,149.94109175922864,116.44472094028083,1.2876589900209092,54851.732054917025,0.7766031284290275,5.446160455819945,361.7253382850687,0.5769230769230769,0.5866666666666667,0.9090909090909091,0.25,51.157759794888236,51.21184282498229,51.082200024647086,52.0,0.4649237844967774,0.5350762155032223,102.25403736720979,109.69767065607374,0.5589592677329808,0.4410407322670193,87.05824040539528,77.33198440733482,0.5002941928304933,0.4997058071695068,94.96058492969158,94.90472791106009,0.4020516670291596,2.465535473387942,0.874465489764158,1.4960726066003538,-1.0659837633862441,-1.79057497275804,-0.24788149529966697,0.007583386208911912,0.6595117656391785,0.499368125829434,1.401798547655856,6.131556065016094,1.4815206444560727,1.1532305698140184,1.1542265910201657,1.397650407798384,1.7508966784342934,1.9904731623917404,5.7950390824821785,1.208731195935048,Stress
