PPG_Rate_Mean,HRV_MeanNN,HRV_SDNN,HRV_SDANN1,HRV_SDNNI1,HRV_SDANN2,HRV_SDNNI2,HRV_SDANN5,HRV_SDNNI5,HRV_RMSSD,HRV_SDSD,HRV_CVNN,HRV_CVSD,HRV_MedianNN,HRV_MadNN,HRV_MCVNN,HRV_IQRNN,HRV_SDRMSSD,HRV_Prc20NN,HRV_Prc80NN,HRV_pNN50,HRV_pNN20,HRV_MinNN,HRV_MaxNN,HRV_HTI,HRV_TINN,HRV_ULF,HRV_VLF,HRV_LF,HRV_HF,HRV_VHF,HRV_TP,HRV_LFHF,HRV_LFn,HRV_HFn,HRV_LnHF,HRV_SD1,HRV_SD2,HRV_SD1SD2,HRV_S,HRV_CSI,HRV_CVI,HRV_CSI_Modified,HRV_PIP,HRV_IALS,HRV_PSS,HRV_PAS,HRV_GI,HRV_SI,HRV_AI,HRV_PI,HRV_C1d,HRV_C1a,HRV_SD1d,HRV_SD1a,HRV_C2d,HRV_C2a,HRV_SD2d,HRV_SD2a,HRV_Cd,HRV_Ca,HRV_SDNNd,HRV_SDNNa,HRV_DFA_alpha1,HRV_MFDFA_alpha1_Width,HRV_MFDFA_alpha1_Peak,HRV_MFDFA_alpha1_Mean,HRV_MFDFA_alpha1_Max,HRV_MFDFA_alpha1_Delta,HRV_MFDFA_alpha1_Asymmetry,HRV_MFDFA_alpha1_Fluctuation,HRV_MFDFA_alpha1_Increment,HRV_ApEn,HRV_SampEn,HRV_ShanEn,HRV_FuzzyEn,HRV_MSEn,HRV_CMSEn,HRV_RCMSEn,HRV_CD,HRV_HFD,HRV_KFD,HRV_LZC,Labels
75.17350222520658,798.0958904109589,52.38483781474093,,,,,,,33.57743951590776,33.794555589331814,0.06563727296950084,0.042071936366716446,803.0,63.751799999999996,0.0793920298879203,83.0,1.5601200856879784,757.4,850.6,12.32876712328767,53.42465753424658,676.0,895.0,10.428571428571429,85.9375,,,0.056132376206077306,0.05555628595171361,0.0004880414676706003,0.11217670362546152,1.0103694882495278,0.5003924557588493,0.49525689520353866,-2.8903586108517425,23.896359424402267,70.3234979661648,0.3398061830755302,5279.369747285815,2.942854043882203,4.429552189386999,827.8071614786797,0.3698630136986301,0.38028169014084506,0.7037037037037037,0.0,52.07684319833853,52.11836460258839,52.03048221849681,40.845070422535215,0.4778382773233467,0.5221617226766532,16.5276124056376,17.277152543170995,0.5960028608208517,0.4039971391791481,54.290599463819184,44.69815629370341,0.583758976643495,0.41624102335650526,40.12873759521865,33.88528571560477,1.1511182989765656,1.6264700738342963,1.4447094385807016,1.577205772872234,-0.4174580404266557,-0.4886760738804057,-0.418537490223118,0.000521914494645206,0.15604715121562338,0.5182936791732691,1.882731247433782,5.905511031453121,1.1369191843575592,0.0,1.1224602518922333,1.3089988478707075,1.8693592581650094,1.7428527070576967,2.4999834088925534,0.9327132896942493,Relax
74.59359347185924,804.5753424657535,58.19147460663785,,,,,,,40.253364248635584,40.53550000386551,0.07232569970178368,0.05003057156247485,808.0,63.751799999999996,0.07890074257425742,88.0,1.4456300906230537,759.4,858.6,24.65753424657534,63.013698630136986,665.0,931.0,10.428571428571429,101.5625,,,0.0496124001222982,0.014397111376885124,0.00017439283625317613,0.0641839043354365,3.4459968269712764,0.7729726110617231,0.22431030841693986,-4.24072769135024,28.66292693152062,77.37157060188316,0.370458124457706,6967.096439657167,2.699360424241868,4.550021932111268,835.415022576636,0.3835616438356164,0.38571428571428573,0.6296296296296297,0.0,49.739130434782595,49.74332951357333,49.73531372712603,51.42857142857142,0.5548926832613317,0.44510731673866827,21.351518071173814,19.123026456214255,0.43414605149433194,0.5658539485056678,50.97994242490881,58.201421011476796,0.4487176766060708,0.5512823233939294,39.08223287883306,43.31913866064423,1.370605031929468,2.0272371460525758,1.641891679465257,1.9421419324314906,-1.0269424909951201,-0.8521891189939463,-0.35189189456651426,0.0010817294651547062,0.23831666066077017,0.4457766127886922,1.897119984885881,5.888454695866318,1.1334642225235907,1.1154850884137704,0.7053290564081187,0.7194873094744019,1.851635666726926,1.751403639161164,2.3915034163650613,0.8479211724493175,Relax
73.51993706098679,816.5,68.15082693018189,,,,,,,39.210339251597304,39.487562670210515,0.08346702624639546,0.04802246081028451,819.5,76.3539,0.09317132397803539,100.0,1.7380830727549914,764.2,879.2,19.444444444444446,62.5,665.0,938.0,14.4,101.5625,,,0.05000683106618228,0.012077117138916151,0.00021397266909971822,0.06229792087419816,4.140626483206414,0.802704654737419,0.19386067736199705,-4.416442762397016,27.921923336634624,92.29398832908966,0.3025324167059975,8095.9649021681,3.305430905183972,4.615238726697169,1220.285605542647,0.3472222222222222,0.35714285714285715,0.6,0.0,49.40186087727072,49.34183601582166,49.46085485197564,51.42857142857142,0.538563013585687,0.46143698641431297,20.491984495685834,18.9680181960508,0.4634368462548965,0.5365631537451035,62.83023639599906,67.60578138083322,0.46973681598013234,0.5302631840198676,46.73093212289133,49.650414854252375,1.552093359592765,1.7201129285754924,1.7562804999525854,2.088146795737835,-0.6855524497087728,-0.8179966402513141,-0.30706714642271554,0.0014837107870808589,0.199916145814327,0.6087351245289394,2.70805020110221,5.947702779220088,1.0572438509670314,0.0,0.0,0.0,1.9761722101442218,1.7042370170555625,2.5247120735641855,0.9426274307759088,Relax
73.80698052962502,812.7534246575342,58.099957167204956,,,,,,,33.50186561969348,33.68717998677923,0.07148534279223276,0.04122020849535023,814.0,63.751799999999996,0.07831916461916462,82.0,1.7342305000785365,759.4,858.4,13.698630136986301,54.794520547945204,692.0,938.0,12.166666666666666,85.9375,,,0.031948322452107186,0.017137778158110174,0.00033601274815575854,0.04942211335837311,1.86420445855685,0.6464378044791662,0.3467633614499548,-4.066470003263489,23.82043340770334,78.3763186174963,0.3039238615423537,5865.221155245668,3.290297757225106,4.475254502319911,1031.5257014668337,0.4794520547945205,0.49295774647887325,0.7428571428571429,0.0,46.5974025974026,46.672187128295974,46.52932475118246,45.07042253521127,0.42827090371360327,0.5717290962863967,15.611705611901474,18.037910000415753,0.5902210669355762,0.40977893306442414,60.21327012587189,50.17179905863534,0.5764896443033052,0.42351035569669476,43.98501592226546,37.699970941389196,1.336334048458863,2.4116060656996656,1.759555993412329,2.238461918396781,-0.45551593376308297,-0.7247263698391828,-0.30141618824237376,0.010916682353101219,0.6642280941475674,0.5471620633603722,2.3272777055844167,5.703389284848141,1.054171834640168,0.0,0.0,0.0,1.9476231630663943,1.6842660851736417,2.084629915963748,0.7631290552043858,Relax
75.4337764815344,795.418918918919,43.0533300246626,,,,,,,32.07226429465655,32.288516932850655,0.05412661052012423,0.040321223863077155,793.5,48.1845,0.06072400756143667,64.0,1.34238510973594,759.2,833.0,9.45945945945946,52.702702702702695,718.0,917.0,7.4,54.6875,,,0.04002870239474257,0.014890385803062666,9.146732774130356e-05,0.05501055552554654,2.6882246655093005,0.7276549384445592,0.2706823383404603,-4.207039522409481,22.83142927767536,56.49788017466987,0.4041112552734598,4052.426303849556,2.474566068008439,4.314685235611277,559.230948778579,0.5,0.5070422535211268,0.75,0.0,48.840885142255004,48.88533092458669,48.79808100076054,43.66197183098591,0.4365028632307898,0.5634971367692104,15.087016124984938,17.1417699721405,0.6029722116195528,0.3970277883804473,43.871330150000404,35.599394027160336,0.5795960009405189,0.42040399905948106,32.80481416412757,27.938836168305194,1.3812122483598577,2.3033575871784593,1.7188201850654445,2.2261177314243774,-0.6682905016787526,-0.895752868222659,-0.2797573641267066,0.008312560816681993,0.5569486350857807,0.4997671125222376,3.4657359027997265,5.827498466892592,1.229580960602731,1.0397207708399179,0.0,0.0,2.129865647812753,1.6339997641306532,2.628551161080998,0.7552037877116291,Relax
75.96760170092784,790.8918918918919,41.49354383435281,,,,,,,31.84702304317201,32.06243314975481,0.05246424228107351,0.040267226620557164,791.0,34.8411,0.04404690265486726,45.0,1.3029018058643638,762.0,823.0,6.756756756756757,52.702702702702695,682.0,917.0,6.166666666666667,125.0,,,0.03450142331486234,0.048172238588691664,0.0001833044710647991,0.0828569663746188,0.7162096744028309,0.4163973751931981,0.5813903247542508,-3.0329723867461387,22.67156390153198,53.33866090685421,0.4250493641211492,3799.0364473746295,2.3526679120380387,4.286643570091334,501.9526239465346,0.5,0.5138888888888888,0.7837837837837838,0.037037037037037035,48.94493051981472,48.84968167290166,49.03342485593102,45.83333333333333,0.41420062399546187,0.5857993760045382,14.593329907110911,17.35495446391158,0.5180807864181768,0.48191921358182316,38.39201012593334,37.02791252321158,0.5021807408147785,0.49781925918522174,29.042311540987452,28.915919060882825,1.1451526358179134,0.923789664225497,1.2596254626926326,1.4716892818389855,-0.29788089922986316,-0.9282205456592658,-0.27044144640420215,0.00013955804768448347,0.045736851594897716,0.5899029255395605,2.0794415416798357,5.617906912780065,1.258820849091448,0.0,1.1494794607216627,1.3114092771797807,1.9209750636091125,1.7443033964381496,2.3065317748817487,1.174761447551423,Relax
75.0143980934964,799.7534246575342,51.88710523335944,,,,,,,37.2838213349079,37.54495479652262,0.064878878456292,0.04661914558336948,792.0,45.9606,0.05803106060606061,60.0,1.3916788401938527,761.4,838.6,13.698630136986301,53.42465753424658,682.0,948.0,9.125,101.5625,,,0.03649936747567051,0.02504905029712522,0.0009899844067228194,0.06253840217951855,1.4571158204692254,0.5836312762020666,0.4005386998091364,-3.686919364460363,26.548292135963536,68.70716477480933,0.38639772464744687,5730.446842679019,2.5880069581476186,4.465158598202031,711.2584820472059,0.4794520547945205,0.5,0.7222222222222222,0.037037037037037035,49.66666666666667,49.673338446181866,49.660885912706135,45.83333333333333,0.4959035229702455,0.5040964770297544,18.695672467554743,18.84947789466351,0.5348124593832634,0.46518754061673684,50.246149451372084,46.86148692373281,0.5297577738562447,0.4702422261437554,37.909126234349586,35.716255218069755,1.2680782321952293,2.8234637957424225,1.4570674680292566,2.4658515526977287,-2.3630640846864637,-2.7021397095796384,-0.14271400037441778,0.011400819869251186,0.7975656233058749,0.47479232504281565,1.466337068793427,5.79592199035723,1.1359830910526527,0.7426036163924252,1.146485518577362,1.5232116931538686,1.7392659732136753,1.6314474328094228,2.5218010268417865,1.017505406939181,Relax
74.88676977586275,801.4657534246576,49.5252691371286,,,,,,,30.154002866765282,30.316842109509984,0.06179336911840272,0.03762356998775985,791.0,50.4084,0.06372743362831858,75.0,1.6424111039570695,759.4,840.2,12.32876712328767,46.57534246575342,723.0,948.0,10.428571428571429,39.0625,,,0.007960352544782397,0.025412479066176257,0.0013806574144276168,0.03475348902538627,0.31324580825243226,0.22905189573822715,0.7312209443953465,-3.6725149237889063,21.437244639796383,66.38339981302195,0.3229308034866752,4470.728819875506,3.0966386272322954,4.357348437713196,822.2616002720356,0.4520547945205479,0.4722222222222222,0.7941176470588235,0.0,46.54688377316115,46.54684902850533,46.552138031944246,45.83333333333333,0.38289519910794734,0.6171048008920524,13.286390368120474,16.867336548890023,0.6012700778941803,0.3987299221058198,51.47475483701478,41.9178408938813,0.5805874913268911,0.4194125086731088,37.591079756671405,31.950058117773967,1.1477798907554522,2.5698631506452774,1.1748668739577166,2.416963058046055,-2.113374708377812,-3.08187789231374,-0.016668354975845515,0.009619991479293901,0.737551401577531,0.5095028597938027,1.4307461236907244,5.850716510905175,1.0878923613850084,0.6323396030897085,0.8867133254783338,1.5439002469818064,1.6592257919082216,1.7015188209022754,2.437429460729814,0.7631290552043858,Relax
75.6419359211674,793.2432432432432,48.6977850501369,,,,,,,33.80889078172206,34.007794119625,0.06139073413475521,0.042621088890075515,782.0,45.9606,0.05877314578005115,75.5,1.4403839914341157,754.8,844.4,17.56756756756757,51.35135135135135,687.0,900.0,9.25,78.125,,,0.02388562996200447,0.025633428140321487,9.933839828325003e-05,0.04961839650060921,0.9318156678556887,0.4813865752737738,0.5166113769921357,-3.6638579925633756,24.04714183518283,64.26602193494213,0.37418127201845897,4855.0617235941245,2.6725014712940216,4.393164865533504,687.0041527013868,0.44594594594594594,0.4657534246575343,0.7941176470588235,0.0,47.15157680569685,47.2121509747192,47.09498843194732,50.68493150684932,0.4592291651686201,0.5407708348313799,16.312699551780714,17.701812524898877,0.5246907534855059,0.4753092465144943,46.55144037893116,44.30671477315016,0.5166364761191576,0.48336352388084247,34.87936903113249,33.73750984183591,1.224061715239336,1.2497110563735108,1.261215845648767,1.570389922975512,-1.0540983943471325,-1.2580382563208037,-0.252603551236935,0.0005059055969008254,0.07413689821404273,0.44804690058730756,1.1394342831883646,5.864726676381287,1.118077664287665,0.8966501512483795,0.5767352480350759,0.7675283643313483,1.8047957921142894,1.6992298210823042,2.2390582476318057,0.6712922557436702,Relax
75.4860405484765,794.9864864864865,49.114764469108266,,,,,,,35.290768710307,35.53133331131491,0.061780628103724554,0.04439165861331517,789.0,54.856199999999994,0.06952623574144486,74.0,1.3917170485086046,750.2,846.6,14.864864864864865,59.45945945945946,687.0,900.0,10.571428571428571,140.625,,,0.04926566776606464,0.017651205748323205,0.00020577267202297504,0.06712264618641083,2.79106529426437,0.7339649219020006,0.2629694559315026,-4.036951183583561,25.124446729030236,65.05660513849548,0.3861936336140529,5134.968410091809,2.5893746373855597,4.417507886158961,673.8236933601092,0.40540540540540543,0.4246575342465753,0.5161290322580645,0.0,50.87470449172577,50.90516101771021,50.842520244938605,47.94520547945205,0.4964088124333184,0.5035911875666816,17.7035777928267,17.831191460160166,0.5466491437608431,0.45335085623915694,48.10007269739532,43.80348021163849,0.5401273712174989,0.4598726287825011,36.24247273684138,33.44171248261887,1.37506650861004,1.064546176943992,1.4797126117673995,1.8082328433724761,-0.5226282235253024,-1.2725218718288431,-0.19139879629443188,0.000463872254489189,0.07659625025720015,0.48425393796371896,1.6341305250244718,5.901954885869983,1.2238084698445777,0.9578387755901728,0.0,0.0,1.7970807462601703,1.6953382509131438,2.619974855478662,0.7552037877116291,Relax
76.98612689308207,779.4736842105264,47.79999265947239,,,,,,,32.48281596988373,32.70155518796793,0.06132342069750002,0.04167275512679209,775.5,53.373599999999996,0.0688247582205029,75.25,1.4715470698042281,738.0,824.0,9.210526315789473,61.8421052631579,672.0,893.0,9.5,148.4375,,,0.047297288073781335,0.03452138500944081,0.0005076534903785151,0.08232632657360066,1.3700866306739028,0.5745098808884304,0.4193237624732145,-3.3661762916296873,23.12349142875824,63.570464556773246,0.36374583055165827,4618.050384561323,2.7491724055871547,4.371428776875037,699.064667879349,0.3815789473684211,0.4,0.5666666666666667,0.045454545454545456,49.97528423133961,49.97770467563776,49.972412461967316,44.0,0.47287546597586405,0.527124534024136,15.901087843119242,16.788429091232786,0.5880371205048963,0.4119628794951037,48.74810706419626,40.8022796130513,0.5745804297954368,0.4254195702045631,36.25756843017011,31.198376343753633,1.2770799192955644,1.453551133049776,1.3369172115475745,2.0038554858204525,-0.6232495491861556,-1.656020333969163,-0.04116627952844159,0.007212985848115568,0.3263682842335747,0.5756365445887286,1.6486586255873819,5.744445112042396,1.184341787271006,0.9614708007309003,0.7227779876203455,0.8145241345053705,1.7882445221761962,1.724595779576407,2.4876209872163835,0.986514870543724,Relax
76.64666701888895,782.5066666666667,50.75920189065798,,,,,,,34.947450898804114,35.150588405247184,0.06486743698540329,0.04466089860636431,778.0,50.4084,0.06479228791773779,68.5,1.4524436142034878,740.4,827.2,12.0,65.33333333333333,672.0,906.0,9.375,101.5625,,,0.049152292199455105,0.031040808122739932,0.000667182514306516,0.08086028283650155,1.5834733427396508,0.6078669338671546,0.3838820126996593,-3.4724525491239353,24.855219424047515,66.99430258644982,0.37100497302698543,5231.248425585467,2.6953816598228295,4.4255754545923836,722.3008580165518,0.4,0.4189189189189189,0.6129032258064516,0.047619047619047616,52.71535580524345,52.64742695266315,52.77897914408547,41.891891891891895,0.4995906083338867,0.5004093916661134,17.58579750743772,17.600202364963625,0.543615903351547,0.45638409664845286,49.39510889119382,45.258809050525215,0.5382798048230911,0.46172019517690915,37.07517401405891,34.33749350170724,1.2322744018039153,0.10882257429777198,1.2594066708618499,1.2538328798567253,0.8853066832168146,-0.04908966456261199,-0.5512190695826856,8.639545366670282e-06,0.0007211801735222308,0.48206830322142125,1.4271163556401458,5.898753523800367,1.1560314122999702,0.0,1.127403355668788,1.2907518628904815,1.7799180388410076,1.6880795992262623,2.5908509052906905,0.8305091587327841,Relax
75.20488251144795,798.0540540540541,48.643205298331935,,,,,,,37.59626912414043,37.8541923468775,0.06095226889861425,0.047109928122229604,790.5,43.7367,0.05532789373814041,60.0,1.293830649464585,757.6,834.4,17.56756756756757,60.810810810810814,710.0,929.0,10.571428571428571,132.8125,,,0.05287390297350513,0.027804724383207535,0.00047453158555192437,0.08115315894226459,1.9016157917910508,0.6515322836800674,0.3426203581673125,-3.582549330882027,26.766956104816988,63.780770471101754,0.4196712568241042,5363.380647705201,2.3828174642399382,4.436408730592864,607.9117350448809,0.40540540540540543,0.4246575342465753,0.5161290322580645,0.0,49.31192660550459,49.29993473214907,49.32482366254744,47.94520547945205,0.4387405024034734,0.5612594975965266,17.73081905734883,20.05426665602886,0.5169059082437294,0.4830940917562707,45.85593037464603,44.33080567013172,0.505199489316383,0.4948005106836171,34.764553031563835,34.404897489122774,1.3007681929801027,1.7714710083073184,1.4347767995070089,1.93573020896411,-1.6989662370243188,-2.0264181790649447,-0.21721049505869494,0.0009398685537642162,0.17827584067979466,0.477286091689614,2.772588722239781,5.783645595300207,1.2418270430641931,1.1796247178237738,1.1072982888579452,1.5137511667443828,2.2178713117188393,1.7241248784561587,2.8869019593255674,1.0069383836155055,Relax
74.73803516750641,803.1232876712329,58.58278691197977,,,,,,,35.11172643623969,35.35529479596438,0.07294370342796143,0.04371897437820661,797.0,54.856199999999994,0.06882835633626097,78.0,1.6684678555570827,761.2,865.6,16.43835616438356,50.68493150684932,655.0,923.0,10.428571428571429,179.6875,,,0.030030214604808887,0.008607173937670711,0.00039985707652087535,0.039037245619000474,3.4889749901970397,0.7692708368285178,0.22048619981224724,-4.755159244657522,24.99996870107587,79.51937982899581,0.3143883762026011,6245.429668200777,3.180779175358476,4.502532431952911,1011.7343495899629,0.4246575342465753,0.4444444444444444,0.65625,0.05263157894736842,49.18450560652396,49.17042711826149,49.202876042527606,50.0,0.5035487359740436,0.4964512640259565,17.741691171751434,17.616213722462977,0.5797261006942271,0.42027389930577286,60.545854271647435,51.55124924678875,0.5728729898579904,0.4271270101420097,44.61259953823231,38.521826831161775,1.5751550008043005,1.887292022012823,1.9339954941677595,2.1621060914833445,-0.693272077986073,-0.9295993406715395,-0.379133385477727,0.0009701187490847779,0.235290232545388,0.5699092766494656,1.62924053973028,5.915851956140291,1.0202499622208674,0.5142683986897851,0.946073635712406,1.3260821466341612,1.8044306106167858,1.4696542230347571,2.4977224563059495,0.5935448207145222,Stress
76.17863056355392,787.8,49.35858861708133,,,,,,,31.671881979258956,31.88797031593651,0.06265370476908014,0.04020294742226321,787.0,35.5824,0.045212706480304954,49.5,1.5584356069969227,754.8,821.6,10.666666666666668,53.333333333333336,655.0,892.0,8.333333333333334,117.1875,,,0.04686131945811263,0.01770968263039892,0.001518311898014383,0.06608931398652593,2.6460846552763466,0.7090604612368433,0.2679659019309765,-4.033643747709405,22.548200048674037,66.54672135919171,0.3388326214745903,4713.987378086137,2.951309692815371,4.380358525308585,785.5999350898647,0.44,0.4594594594594595,0.7058823529411765,0.047619047619047616,49.84076433121019,49.83667089627191,49.84625970017456,50.0,0.522335982756298,0.47766401724370194,16.296272369799325,15.583843055663825,0.6173404667909066,0.3826595332090936,52.286435563601835,41.16545614603606,0.6075564500078069,0.3924435499921932,38.726217457281905,31.124354965964994,1.5534425110910353,1.227946303237621,1.6797681130447049,2.0869732401199306,-0.6793152904556319,-1.4150425050144868,-0.16838523313146284,0.0009361808583546147,0.1172104190014115,0.49705141410860154,1.7346010553881066,5.798623190409341,1.084402718064729,0.708303336014054,1.183667547431367,1.396398464755963,1.8375302392288326,1.6349734138016216,2.6781568234493998,0.9966109904793409,Stress
76.51960881033412,784.1466666666666,38.493837110575186,,,,,,,29.04237351628581,29.212634392418828,0.04909009850696534,0.037036915096179894,783.0,41.5128,0.053017624521072795,57.5,1.3254370235610864,751.2,821.2,9.333333333333334,58.666666666666664,700.0,880.0,9.375,132.8125,,,0.047492463589617534,0.024212472803331088,0.000514775880353073,0.07221971227330169,1.9614875347669423,0.657610811434576,0.3352612748123894,-3.7208873734987566,20.656451875202713,50.01617657607538,0.4129954204672948,3245.757638293403,2.421334354914936,4.218286197762089,484.4235465805721,0.4666666666666667,0.4864864864864865,0.7222222222222222,0.0,47.397563676633446,47.462363726524764,47.33390787219386,50.0,0.44190592155857483,0.5580940784414253,13.744737473636158,15.446327754385196,0.505129298032965,0.49487070196703503,35.54772149543787,35.18490323664307,0.49590182272384503,0.5040981772761549,26.949566895744297,27.17136780572361,1.3794305830731006,1.9160011292536172,1.6147580031390487,2.0124358375768354,-1.251097410559316,-1.4061236285732157,-0.292443841307806,0.0010190426521574645,0.21949144330215362,0.45611608393043257,1.8870696490323797,5.7186231904093425,1.251056272041482,1.0474136855066063,0.971646710060317,1.2326142531221334,2.04938377834475,1.6654457786882777,2.3364383224517877,0.9966109904793409,Stress
75.9205299275684,790.1333333333333,42.78934362581328,,,,,,,30.810887861449412,30.953097169125865,0.05415458609409376,0.03899454251786544,788.0,50.4084,0.06397005076142132,64.5,1.3887734692433618,751.4,827.4,10.666666666666668,58.666666666666664,700.0,880.0,8.333333333333334,140.625,,,0.030581809790080502,0.04804771099168743,0.0012535346309016848,0.07988305541266962,0.636488381212819,0.38283224936874616,0.6014756288862101,-3.0355607827507733,21.887144907015024,55.39817917767161,0.3950878030994329,3809.2061474533793,2.531082944487474,4.287804586502719,560.8695458890629,0.44,0.452054794520548,0.696969696969697,0.0,45.960406634563945,46.0334972181578,45.88408429146176,46.57534246575342,0.36360659938219764,0.6363934006178025,13.22694427275327,17.49872793811181,0.5601277327048035,0.4398722672951965,41.46092895500271,36.74166063734226,0.533492651057251,0.46650734894274903,30.773045710542714,28.77633668347728,1.3068755283955669,1.728028555717028,1.5165794555838645,1.612029505654542,-0.8988347971229906,-0.4008008046874503,-0.4447636153031792,7.425423868918598e-05,0.11984080688077926,0.38561373857735237,1.540445040947149,5.8720868571336995,1.198437867548571,0.0,0.8330511275438011,0.934417404570842,1.843856514780632,1.6899885202894822,2.1916318978167926,0.9966109904793409,Stress
75.28943442609807,797.1486486486486,51.22169981946528,,,,,,,33.48092894081235,33.695899194510844,0.06425614583465444,0.042000860187833555,792.0,55.5975,0.07019886363636363,71.75,1.529876901265646,748.2,841.6,12.162162162162163,59.45945945945946,705.0,914.0,12.333333333333334,85.9375,,,0.03652022692546456,0.011268190718424095,0.0001275875882658786,0.047916005232154536,3.2410018465299877,0.7621717784803413,0.23516548726942826,-4.485771503443508,23.826598818616937,68.60367644385681,0.3473079003005897,5135.223086241724,2.879289527058023,4.417529425084821,790.1193884098965,0.4189189189189189,0.4225352112676056,0.6666666666666666,0.0,48.0759620189905,48.099248409657676,48.05816796465361,46.478873239436616,0.46214759687648943,0.5378524031235105,16.205708870641853,17.482729573305573,0.5259203749930557,0.47407962500694445,49.75163850072066,47.23599144833315,0.519049848224855,0.4809501517751449,36.99899007747637,35.615198451225396,1.4308571419959888,1.5655987783673462,1.6079028800340125,2.0985381289917533,-1.1485602648750994,-1.8445485838411448,-0.18661495158460067,0.0011538674345723328,0.17830528127092962,0.45502807202909556,1.1557707025080584,5.912156068331652,1.159542873257155,0.6355162659069873,0.775420212890843,0.9101693380740147,1.7969931755303092,1.5853463386644835,2.597284902306538,0.9230268516475466,Stress
74.82555767518863,802.0405405405405,49.455788804538905,,,,,,,33.93446544746918,34.16148752370968,0.061662455081395076,0.04231016230750483,802.0,53.373599999999996,0.0665506234413965,71.0,1.4573911258775198,759.6,844.0,10.81081081081081,58.108108108108105,705.0,914.0,12.333333333333334,39.0625,,,0.03483713411377597,0.022953214990649357,0.0003026012160970004,0.05809295032052232,1.5177452974656431,0.5996792024086468,0.39511188300830274,-3.7742972655482796,24.155819483434755,65.34180851980811,0.36968397463489266,4958.642504789473,2.7050131155607167,4.402332908756268,707.0017961621517,0.40540540540540543,0.4166666666666667,0.6,0.043478260869565216,51.32566283141572,51.43791195999514,51.218569846227034,47.22222222222222,0.4828045632442337,0.5171954367557664,16.788306115335825,17.37594921467921,0.5129507291996482,0.48704927080035193,46.79818138888183,45.6013394466937,0.5093246665532538,0.49067533344674624,35.156201469505405,34.50656292970725,1.330319598199392,1.8388502612735858,1.5310047795756248,1.9292468708144148,-1.3141006206083556,-1.4924741519780103,-0.2834287545724533,0.0008309284662310353,0.19147746906567648,0.3695206717751436,1.1856236656577395,5.702564514219126,1.1946040760428742,1.0293427087394127,0.0,0.0,1.8917168853200312,1.686594312200689,2.191340716468467,1.0069383836155055,Stress
75.95041625432863,790.2162162162163,58.64153240215639,,,,,,,48.73467444387707,49.066700478944085,0.07420947735412088,0.06167258206523878,788.0,38.547599999999996,0.04891827411167512,50.25,1.2032815048285195,749.6,824.4000000000001,12.162162162162163,54.054054054054056,647.0,1066.0,8.222222222222221,171.875,,,0.05860753445278658,0.019329961126237315,0.00038727066586496684,0.07832476624488886,3.0319530427423507,0.7482631262447088,0.24679245215747714,-3.946098996822517,34.69539663911058,75.7761839952554,0.45786677039956214,8259.513366152842,2.184041438795263,4.623924570282132,661.9933036776487,0.44594594594594594,0.45833333333333337,0.6666666666666666,0.043478260869565216,51.1453744493392,51.16672599401591,51.12514136500482,47.22222222222222,0.5741434998269697,0.42585650017303045,26.292293970329446,22.643830408205137,0.46875389689543484,0.5312461031045653,51.88062227006865,55.23070788749006,0.48702210202212964,0.5129778979778703,41.12714243265489,42.2088506672997,1.0259051895486802,2.051888375745807,1.3870756065941363,1.6149468212508276,-1.261838757517383,-1.3925118159406311,-0.3889456086645718,0.0008609484406493159,0.23013634097462063,0.6724605320002368,1.6357552207514738,5.912156068331652,0.9886607591046633,1.0501761445532527,1.430973145349846,1.7844850539052155,1.6631612207000221,1.7593602902279966,1.8428894802591773,0.9230268516475466,Stress
75.674948651346,793.2162162162163,67.21225228125995,,,,,,,52.0133017760249,52.36304162148988,0.08473383537451423,0.06557266570284921,788.5,53.373599999999996,0.06769004438807863,75.5,1.2922127607027032,743.8,843.6,18.91891891891892,64.86486486486487,647.0,1066.0,12.333333333333334,140.625,,,0.05375377976528026,0.037802324029443515,0.0014490806085411465,0.09300518440326491,1.4219702398035754,0.5779654124678372,0.40645394417514297,-3.2753846959861415,37.02626181410892,87.75486040735382,0.4219283312882592,10207.77103676626,2.370070758099449,4.715901030098266,831.9409141302737,0.4189189189189189,0.4225352112676056,0.6,0.05,51.43953934740884,51.50740949871523,51.37328791666296,43.66197183098591,0.5742988359081082,0.42570116409189196,28.064904932831837,24.162787044912218,0.5385752398201435,0.4614247601798562,64.40126105731954,59.61034389551138,0.5439755965569867,0.45602440344301315,49.67474868915751,45.48204798114806,1.4244849594072018,1.5236572374879414,1.5244064083210052,1.7083281979619227,-0.4626114969588411,-0.2573839680758754,-0.37928926197065815,0.0013827791388987675,0.13007788035437753,0.4782645639400398,1.4604023332736122,6.074318230493815,1.0442112057575836,1.4447103674510149,0.8768936535961656,0.8632081244909546,1.7998997772400225,1.6305438948896591,1.8744612915743675,0.9230268516475466,Stress
75.15363205536461,798.2602739726027,57.162299978331745,,,,,,,34.98868864838082,35.20242991595155,0.07160859915257868,0.04383117861328231,798.0,65.2344,0.08174736842105262,87.0,1.633736564201787,746.6,852.0,15.068493150684931,63.013698630136986,676.0,902.0,18.25,62.5,,,0.05767227565757349,0.022298960144643276,0.00035061622616099807,0.08032185202837777,2.5863213030329444,0.718014764365715,0.2776200944266703,-3.8032152318883443,24.891876907813526,76.85104831269749,0.3238976885068832,6009.762554881999,3.0873946788871534,4.485827423371913,949.078070510087,0.3698630136986301,0.38028169014084506,0.5185185185185185,0.05555555555555555,52.580800771828265,52.4755186444561,52.681144944938296,45.07042253521127,0.49086144106735646,0.5091385589326434,17.455375700484662,17.77737920132227,0.5282986159499504,0.4717013840500497,55.85853386638668,52.78169967951292,0.5247381925276744,0.4752618074723258,41.38155353866828,39.38237570491336,1.4359440002147394,1.0698045974226886,1.5421843677131732,1.833044007766869,-0.35861088649354933,-0.9906800892550365,-0.22811890998186207,0.0005331272279156377,0.07742702394280115,0.5488491929806352,1.5686159179138452,5.850716510905175,1.1093111482951308,0.6668070516454887,1.0417911908396775,1.2695282386676592,2.067594267120825,1.6038189303296801,2.82267450249548,0.8479211724493175,Stress
76.81138377778215,781.2666666666667,51.016248957147546,,,,,,,31.5339799564199,31.746779609116203,0.06529940561116249,0.04036263327470761,776.0,57.8214,0.07451211340206185,78.5,1.6178182718341367,735.2,827.6,10.666666666666668,50.66666666666667,687.0,885.0,10.714285714285714,85.9375,,,0.053478900180652364,0.01969601930460572,0.00024200922370868315,0.07341692870896677,2.7152136354855645,0.7284273684704101,0.2682762634035405,-3.9273387294122846,22.44836314244088,68.99854386800652,0.3253454621503949,4866.026586916365,3.073655902222905,4.39414458745415,848.3111264187371,0.4,0.4189189189189189,0.5161290322580645,0.0,50.78167115902964,50.811877382099134,50.74856697962493,44.5945945945946,0.40589794115648575,0.5941020588435142,14.30298369102592,17.304089310024814,0.5244493612701703,0.4755506387298296,49.96796998082995,47.58151985697911,0.513100276648821,0.48689972335117904,36.751689528992245,35.801065198883485,1.495473079608252,1.362780880368157,1.6596859198183265,1.8038288373583788,-0.3450212013668956,-0.3181103763314894,-0.39422883780031315,0.0003130041016826222,0.09261836390178425,0.49249446963247534,1.5723966407537515,5.882152023829213,1.066296683396183,0.5663859553284242,0.8182488328962073,0.8115932685813558,2.024405463014472,1.6044651461913952,2.5791775625309867,0.7474582428595056,Stress
77.82808198935417,771.171052631579,43.60439982628503,,,,,,,26.796268396924226,26.974282045902388,0.05654309725123552,0.03474750291194597,763.5,40.0302,0.05242986247544205,56.75,1.627256421692287,735.0,808.0,7.894736842105263,35.526315789473685,700.0,869.0,6.909090909090909,85.9375,,,0.041663898696172444,0.011953697621819363,0.00024290477260434858,0.053860501090596154,3.485440239020465,0.773552006619686,0.22193810640032152,-4.42671462404645,19.073697752296113,58.61237301347106,0.3254210121796698,3512.1582329940024,3.072942319557058,4.252544183872426,720.4497659310371,0.4605263157894737,0.48,0.6666666666666666,0.043478260869565216,50.89344804765058,50.96008338011799,50.828381355859264,44.0,0.42888975544537905,0.5711102445546208,12.49243014032141,14.41564465470798,0.5599626182576405,0.44003738174235935,43.860019718756725,38.8807013895138,0.5474092735732492,0.4525907264267509,32.247187013292645,29.321662225659644,1.54964789830609,1.405183229050328,1.7472980320949993,2.05602812638556,-0.6814036492325819,-1.1893894569204706,-0.2802919306835085,0.0005567125195808371,0.12421245441419981,0.5134511207281056,1.529395204760564,5.895889519994064,1.0777465767277412,0.9818226193897337,0.0,0.0,1.9041466282697321,1.5404914198335244,2.1227488656933162,0.986514870543724,Stress
78.07700151824332,768.3947368421053,51.49215576437986,,,,,,,32.98868492882572,33.17367891827755,0.06701263464661236,0.04293195065911083,763.0,48.1845,0.06315137614678899,63.25,1.5609035605837591,723.0,808.0,11.842105263157894,44.73684210526316,655.0,884.0,6.333333333333333,109.375,,,0.05377064775143382,0.012948042022835513,0.0003598493497523627,0.0670785391240217,4.152801454969213,0.8016073166414242,0.19302808606036934,-4.346810697415566,23.45733332001927,68.51912076136055,0.3423472610180862,5049.406016770253,2.9210106633427104,4.410210403167361,800.5803295472044,0.39473684210526316,0.41333333333333333,0.6129032258064516,0.045454545454545456,46.832701678397385,46.94532704502746,46.72373201904404,53.333333333333336,0.5205283083595733,0.47947169164042697,16.942869025369074,16.260963037868294,0.4307226171243282,0.569277382875672,44.968729742507236,51.69800049571796,0.44016270818429165,0.5598372918157085,33.97975474797799,38.32167907447541,1.5283799424146514,1.542319417179569,1.7783623542257074,1.9742108413461037,-0.5014748531177897,-0.6424853086524243,-0.3730169088589034,0.0007189690102681782,0.14339506610581917,0.5243320716242841,1.580450375560848,5.932138039759375,1.045039282527067,0.8630631381156099,0.8815901311540404,1.0721251441657644,1.8302364452827977,1.5778668349089608,2.0234669797648817,0.9043052979984136,Stress
78.33053427162615,766.2077922077922,61.22872082831752,,,,,,,36.146813210339275,36.38467722602614,0.07991137841588612,0.047176253723789356,758.0,63.751799999999996,0.08410527704485488,91.0,1.6938898727261502,711.4,825.0,12.987012987012985,53.246753246753244,655.0,925.0,11.0,125.0,,,0.05451621798706258,0.006778870113337182,0.0003575646508054229,0.061652652751205184,8.042080328372702,0.8842477258368563,0.109952610485275,-4.993944840867747,25.727851997806823,82.85755002708702,0.31050703272539576,6697.08003592106,3.220538972089478,4.532855599125112,1067.3838759763494,0.35064935064935066,0.36,0.5185185185185185,0.05555555555555555,50.72126570497906,50.76800142483493,50.67474191812813,54.666666666666664,0.5532874794815762,0.4467125205184238,19.138442987871297,17.19670511076662,0.42293925249973174,0.5770607475002684,53.88539669549993,62.94233566892663,0.4344029214301439,0.5655970785698562,40.434613742630184,46.13818530310062,1.6508478235316089,1.6606339999736406,1.8786010237090431,2.299979148788638,-0.24207833874090134,-0.7691912929997438,-0.2462546683457744,0.005338555030143581,0.3153762434842128,0.5951289935239292,1.6397432619294294,5.805620631547799,1.065638246839034,0.8122952935908825,1.096897614089789,1.0938945298393425,1.7924844635336485,1.5729849334989603,2.097057928176982,0.651094705526743,Stress
