PPG_Rate_Mean,HRV_MeanNN,HRV_SDNN,HRV_SDANN1,HRV_SDNNI1,HRV_SDANN2,HRV_SDNNI2,HRV_SDANN5,HRV_SDNNI5,HRV_RMSSD,HRV_SDSD,HRV_CVNN,HRV_CVSD,HRV_MedianNN,HRV_MadNN,HRV_MCVNN,HRV_IQRNN,HRV_SDRMSSD,HRV_Prc20NN,HRV_Prc80NN,HRV_pNN50,HRV_pNN20,HRV_MinNN,HRV_MaxNN,HRV_HTI,HRV_TINN,HRV_ULF,HRV_VLF,HRV_LF,HRV_HF,HRV_VHF,HRV_TP,HRV_LFHF,HRV_LFn,HRV_HFn,HRV_LnHF,HRV_SD1,HRV_SD2,HRV_SD1SD2,HRV_S,HRV_CSI,HRV_CVI,HRV_CSI_Modified,HRV_PIP,HRV_IALS,HRV_PSS,HRV_PAS,HRV_GI,HRV_SI,HRV_AI,HRV_PI,HRV_C1d,HRV_C1a,HRV_SD1d,HRV_SD1a,HRV_C2d,HRV_C2a,HRV_SD2d,HRV_SD2a,HRV_Cd,HRV_Ca,HRV_SDNNd,HRV_SDNNa,HRV_DFA_alpha1,HRV_MFDFA_alpha1_Width,HRV_MFDFA_alpha1_Peak,HRV_MFDFA_alpha1_Mean,HRV_MFDFA_alpha1_Max,HRV_MFDFA_alpha1_Delta,HRV_MFDFA_alpha1_Asymmetry,HRV_MFDFA_alpha1_Fluctuation,HRV_MFDFA_alpha1_Increment,HRV_ApEn,HRV_SampEn,HRV_ShanEn,HRV_FuzzyEn,HRV_MSEn,HRV_CMSEn,HRV_RCMSEn,HRV_CD,HRV_HFD,HRV_KFD,HRV_LZC,Labels
105.4953000885403,571.1826923076923,78.21414025846238,,,,,,,122.87877837428756,123.47964654388781,0.1369336664289697,0.2151304302968858,562.5,24.462899999999998,0.043489599999999996,34.75,0.6365146308683414,543.2,591.0,32.69230769230769,42.30769230769231,367.0,1148.0,7.428571428571429,242.1875,,,0.04552690819244759,0.12422909006539286,0.037492064566065034,0.20724806282390545,0.36647542188776167,0.2196735041674715,0.599422201455981,-2.0856279173797474,87.3132954097011,68.61965223154144,1.2724240442822736,18822.563251284384,0.785901527477078,4.981648875178803,215.71315801485719,0.6538461538461539,0.6633663366336634,0.8955223880597015,0.28,50.04053834927842,50.345281890000436,49.71798389922837,51.48514851485149,0.4708590505376419,0.529140949462358,59.91366337342033,63.513507904023925,0.5389245537400068,0.4610754462599934,50.37470293585909,46.594484399997796,0.4968475425955914,0.5031524574044086,55.35005760927255,55.70014211281757,0.4735002644542798,3.484847568392559,1.5453995405323628,1.6085013471756842,-0.24022517543608934,-0.016405602541002984,-0.4818925202882179,0.015703785638576672,1.3749474782491928,0.5910243359228633,0.6603573577369541,6.125685511306309,0.6256074200610132,0.8330940476332321,1.0205008254606478,1.0650882965466144,0.9221409057115889,1.9119090481665135,1.9924667412705486,1.0308368797140142,Relax
106.0789437743431,566.75,67.57286610030471,,,,,,,101.26611102791716,101.7530296381796,0.11922870066220505,0.1786786255455089,554.0,20.7564,0.03746642599277978,28.25,0.6672801533938253,541.6,579.0,13.461538461538462,23.076923076923077,449.0,1148.0,4.16,125.0,,,0.042703988738607035,0.12591941983055718,0.030365822205961235,0.19898923077512545,0.339137432463328,0.21460452192443585,0.6327951484613592,-2.0721131017684074,71.95025726343255,62.59134425305571,1.1495240775232263,14148.047286445728,0.8699252321487759,4.857666612631797,217.79915871937376,0.5673076923076923,0.5656565656565656,0.8214285714285714,0.11538461538461539,48.15840487399613,48.270989707567615,48.09697098231186,50.505050505050505,0.47142855790359633,0.5285714420964035,49.40553473797341,52.31419032923974,0.5066131776992259,0.49338682230077396,44.550493574604474,43.965098631342286,0.48658375658524733,0.5134162434147528,47.04069164290621,48.32030839857904,0.3678819408980369,3.0689221235990494,1.3166830693150413,1.3334070812311662,-0.8102297555090647,-0.6989094082535703,-0.49455052580594255,0.00824221913724812,0.8470765400700127,0.6099777420969019,0.576915735594981,5.7134666131978795,0.48447697499695125,0.5653376582937583,0.8742195602824497,0.8568723926629375,0.6699423620810147,1.8616071831055852,1.7855261820607913,1.0308368797140142,Relax
109.16308861691678,550.0,22.367850918605953,,,,,,,28.111972873989554,28.230243192855475,0.040668819852010825,0.05111267795270828,549.0,14.825999999999999,0.027005464480874316,20.0,0.795669909716713,535.0,560.8,4.672897196261682,17.75700934579439,486.0,647.0,3.566666666666667,70.3125,,,0.05527094950784382,0.06662575214297077,0.06293900507820849,0.18483570672902308,0.8295733666051391,0.29902744705531037,0.3604593145016451,-2.708664107359539,19.96179639621348,22.8305410114415,0.8743461833081243,1431.7450731726742,1.143711746091759,3.8628358072840165,104.44623169766109,0.5700934579439252,0.5769230769230769,0.8333333333333334,0.16666666666666666,52.937649880095925,52.68544838429457,53.207136497956675,47.11538461538461,0.5890533603915484,0.4109466396084517,15.328933116045308,12.803459353962563,0.49164405663776084,0.5083559433622393,16.008166758671518,16.277966700472035,0.533873613200712,0.4661263867992879,15.672230113318689,14.644124612455466,0.8494453742822868,2.3861228189147425,1.242186013493738,1.2208966106107386,-0.6462325745700284,0.19960100274034365,-0.5089221739611384,0.0012950924481175653,0.31357339094653297,0.730977439881674,1.504077396776274,5.508847216196187,1.036701631191297,1.1905006283405133,1.285171889002852,1.537669831108463,1.6059117985404145,1.8019578639948108,2.5496844331112865,1.0710741941011168,Relax
108.57328916677574,552.9719626168225,30.543028091198185,,,,,,,41.673144150594474,41.86980311987858,0.05523431594372305,0.07536212858493795,549.0,19.273799999999998,0.035107103825136605,26.0,0.7329187349249356,535.2,573.8,13.084112149532709,27.102803738317753,442.0,649.0,5.095238095238095,117.1875,,,0.04801913107674444,0.04779956387118248,0.03991668780263897,0.13573538275056587,1.0045934980945366,0.35377018212699035,0.3521525699678568,-3.0407387635601903,29.606421713011812,30.854573680106682,0.9595472625862399,2869.824532000198,1.0421581499849513,4.1648254536944975,128.6213817001374,0.5887850467289719,0.5961538461538461,0.8225806451612904,0.28,49.30027988804477,49.27321585283453,49.324705605906594,56.730769230769226,0.5701224977591874,0.4298775022408127,22.35546167420093,19.41207282668627,0.3727115043778978,0.6272884956221023,18.83674892970898,24.43729949769899,0.46734649343894785,0.5326535065610521,20.67111241452137,22.068191794626163,0.7263394253990244,2.301143907866118,1.3144536757928125,1.3550067525325185,-0.4905781830495286,-0.4408561515437568,-0.48237699232930137,0.0023856730626864203,0.39788343737473314,0.6950758289593915,1.199964782928397,5.76115060332095,0.9055782354769907,1.2485793457655927,1.196437645145738,1.4782582078998625,1.5295295764422552,1.7916268323801825,2.3013657194835395,1.0080698297422277,Relax
106.30630935927755,564.8653846153846,49.348189821771435,,,,,,,58.72372372521467,59.0093917868654,0.08736274370108993,0.10396056356896342,555.0,21.4977,0.03873459459459459,31.0,0.8403450375981932,541.0,583.2,24.03846153846154,34.61538461538461,442.0,797.0,6.117647058823529,156.25,,,0.029613086661748216,0.03866073121446266,0.0157206573250542,0.08399447520126507,0.7659732687795155,0.35255993433842187,0.4602770732458886,-3.2529308914009265,41.72594108618629,56.25718813136455,0.7416997271309266,7374.52469914317,1.3482545070742322,4.5747041444843575,303.39602981374105,0.5673076923076923,0.5656565656565656,0.8214285714285714,0.391304347826087,50.59147180192573,50.45464632339808,50.70949058696912,59.59595959595959,0.6030608711320324,0.3969391288679676,32.4039304079359,26.28930297631324,0.47847623030058073,0.5215237696994192,38.91420883215705,40.627030009773215,0.5226912688141979,0.47730873118580197,35.80733412944255,34.21756141512283,0.6930901071747122,2.983740901346134,1.3323830271382484,1.9662926652965411,-1.8540898073394505,-2.4167540222369746,-0.2875453468924529,0.0053905939072598314,0.762426313344021,0.663201338502565,0.9074467070777021,5.791752280987073,0.717755200599464,0.8077006993946034,1.2200161688995086,1.392369129284906,1.236166327432474,1.7988478418428642,2.4124618943423166,0.9019822697497624,Relax
105.47442795185927,569.3173076923077,45.848900088039706,,,,,,,51.18432329782539,51.434458505918656,0.08053312180844346,0.08990473784346703,561.5,23.7216,0.04224683882457703,33.25,0.8957605988313934,543.0,585.8,16.346153846153847,31.73076923076923,454.0,797.0,6.5,109.375,,,0.04862620567085386,0.023666351962324996,0.0018796229720635027,0.07417218060524235,2.054655730138004,0.6555854941039316,0.3190731588205768,-3.7437009880638916,36.36965439619318,54.04011384550887,0.6730121720351587,6174.549862888226,1.4858572274793258,4.4975754121057285,321.18357492461973,0.5673076923076923,0.5656565656565656,0.8035714285714286,0.22727272727272727,49.77913693510024,49.605444008828464,49.9495616336043,58.58585858585859,0.6433926394236649,0.35660736057633513,29.172828480773465,21.71879099657578,0.45394455150412927,0.5460554484958706,36.409746833661224,39.93324730026669,0.5130038918944194,0.4869961081055808,32.99032878026476,32.143196187507534,1.037538110858675,1.4261279739320962,1.3756041087012831,1.5560071577127617,-0.4344662328135307,-1.0593312643577408,-0.37350150034987806,0.0009159323386752741,0.14251454249257067,0.7221617835994243,1.1295745142720766,5.802515891359802,0.7308087402344904,1.0046201030865385,1.0696204054145477,1.4036050625702627,1.359377284088109,1.7370664501490836,2.222227012459207,0.7731276597855106,Relax
106.59544605945386,563.8952380952381,39.731290664606625,,,,,,,45.616187241609076,45.82902337895233,0.07045863837902507,0.08089479066305719,556.0,19.273799999999998,0.03466510791366906,29.0,0.8709910465372146,542.0,580.2,11.428571428571429,27.61904761904762,452.0,709.0,5.833333333333333,140.625,,,0.0452658407436339,0.016509426323613335,0.0039644412429784654,0.0657397083102257,2.7418179079239375,0.6885616305144584,0.2511332457653348,-4.103823768860744,32.40601320641401,44.9936800598966,0.7202347788239236,4580.64877502515,1.388436145270445,4.367897103131411,249.88340681557804,0.6476190476190476,0.6534653465346535,0.8787878787878788,0.23809523809523808,51.74578265986661,51.39139300052161,52.113690959737326,55.44554455445545,0.7052405883358671,0.2947594116641327,27.218907620234045,17.59688851578293,0.37581758863439296,0.624182411365607,27.582909001353,35.5473539993544,0.4883609415848012,0.511639058415199,27.4015127412316,28.046968301336157,1.06592721284296,1.0216932505258418,1.2503654771323638,1.2122358601186654,-0.05873697028606273,-0.28437655327945865,-0.5373200243752947,0.0005729151836562016,0.054776788937781255,0.7418060361948182,1.2546659186414542,5.786778108282751,0.7821220071642017,0.9692934393991074,1.2470940082548991,1.4917412716400027,1.4875843267061657,1.6845144573190658,2.79656755739419,0.8312875402824722,Relax
106.8438822985485,562.0571428571428,39.26312337477569,,,,,,,47.907262176321126,48.13832814964152,0.06985610604499538,0.08523557219251929,556.0,22.238999999999997,0.03999820143884891,32.0,0.8195651680170959,541.0,582.4,15.238095238095239,29.523809523809526,452.0,690.0,6.176470588235294,140.625,,,0.03913354862237648,0.02751967499486579,0.020717247842947373,0.08737047146018964,1.4220207407855445,0.44790359910336164,0.31497683982860425,-3.5928540757663163,34.03893826959479,43.824829849661185,0.7767044021930857,4686.47297076655,1.2874910933637325,4.37781622653782,225.69631239847925,0.580952380952381,0.5922330097087378,0.8524590163934426,0.16,49.46717084908903,49.378078276460286,49.559483321961544,49.51456310679612,0.5364299449916421,0.4635700550083581,24.931070021705537,23.17619300769859,0.4665908118604214,0.5334091881395788,29.935624998177268,32.00740644476304,0.49287014058088857,0.5071298594191116,27.547231226192952,27.942888090266866,0.8780263694909525,1.2040714831512247,1.318971206511999,1.046777291287019,-0.008078563082731804,-0.11458720105205566,-0.726061258848694,0.0017400021724965353,0.11093977975782644,0.7308931784965482,1.339377441332139,5.824873346377989,0.8616078501165091,1.020412283896483,1.2770519513133212,1.3069002084469183,1.559624909967719,1.7537367696203432,2.754506944269368,0.7033971494697843,Relax
107.50873647978563,558.3490566037735,33.81773061373918,,,,,,,43.51617105004923,43.7098009981366,0.06056736411348067,0.07793721603962522,556.0,19.273799999999998,0.03466510791366906,26.5,0.7771301977567009,543.0,576.0,15.09433962264151,25.471698113207548,468.0,677.0,4.24,109.375,,,0.04504945838251248,0.02103950375317713,0.02045683397772444,0.08654579611341405,2.141184455251691,0.5205274017408928,0.2431025503030313,-3.8613534772663907,30.90749669009691,35.18744546967453,0.878367164127723,3416.657482510553,1.1384760733776593,4.240571553228921,160.24025900202224,0.5849056603773585,0.5922330097087378,0.8360655737704918,0.14814814814814814,47.722095671981776,47.93279816272316,47.5001136004491,45.63106796116505,0.4295190963316133,0.5704809036683867,20.26305372232542,23.352544746854594,0.5483579946800808,0.45164200531991927,26.056724967128137,23.64748195197027,0.49658161392243627,0.5034183860775636,23.34035413362879,23.500476046482607,0.528691884888884,2.1285173710937486,1.2146506596226598,1.0140068625258116,0.2753064973710746,0.45472214227475827,-0.59426458051115,0.004362519722204258,0.4455169167826013,0.6698263611083966,0.9873866535578852,5.765287435531994,0.8548969264115561,0.9060074887055901,1.2510697937587671,1.4723780977226448,1.4418786496776537,1.8164831172642897,2.247197590289537,1.0790061106374942,Relax
109.54825791782841,548.0370370370371,28.381554469927412,,,,,,,39.68756485019354,39.8740478654451,0.051787657679802666,0.0724176691866747,548.5,18.5325,0.033787602552415676,24.25,0.7151246133910634,529.4,562.6,12.037037037037036,24.074074074074073,473.0,650.0,4.695652173913044,93.75,,,0.020895061388596727,0.08189212050699492,0.03389482974388487,0.13668201163947652,0.2551535026719933,0.15287352840336607,0.5991433658658768,-2.5023525014572683,28.195209639013207,28.80727831775994,0.9787529848535053,2551.6871657252423,1.0217082506774422,4.113797539208713,117.73053574726687,0.6481481481481481,0.6470588235294118,0.8636363636363636,0.20833333333333334,49.66159052453468,49.68907348041439,49.635975850216205,50.0,0.45636540561067085,0.5436345943893294,19.047359050336947,20.788921214988978,0.5456612776692197,0.45433872233078026,21.27961647293145,19.41744594023186,0.5019717357590834,0.4980282642409166,20.19435520173284,20.11487574066573,0.5766975461930072,2.832481832001756,1.184259270229484,1.4063027238158865,-1.012487730656014,-0.7182834222872847,-0.42160816317417266,0.0028727161049635474,0.5777955711561789,0.7129755761081027,1.1430640512389434,5.811244881809441,0.9093948178461234,1.2801462942069601,1.157101903766446,1.5503236825016615,1.5490851676596076,1.850515343470342,3.158534449622395,1.000724074394588,Relax
111.59950610960118,537.8909090909091,32.09714196157894,,,,,,,44.28380116782614,44.48823085194231,0.05967221497724587,0.08232859194937932,535.0,14.825999999999999,0.027712149532710277,21.0,0.7248054845142501,521.8,548.2,13.636363636363635,27.27272727272727,431.0,681.0,4.074074074074074,109.375,,,0.04553528415874562,0.09726703581926578,0.055426457366764145,0.19822877734477556,0.46814713510295336,0.22971076535243398,0.4906807029843657,-2.3302951363055784,31.457929718400983,33.00479145396118,0.9531322069488627,3261.797559531985,1.0491723946682792,4.220427113414541,138.51086434111843,0.7090909090909091,0.7142857142857143,0.92,0.3181818181818182,49.79667282809611,49.80850655754938,49.78547282704924,52.38095238095239,0.4856915627704615,0.5143084372295385,21.923583614877348,22.56020751152265,0.5035208120126552,0.49647918798734453,23.41993610643973,23.255598287073813,0.4950337526972039,0.5049662473027962,22.684101544344202,22.91054140186034,0.4437938597335245,2.3356158158945295,1.1267243462523637,1.0707026341795922,-0.3449797900430376,-0.2083056412428751,-0.5239858420599518,0.00402325754747706,0.4620418082055798,0.759186154904643,1.095549499137564,5.578833068298884,0.8859817522088489,1.3198427981073446,1.1405460605235969,1.346791703206382,1.4594508422277224,1.9091833580376898,2.7577580346604886,1.1713257686997138,Relax
109.1537645745578,550.3457943925233,55.894965987216096,,,,,,,63.047451432040226,63.34583127264684,0.10156335626933148,0.11455970423401268,538.0,20.7564,0.038580669144981414,36.5,0.886553932278549,524.2,573.6000000000001,18.69158878504673,31.775700934579437,437.0,799.0,5.35,117.1875,,,0.03429508453203109,0.010132484554280011,0.01225341463546082,0.05668098372177192,3.3846668453636752,0.6050545047060977,0.17876338568887593,-4.592008723837015,44.79226685278744,65.51468358009659,0.6836981330761608,9219.164459130941,1.4626338022903518,4.671661672313469,383.29596300242383,0.616822429906542,0.625,0.8461538461538461,0.30434782608695654,50.54914881933003,50.42264357993827,50.65734512792146,54.807692307692314,0.5895150801712601,0.41048491982874014,34.39206719164007,28.698514977342672,0.4106927229306648,0.5893072770693351,41.985289455655895,50.29323248633924,0.4676566503354675,0.5323433496645326,38.376938494293,40.94517062993956,0.8853608667547914,2.1668626407926066,1.4125094672325984,1.8243888780362787,-0.4754971355592197,-1.1866905173295874,-0.3099190031477857,0.005338173375863504,0.5085934280049866,0.5388806623431015,0.6230015711931858,5.950539972540488,0.6278302495289706,0.8030360382191409,1.0053950551724464,0.9505442540634544,1.162922276095885,1.7413357457877587,2.30865733520558,0.7560523723066708,Relax
107.44384771462914,559.4666666666667,47.79182957743901,,,,,,,59.68354044458154,59.971718969663115,0.08542390892058926,0.10667935017501466,552.0,19.273799999999998,0.03491630434782608,24.0,0.8007539301696681,535.8,582.2,20.0,31.428571428571427,437.0,799.0,4.2,125.0,,,0.02768074957343853,0.03459659303321478,0.021197242081932396,0.0834745846885857,0.8001004476615189,0.3316069157661061,0.41445660571157666,-3.364000069014804,42.4064091628627,51.15230036213,0.8290225241611575,6814.69685024378,1.2062398437386792,4.540416651101725,246.8077711827587,0.5904761904761905,0.5980392156862745,0.8360655737704918,0.28,49.51370468611848,49.413389159953475,49.60840292261329,57.84313725490197,0.6164211617417218,0.38357883825827815,33.29479973389821,26.264247173898784,0.2893720096057766,0.7106279903942235,27.51651500814112,43.12075178083412,0.42259102841889373,0.577408971581106,30.542611934096627,35.70161000400373,0.7771971291148682,1.391280887426379,0.7042209629137917,1.2744850681860052,0.30878227396939195,-0.2945127167465029,-0.0901157628010688,0.0027105011118488463,0.21064066403868648,0.5092511738331411,0.6852420010528325,5.858299774990626,0.6619138979009996,0.6538042915902211,0.9058379879981893,0.858071992470545,1.1482973944685784,1.8266409962167807,2.337162864891646,0.7673423448761283,Relax
108.0388686959192,557.9528301886793,89.43669025261568,,,,,,,127.98697850432545,128.60080565889632,0.16029435718136145,0.2293867359021101,542.5,43.7367,0.08062064516129032,63.25,0.6987952313413905,511.0,599.0,49.056603773584904,67.9245283018868,418.0,1178.0,8.833333333333334,125.0,,,0.05532372152665473,0.10624462563947651,0.03883715080228761,0.20040549796841886,0.5207201888440606,0.27605890101564473,0.5301482579895048,-2.242011054673626,90.9345017474589,88.34650551453655,1.0292937023128381,25238.755718240125,0.9715399965558763,5.109038050152642,343.32865465326614,0.6320754716981132,0.6442307692307692,0.8805970149253731,0.25925925925925924,50.0472925041381,50.03194626025329,50.08987763588715,48.07692307692308,0.5078268807014076,0.4921731192985924,64.80173163640708,63.795157460301134,0.5156281221406965,0.4843718778593033,63.439196504593575,61.486367460450914,0.5116149100131969,0.48838508998680336,64.12408313662411,62.65139862312019,0.4926422786332243,2.8217431101804236,1.0769551030769535,1.378849799776149,-0.6257566733091622,-0.47075611786385974,-0.3930112753319021,0.007241653186236373,0.7203741662639958,0.8681326319168345,1.4343035803062512,6.310329298841593,1.1771753941185104,1.2943685223965915,1.1524829080141519,1.2907340113291732,1.3978526491016725,1.9933705340399226,2.397943429012263,1.1424770583220525,Stress
107.10904837893915,562.9047619047619,99.83578091137039,,,,,,,145.95415507828267,146.66091316481044,0.1773582098924607,0.25928747624092174,548.0,34.099799999999995,0.06222591240875911,46.0,0.68402150564212,518.8,599.0,51.42857142857142,61.904761904761905,418.0,1178.0,9.545454545454545,164.0625,,,0.025110532550733613,0.0826177237329259,0.04129838209987594,0.14902663838353547,0.30393638817630886,0.16849694003101015,0.5543822542671911,-2.4935310484348627,103.70492623384887,96.79956174022342,1.0713367330335344,31537.16502522492,0.9334133416376554,5.205792760614842,361.41600957200995,0.6285714285714286,0.6407766990291263,0.8484848484848485,0.36363636363636365,49.93340732519423,49.795807501537155,50.09502343533321,50.48543689320388,0.5295381751608687,0.47046182483913124,75.46544891924069,71.13145904604669,0.46403145924875977,0.5359685407512401,65.93972072339984,70.86683557221501,0.49903820264548493,0.5009617973545151,70.86282787774734,70.99927059498138,0.2378131243859946,1.9822262548392067,1.5907012121503694,0.7270494083996119,0.7895765013208997,0.7819609680541874,-0.9356978935388054,0.008036430922093498,0.5150707923250839,0.7812601440431441,0.9075570519054005,6.137775755637735,1.0152471626172774,0.6262185112578694,1.0788152576840702,1.0586462374600323,1.199720751922074,2.052011642235604,2.3599307102665805,1.0870683219078485,Stress
108.55574300907014,555.4766355140187,77.83137866923968,,,,,,,114.34852384556775,114.88247676693005,0.1401163859884354,0.20585658610060822,548.0,40.0302,0.0730478102189781,55.0,0.6806504889766138,508.4,584.6,46.728971962616825,64.48598130841121,443.0,1106.0,7.133333333333334,109.375,,,0.026785235022365787,0.1593921408921077,0.06522225667951903,0.25139963259399256,0.16804614626825717,0.10654444776227508,0.6340189889995748,-1.8363878181570301,81.23417836140224,74.26187605629028,1.0938880442479932,18951.9796489319,0.9141703351255314,4.984624691321428,271.5520164857182,0.6542056074766355,0.6698113207547169,0.8732394366197183,0.30434782608695654,51.018788039163795,50.874615072816454,51.1247286334677,54.71698113207547,0.5642909296600607,0.4357090703399394,61.02747234608673,53.6255980097636,0.4073263482626807,0.5926736517373196,47.39550645123053,57.17072855606429,0.4928389507600901,0.50716104923991,54.63829432147848,55.42651425778075,0.4984331971008959,1.7123729601325013,1.013663326746347,0.9184747487117175,0.6133819461446315,0.6685044382383984,-0.5555886948993074,0.004551905224769407,0.32643790361446107,0.7132401526345706,1.170524870258396,6.250538715251797,1.1005846698398645,0.9173470030761459,1.203300649096113,1.2624639582790458,1.3984519595779838,2.0072025709748815,2.1643106807733967,1.0710741941011168,Stress
108.82769716922074,552.8224299065421,58.374977368039275,,,,,,,83.50788009365253,83.9016623720118,0.10559444445462879,0.1510573297609687,544.0,48.925799999999995,0.08993713235294117,63.0,0.6990355557172907,510.2,599.8,46.728971962616825,73.83177570093457,426.0,709.0,10.7,156.25,,,0.047647316890329784,0.06094800795111288,0.032083048252829656,0.1406783730942723,0.7817698804618562,0.33869681488568293,0.43324362238870934,-2.797734106917715,59.327434416073736,57.73067561926955,1.0276587581848984,10759.995275862258,0.9730856590627898,4.738782190616752,224.70757013246816,0.7009345794392523,0.7169811320754718,0.9078947368421053,0.34782608695652173,49.443943492636,49.291642460541276,49.58805854008844,55.660377358490564,0.5753208206732162,0.42467917932678384,45.001375640349146,38.66350561791657,0.39727525700634214,0.602724742993658,36.387515102281824,44.81941155502305,0.48872936814527196,0.511270631854728,40.92172445561524,41.85478657695676,0.47839499025188237,2.4514520356841003,0.998245949827695,1.3539307091244333,-0.6690719612560923,-0.8836280590610173,-0.35490853823804014,0.00478363860685106,0.5454819688320849,0.6247707487543028,1.955388893009857,6.294976916206596,1.4162313057761173,1.42769234640601,1.2627247047343517,1.3365155072158228,1.7438919485003619,1.9540819472821895,4.626610743553867,1.0710741941011168,Stress
106.69625311417857,563.8173076923077,61.223887149785334,,,,,,,87.89197915623473,88.32176649877597,0.10858816555379154,0.1558873378966934,551.5,42.9954,0.07796083408884859,70.25,0.6965810502566473,522.0,610.0,49.03846153846153,69.23076923076923,426.0,758.0,8.666666666666666,125.0,,,0.04186381356169917,0.07126856086758722,0.027063553697190084,0.14019592812647647,0.5874092734870804,0.29860933995124395,0.508349720423356,-2.6412999903537644,62.452920017659316,60.57247045202099,1.0310446239290805,11884.417721879532,0.969890125792251,4.781948018249844,234.99456394503218,0.625,0.6407766990291263,0.8787878787878788,0.2692307692307692,49.97782049386365,49.81215012002265,50.137950213957396,53.398058252427184,0.582172369371917,0.41782763062808304,47.65171848432965,40.36931226252213,0.39366246298698676,0.6063375370130133,38.00469831669701,47.16637661001534,0.49079813215790125,0.5092018678420989,43.098975444045976,43.89959256682698,0.5315826932723635,2.406171095002344,0.9256432968115189,1.5675971681888747,-1.2533262213391847,-1.9051077522090323,-0.233205226880705,0.0057035966089252245,0.5636093837893643,0.7359218759504733,2.072061434382214,6.197894886347915,1.417534153871921,1.2548810191352928,1.3931504060561475,1.6260128241490486,1.6360959942985955,1.9627216238331284,4.1799053173490215,1.159691489678266,Stress
107.14633724288154,561.2952380952381,60.527476883440784,,,,,,,87.16281184789055,87.58425741607176,0.10783536501902542,0.15528870714043214,548.0,42.9954,0.07845875912408759,54.0,0.6944185897658788,516.2,595.4,49.523809523809526,63.8095238095238,463.0,758.0,9.545454545454545,132.8125,,,0.03922872284906267,0.07747423716770396,0.026720127179632902,0.14342308719639954,0.5063453901991515,0.27351749021650856,0.5401796787543203,-2.5578098215303524,61.931422344092496,59.63749051107491,1.038464593552802,11603.26704477729,0.962960129992293,4.771550397443136,229.71410245983532,0.6,0.6153846153846154,0.890625,0.2857142857142857,50.25952839982203,50.12788434575013,50.39297550229317,54.807692307692314,0.5855946843853821,0.41440531561461796,47.39285309275909,39.86822955882716,0.3710016804503753,0.6289983195496248,36.325140172679326,47.298144423367695,0.4823467799648776,0.5176532200351225,42.223206491434574,43.741228801035575,0.44295368803876917,2.8210929600477135,1.0095376715505808,1.4719160430836484,-1.0163663737834092,-1.1259631450018035,-0.33609956209126585,0.006814762584738505,0.7290716640773716,0.6807723185793062,1.4685324593568627,6.1974392080805005,1.3062445642244653,1.3068365450123913,1.2573292800136626,1.467153512903704,1.794886283412815,1.963642683704059,3.8446051996986377,1.0870683219078485,Stress
106.69366247401899,563.9238095238095,58.0672182173542,,,,,,,80.18086526002419,80.55628972364808,0.10296997083061189,0.14218386226275992,558.0,47.4432,0.0850236559139785,63.0,0.7242029383075864,518.6,604.4,51.42857142857142,66.66666666666666,457.0,743.0,8.75,101.5625,,,0.03539462168164388,0.10733683971351392,0.03088319689057089,0.1736146582857287,0.32975278363061056,0.2038688554937147,0.6182475648851196,-2.231783354501102,56.96189873081974,58.78409463071961,0.9690018888383523,10519.477373079744,1.0319897324439775,4.728964273769463,242.65832835967112,0.6095238095238096,0.625,0.8769230769230769,0.23333333333333334,51.155576237009456,51.06942673151913,51.23613897198459,53.84615384615385,0.5913286161052808,0.40867138389471935,43.80949491446111,36.42008141255435,0.3837462349285196,0.6162537650714802,36.41513275005164,46.14659129718591,0.48428680902919796,0.515713190970802,40.28233941731834,41.56879970871544,0.6228920836940318,2.0983360281965133,1.0569094949578643,1.4342949840274128,-0.41633936128218973,-0.9045239950301984,-0.3201501170458836,0.0048253880812485625,0.44056654609799795,0.576061957371873,1.9459101490553132,6.357009565243964,1.4784052348038978,1.445231963050955,1.183272886408072,1.475884673151641,1.8684008952895346,1.9753921300839097,3.283916136110307,1.0231231265015044,Stress
107.97274731383678,557.3867924528302,54.04840348370584,,,,,,,76.90724159351842,77.2638159344156,0.09696749943761859,0.1379782273905007,547.0,40.0302,0.07318135283363802,53.5,0.7027739178238961,519.0,597.0,45.28301886792453,67.9245283018868,456.0,723.0,7.571428571428571,85.9375,,,0.017552252204435216,0.06591436969897689,0.021682183076946634,0.10514880498035875,0.2662887058557075,0.16692773833914598,0.6268675113453677,-2.7193988081485476,54.63376818757449,52.94543894892652,1.031888095975115,9087.398675562497,0.9690973312905781,4.665409691475167,205.23713435765168,0.6886792452830188,0.701923076923077,0.9452054794520548,0.25925925925925924,51.180714988520826,51.03557680180576,51.3174487804799,54.807692307692314,0.5993066536134201,0.4006933463865801,42.3014025044815,34.588862702854556,0.3788536527011097,0.6211463472988902,32.588494119544585,41.72780315946328,0.49255656287624355,0.5074434371237563,37.75856593427342,38.32491995811496,0.5643339978377621,1.681043342551564,0.9373772611373953,1.12186692882107,-0.21166582675161294,-0.549820365739836,-0.39025287866543173,0.0019169963384573182,0.2355367517565778,0.5213025070842656,1.6441234704219905,6.055427883665613,1.331961297574173,1.1492512939789985,1.295508023833474,1.503702373546967,1.985328595134113,1.9793093226788745,3.555675346301809,1.205948006006611,Stress
108.10808654441355,556.5943396226415,53.42084100207776,,,,,,,77.44687887590466,77.81621063353468,0.09597805295378298,0.13914420856024498,551.5,41.5128,0.07527252946509519,54.75,0.6897739686537335,516.0,603.0,39.62264150943396,61.32075471698113,423.0,695.0,10.6,156.25,,,0.022455821922387178,0.040338273804828725,0.030617454070520432,0.09341154979773633,0.5566877261787807,0.2403966315836819,0.43183389947145756,-3.2104545385261076,55.024370225213104,51.91949953759601,1.0598016297396855,8975.020533339446,0.9435728082864202,4.660005560806111,195.95931193405985,0.660377358490566,0.6699029126213593,0.9565217391304348,0.16666666666666666,50.51903114186852,50.44820284980784,50.58448837583542,51.45631067961165,0.5366406686652101,0.46335933133478985,40.309619008561526,37.45638489270914,0.4581037407732572,0.5418962592267428,35.14086249886005,38.219814430091674,0.4996514898179316,0.5003485101820683,37.81365891962304,37.84002500198311,0.3489975285645766,2.6317627497762004,0.9488361403736622,1.2459035091162871,-0.9238257878928096,-0.9574662638992703,-0.38712228381229014,0.0046368909823710355,0.5814462226346804,0.5640222469260192,1.7147984280919266,6.190000171462691,1.1170720154529874,1.172993957841183,1.3975595973311346,1.9045104884342483,1.8017072372189413,1.951628937965161,5.1042450342243875,1.1424770583220525,Stress
106.29820366819935,566.1826923076923,63.27943337156818,,,,,,,95.96581106416953,96.43464017074976,0.11176504374170969,0.1694961933100153,564.5,70.42349999999999,0.12475376439326837,83.5,0.6593955979724392,509.0,619.4,62.5,76.92307692307693,423.0,757.0,14.857142857142858,132.8125,,,0.013705617427460971,0.08334441982766339,0.04665274906317265,0.143702786318297,0.1644455316360826,0.09537475075189895,0.5799777580029535,-2.4847736207048006,68.1895880060218,58.507026494670264,1.1654939943364506,12533.603903918356,0.8580052791857832,4.805046075651998,200.79735040755833,0.6346153846153846,0.6470588235294118,0.9242424242424242,0.13793103448275862,49.81245311327831,49.77378195054699,49.849522166934015,48.03921568627451,0.5164921587396634,0.4835078412603367,49.00630211573633,47.41566300326524,0.48505506305887325,0.5149449369411268,40.74774198907941,41.984445596428486,0.5031622547968575,0.4968377452031425,45.06659585695046,44.78246738445013,0.43921862674671147,2.848282021366656,0.9059644311125452,1.7341552097845283,-1.4102320223130196,-2.1471384557531414,-0.20923146919468238,0.013235970466580085,0.9462525046337779,0.6042397756569775,1.858898772065683,6.339768804637948,1.5371148393860126,1.4458942480789043,1.1783399075068886,1.6197487702555193,1.8166490534456647,1.9823031331590932,4.951373113804208,1.09526418469614,Stress
108.28222197411459,556.0934579439253,56.56679683319141,,,,,,,88.59506140671938,89.00949856941962,0.1017217448346523,0.15931685608078675,546.0,40.0302,0.07331538461538462,52.5,0.638487021003421,519.4,602.0000000000001,49.532710280373834,68.22429906542055,441.0,757.0,7.642857142857143,132.8125,,,0.023935901455166678,0.04324294558826387,0.024178410099703843,0.09135725714313439,0.5535215311896532,0.26200328472717827,0.4733389217291495,-3.140921166693577,62.93922002845091,49.129685636910715,1.2810833045747236,9714.382833980642,0.78058936247863,4.694385324541377,153.40043996036655,0.6635514018691588,0.673076923076923,0.9428571428571428,0.17857142857142858,50.801759614020156,50.63703505678181,50.95681719368691,50.96153846153846,0.5735604318734427,0.42643956812655726,47.66969687338068,41.10375953144733,0.3819716226919591,0.6180283773080407,30.364038615969122,38.623194711333845,0.5010277096374853,0.4989722903625145,39.96482729270867,39.882767063787426,0.3866327934515549,2.5358009089127407,0.4345100890094644,1.5671066585296467,-1.2278352648337538,-2.052982086077197,-0.05335745580839051,0.00854811961290093,0.719317947812659,0.6019217423885235,1.264597426142371,6.219277238915847,1.3187700980890829,1.081312295747097,1.2472603572894863,1.6459191124562786,1.6516720474389768,2.00869084334516,3.867637156601834,1.1340785584600062,Stress
109.36961193370242,550.0841121495328,72.88814401291667,,,,,,,84.95276156849292,85.34730747411872,0.1325036342680318,0.15443594841619365,544.0,34.099799999999995,0.06268345588235293,46.0,0.8579843982370228,509.6,572.4000000000001,38.31775700934579,60.747663551401864,424.0,926.0,8.23076923076923,148.4375,,,0.005197016499873047,0.08888333362203416,0.03728752219076238,0.13136787231266958,0.05847008981428109,0.03956078764451321,0.6765987151750644,-2.4204306273555485,60.34965987096266,83.40812232463618,0.7235465586441722,15813.683555719139,1.382081067283167,4.906003153935096,461.10714689007244,0.6542056074766355,0.6601941747572816,0.9117647058823529,0.2692307692307692,51.057645729048915,50.82749258319895,51.26035492947626,52.42718446601942,0.583310566419041,0.416689433580959,46.09679257512702,38.96072503481032,0.6058655745896118,0.3941344254103882,64.92268651954272,52.36372451236312,0.5981140303081709,0.4018859696918289,56.30217362868462,46.15136910236116,0.8305762631614501,1.0936660977407162,1.4962540892812073,1.377409312031808,0.14307660940522293,-1.0067276693500533,-0.6086664179267396,0.009091783037264685,0.30972361126333775,0.7043094973091026,1.2008429113170083,6.2600672200055705,1.0561812511664055,0.7673798815238791,1.3471673984886388,1.3879591922787011,1.3201711164094079,1.9590954367407305,2.4466204203494675,1.0710741941011168,Stress
108.28626910359468,555.3301886792453,69.07480027003345,,,,,,,75.99461133778469,76.35909357870332,0.12438509859209283,0.13684581333228873,551.5,31.875899999999998,0.05779854941069809,42.25,0.908943398144459,515.0,574.0,36.79245283018868,52.83018867924528,424.0,882.0,6.625,156.25,,,0.04709800362423719,0.027648496032742578,0.007601881098834418,0.08234838075581419,1.7034562591926028,0.5719360015577701,0.3357503302308766,-3.588183945522349,53.99403287475928,81.25220594356789,0.6645239012004149,13782.588820790204,1.504836768389476,4.846300909898134,489.0852280665395,0.6320754716981132,0.6407766990291263,0.8939393939393939,0.25,49.9813571961223,49.879677117223686,50.08454114647491,53.398058252427184,0.5627347895922454,0.43726521040775473,40.50397653792298,35.70411256208665,0.49542762304479854,0.5045723769552013,57.19068118182816,57.716089235623514,0.5160453209080412,0.48395467909195894,49.55474815507657,47.989220719348054,1.0354500184697006,0.8831936445610951,1.2953683463940406,1.4770468407502482,0.6604606626279392,-0.3933121194328084,-0.29429370277399014,0.0063486592148080355,0.19124862160618028,0.4945995485879231,0.7808979291174538,6.042739412269892,0.8592126235704856,0.9610788227334351,0.942948685112329,1.0078077786618567,1.238594459000584,1.8520280524950667,2.9456864927376394,1.1424770583220525,Stress
