PPG_Rate_Mean,HRV_MeanNN,HRV_SDNN,HRV_SDANN1,HRV_SDNNI1,HRV_SDANN2,HRV_SDNNI2,HRV_SDANN5,HRV_SDNNI5,HRV_RMSSD,HRV_SDSD,HRV_CVNN,HRV_CVSD,HRV_MedianNN,HRV_MadNN,HRV_MCVNN,HRV_IQRNN,HRV_SDRMSSD,HRV_Prc20NN,HRV_Prc80NN,HRV_pNN50,HRV_pNN20,HRV_MinNN,HRV_MaxNN,HRV_HTI,HRV_TINN,HRV_ULF,HRV_VLF,HRV_LF,HRV_HF,HRV_VHF,HRV_TP,HRV_LFHF,HRV_LFn,HRV_HFn,HRV_LnHF,HRV_SD1,HRV_SD2,HRV_SD1SD2,HRV_S,HRV_CSI,HRV_CVI,HRV_CSI_Modified,HRV_PIP,HRV_IALS,HRV_PSS,HRV_PAS,HRV_GI,HRV_SI,HRV_AI,HRV_PI,HRV_C1d,HRV_C1a,HRV_SD1d,HRV_SD1a,HRV_C2d,HRV_C2a,HRV_SD2d,HRV_SD2a,HRV_Cd,HRV_Ca,HRV_SDNNd,HRV_SDNNa,HRV_DFA_alpha1,HRV_MFDFA_alpha1_Width,HRV_MFDFA_alpha1_Peak,HRV_MFDFA_alpha1_Mean,HRV_MFDFA_alpha1_Max,HRV_MFDFA_alpha1_Delta,HRV_MFDFA_alpha1_Asymmetry,HRV_MFDFA_alpha1_Fluctuation,HRV_MFDFA_alpha1_Increment,HRV_ApEn,HRV_SampEn,HRV_ShanEn,HRV_FuzzyEn,HRV_MSEn,HRV_CMSEn,HRV_RCMSEn,HRV_CD,HRV_HFD,HRV_KFD,HRV_LZC,Labels
102.29234858095545,586.52,29.461318587756605,,,,,,,17.602800511810212,17.672785722248147,0.0502307143622666,0.03001227666884371,583.5,33.3585,0.057169665809768636,45.25,1.6736722414135285,561.0,615.4,0.0,23.0,521.0,656.0,7.6923076923076925,70.3125,,,0.03633894586672841,0.0060775280501061835,0.007021426947985971,0.04943790086482056,5.979231287314834,0.7350422495908757,0.12293256679170378,-5.103157236382559,12.496546626658462,39.52739252522648,0.3161490254810796,1551.808238329475,3.1630652616382853,3.897808163107683,500.1108887187388,0.51,0.5154639175257733,0.76,0.029411764705882353,52.81980742778541,52.865155503725745,52.77388901526211,43.29896907216495,0.5326639718346591,0.467336028165341,9.130572103585596,8.552359741197579,0.6287102694783034,0.3712897305216965,31.341764543464677,24.085442805673132,0.6199651375144466,0.38003486248555357,23.08325747849245,18.072789108051484,1.3604759412866978,0.8223875921486865,1.3764938769321038,1.7012178179198312,-0.5821100522054792,-1.3109274050276367,-0.10514489264203568,0.0004748422974632221,0.047991914271689806,0.6625717958540016,1.8382794848629476,5.90611181466655,1.097006904436116,1.53600639884847,1.1620072256631515,1.673698187009628,1.7778753943329866,1.5460314763795273,2.232832000500223,0.7308241808752197,Relax
99.93977690267808,600.4591836734694,22.34046228252325,,,,,,,15.866387996051184,15.941372668090892,0.037205630107694426,0.026423757729849878,601.5,24.462899999999998,0.04066982543640897,32.75,1.4080370584712367,582.0,621.6,0.0,17.346938775510203,551.0,656.0,6.533333333333333,93.75,,,0.03774288867940778,0.02567759043222379,0.011308282429240835,0.07472876154087241,1.4698765750248428,0.5050650900826793,0.34361054435753763,-3.6621366350836158,11.272252715028955,29.252674489294687,0.38534092734509284,1035.9198810539547,2.595104565948293,3.722296277956261,303.6549965334712,0.5102040816326531,0.5106382978723405,0.8125,0.06060606060606061,51.81747873163186,51.90873898370468,51.729217314365364,45.744680851063826,0.48478643679102346,0.5152135632089766,7.852149387269704,8.094815727777046,0.5777033524724393,0.4222966475275607,22.23402155989118,19.009662018324434,0.5656803886258748,0.43431961137412556,16.67345142323127,14.609813340997777,1.297432975785776,0.614020038184953,1.297432975785776,1.4707531026180232,-0.07308683287068973,-0.604499424751479,-0.21772887519341808,0.00012987311368395864,0.01765754731253395,0.6463265992681584,2.001480000210124,5.776557135059926,1.2538447158401278,1.0659881924804269,1.2403558638843901,1.576083678657122,1.8920206040131244,1.6813420371588723,2.2164824114397215,0.8774615099336501,Relax
100.11299009741862,599.0918367346939,23.067845579603006,,,,,,,16.2680510368047,16.352400067650883,0.03850469020798649,0.027154519623356112,599.5,25.9455,0.04327856547122602,32.5,1.4179845838579255,577.4,617.0,0.0,24.489795918367346,556.0,670.0,6.125,70.3125,,,0.050833364843337094,0.013750206538148312,0.0072421439606049996,0.07182571534209041,3.696916457386002,0.7077321068259289,0.1914384906945798,-4.28670143402613,11.562892976511296,30.116620763623715,0.38393726398671885,1094.013343031669,2.604592192006119,3.745992728823634,313.76606116217476,0.5408163265306123,0.5425531914893618,0.8235294117647058,0.08823529411764706,50.26985350809559,50.25342975398919,50.28694320922703,47.87234042553192,0.5024346538896032,0.49756534611039704,8.19616272003755,8.156349775890357,0.5222142764992032,0.47778572350079673,21.763593748176596,20.817224439974215,0.5196731389461788,0.4803268610538213,16.44431658915938,15.809536284327356,1.2554440849975395,1.1985758282420038,1.3761279975488583,1.2158391261233645,0.1598852317355206,0.9402233346886719,-0.6337327748888407,6.975761706968456e-05,0.053619964268648124,0.6161694484534124,1.864784604242945,5.7213539765475065,1.1972518323663892,1.3043265515367413,1.1276360126237857,1.4431743278281857,2.006906554747729,1.6231447295701862,2.5572353285349334,0.8774615099336501,Relax
101.09224909511697,593.5858585858585,27.772402283418746,,,,,,,17.626510645928207,17.716708466561236,0.04678750661207277,0.029694963906183827,593.0,26.686799999999998,0.04500303541315345,36.0,1.5756040909795315,571.6,615.8,1.0101010101010102,25.252525252525253,531.0,670.0,5.823529411764706,93.75,,,0.04658443567952514,0.015898172017933757,0.003113165313231094,0.06559577301068999,2.930175596727478,0.7101743533372704,0.24236580023750723,-4.141551143790762,12.52760469701057,37.383496000185374,0.33511057117152576,1471.288453203081,2.984089688678164,3.8746679365665013,446.22281976357823,0.48484848484848486,0.49484536082474223,0.7708333333333334,0.1,50.43227665706053,50.44740213780076,50.41665650277829,50.51546391752577,0.47845507094062,0.5215449290593798,8.665609240275876,9.04741234293501,0.511265890245151,0.4887341097548492,26.730268584014123,26.134622909511126,0.5079531255413879,0.49204687445861206,19.86957526066784,19.55599888429937,1.4717758750967571,0.604986119877645,1.5558152891406458,1.6404075954232797,0.3758752540325787,-0.2399794519299201,-0.360174798225549,8.50974788656324e-05,0.02020597508916347,0.6498910496477097,1.7227665977411037,5.9878437412480245,1.098495596785104,0.9965383349066065,1.2613887180760586,1.6306069197289357,1.967697946249413,1.5222504536269323,2.409051439795858,0.8705215763740901,Relax
102.0909137703734,587.56,26.16857549493941,,,,,,,17.489101945745723,17.570478276488778,0.044537707629755965,0.029765644267386693,589.5,24.462899999999998,0.04149770992366412,31.5,1.4962789728208425,568.0,607.4,1.0,23.0,531.0,647.0,5.555555555555555,93.75,,,0.04521500567715847,0.00411160866480991,0.004154514792940237,0.05348112913490862,10.996913705368133,0.8454385015526042,0.07687961588167272,-5.4939409244218735,12.424204337996136,34.63677740792796,0.3586997771666939,1351.935390022137,2.787846727697528,3.8379260468134517,386.24810621871853,0.53,0.5263157894736842,0.84,0.14285714285714285,51.8332135154565,51.76135605397152,51.90623143601118,51.578947368421055,0.47359730524091026,0.52640269475909,8.553851024359657,9.018122344049502,0.5116597567494943,0.48834024325050557,24.77582407924597,24.20464604989308,0.5073173781154445,0.4926826218845554,18.533885536399044,18.26460266489323,1.403204781718847,0.43427377924267274,1.7608934818631816,1.5437565922418452,1.8636899281249901,0.8636899281249901,-1.0,0.00035366167876807795,0.025451089436806826,0.798611140596508,1.9029851043382793,5.923465189601647,1.1648645009857845,1.2215510066903792,1.235401586357556,1.5409584404763972,1.7961700740900444,1.6047523959228354,3.2024439155573763,0.8637013046707142,Relax
101.1042327894895,593.3131313131313,26.420711752005868,,,,,,,17.252920486286445,17.331063700419765,0.04453080567007016,0.02907894596585444,588.0,26.686799999999998,0.04538571428571428,37.5,1.531376196453608,570.6,617.4,0.0,22.22222222222222,535.0,663.0,7.615384615384615,117.1875,,,0.047254696207457585,0.011565215997428605,0.0036782953046087486,0.06249820750949494,4.085932871289574,0.7560968240613699,0.1850487631292718,-4.4597533066526855,12.254912667742834,35.04151981103198,0.34972548947162585,1349.096536641108,2.859385518369923,3.8370131373434684,400.78885715735044,0.5353535353535354,0.5164835164835164,0.8297872340425532,0.1,52.148579752367084,52.06461158718915,52.233602551298716,52.74725274725275,0.5301155256933257,0.46988447430667446,8.928120754458105,8.405631396585132,0.49968249861559016,0.5003175013844099,24.770227952289996,24.785962112827864,0.503002659645335,0.4969973403546651,18.618210615075153,18.506736030886106,1.3941776608054504,0.2762842780294359,1.5913636649321186,1.4999166388627707,0.3533243420616703,-0.6466756579383297,-0.8309888884071966,0.00011166449639727396,0.010272033312766127,0.6588889193396206,1.5629178967992077,5.740072781520944,1.1762045144525284,1.224053626970458,1.4824277706259117,1.6007373808115375,1.9007860646354622,1.6028531190026112,2.777634365392098,0.7365951800088454,Relax
101.12512822050371,593.3030303030303,29.555708225023903,,,,,,,16.36852380114259,16.448764563641344,0.049815535595576325,0.0275888086949132,588.0,29.651999999999997,0.05042857142857143,43.5,1.8056428657885932,566.6,622.4,0.0,17.17171717171717,549.0,668.0,7.071428571428571,62.5,,,0.02343252076302209,0.007702007214566064,0.004857399199940236,0.03599192717752839,3.0423914325484427,0.6510493491343864,0.21399263164143162,-4.866274306876529,11.631032965091773,40.20614419635672,0.28928496371820006,1469.1312109515995,3.456799092309982,3.8740306951649033,555.9382510530006,0.4444444444444444,0.4421052631578947,0.7380952380952381,0.029411764705882353,48.66514111365369,48.69637486248897,48.635883338732874,48.421052631578945,0.46966523212857525,0.5303347678714248,7.972892217337342,8.472210485786098,0.5500794196354107,0.4499205803645893,29.81982732460749,26.96872131690379,0.5438668417185336,0.4561331582814664,21.8264645783357,19.98862526518876,1.2730332823828998,0.6634026396586394,1.2730332823828998,1.4832698583564459,-0.23792936350205096,-0.8402069017436098,-0.1830935492181258,0.000260224106273026,0.0250677960933787,0.6026856999712544,1.2927683031090673,5.814920352573642,1.0303469878041496,1.1654601174947246,1.1391210024129717,1.392533553316414,1.8966593352533756,1.601100658611391,2.5636562341437648,0.5357055854609786,Relax
104.28145052088311,575.1941747572815,37.776447235464936,,,,,,,18.642666644228854,18.721295247615704,0.06567599063638938,0.03241108387805843,566.0,32.6172,0.05762756183745583,42.0,2.0263435460376726,545.8,602.0,1.9417475728155338,19.41747572815534,516.0,689.0,7.923076923076923,93.75,,,0.03589067199136887,0.0026895391551880134,0.002708098743160531,0.04128830988971741,13.344543403332574,0.8692695847137887,0.06514045167680321,-5.918385417818929,13.237954822184548,51.75178014526875,0.2557970911343576,2152.266571874957,3.9093485995692943,4.039866170415511,809.2629969444976,0.47572815533980584,0.4851485148514852,0.7551020408163265,0.02857142857142857,47.52407152682254,47.42755965830152,47.625445564659884,46.53465346534654,0.49565585331452755,0.5043441466854726,9.326582895940586,9.407970078082679,0.5317018892880576,0.4682981107119426,37.73630686752198,35.41493882819008,0.5294851852846644,0.47051481471533546,27.48648763042159,25.91069077807985,1.553127605804779,0.620598541369511,1.6432443455391104,1.6075875697097364,-0.5134287125091728,-1.453500429211408,-0.5574554618686147,0.001994722969843598,0.06901898155892365,0.70466391933962,1.2556741787028265,6.023736813527971,0.8651412524463173,0.8719526987765478,0.9181885754606792,1.1738094604284168,1.622271380896338,1.4931625652067524,2.509877170624852,0.7790097701572681,Relax
106.29629773902441,564.495238095238,31.411696685226804,,,,,,,17.786392811100548,17.87246067654933,0.05564563625234199,0.03150849043672489,560.0,23.7216,0.042359999999999995,31.0,1.7660521174154356,538.8,581.0,1.9047619047619049,19.047619047619047,507.0,689.0,7.5,31.25,,,0.014327484466930628,0.0051321013917686375,0.005866204455202927,0.025325790313902193,2.791738388082207,0.5657270430398289,0.2026432868691743,-5.272240075649039,12.637738140877941,42.75868806632284,0.29555953918126754,1697.6321706755336,3.3834130435109966,3.9368137066171243,578.6812117080588,0.47619047619047616,0.4854368932038835,0.76,0.05555555555555555,49.8223169864961,49.81076297638721,49.834850519264215,49.51456310679612,0.5279170845870946,0.4720829154129053,9.182349044802345,8.683205528629804,0.4812693600197303,0.5187306399802696,29.66323266703489,30.796071712061803,0.48501694777917603,0.5149830522208237,21.957036528630503,22.62516398997895,1.3190939010523395,2.463458281017382,1.3190939010523395,2.153575090482581,-2.1671080382551864,-1.8561080103407779,-0.16125621210617389,0.010517209351540322,0.5697786346994234,0.7551622584278608,1.3176658547307942,5.836731560643099,0.9545993502782512,1.032146028102216,1.0665594573729653,1.504187054699014,1.6549669154808386,1.609332054462934,2.006080522764857,0.7673423448761283,Relax
106.11201251797648,565.4761904761905,21.42118615103319,,,,,,,14.469796128487781,14.53983929797895,0.037881676561827116,0.025588692100904708,563.0,17.7912,0.03160071047957371,24.0,1.4804069083502622,550.8,581.6,0.0,15.238095238095239,507.0,617.0,5.526315789473684,93.75,,,0.0483479977094915,0.014015251724489246,0.009276587794648863,0.0716398372286296,3.449670306314347,0.6748758732546376,0.19563489067906895,-4.267609133450034,10.281218964963566,28.610051627791314,0.35935688263409377,924.0875579164265,2.7827489838791406,3.6726832328251913,318.4583683838641,0.44761904761904764,0.46153846153846156,0.7083333333333334,0.029411764705882353,50.12028869286288,50.1228194563583,50.11744952873096,49.03846153846153,0.48693455797933427,0.5130654420206658,7.174320440739162,7.364306464884378,0.5596228438701649,0.44037715612983497,21.40259131058619,18.98589316668838,0.551309588725467,0.44869041127453313,15.96154423284895,14.39960327657749,1.3411959303286138,1.5951350383346865,1.4449630557964213,2.0545603961740997,-1.3595742229890089,-2.0862984874946457,-0.11783966515205183,0.00215282692639471,0.21437686447059204,0.8015556657216796,1.930758344034711,5.599621113478911,1.197133920932267,1.4840155447771384,1.5877667110613924,1.6427398605519397,1.734031574828568,1.635771244606332,2.7731381693762573,0.9591779310951603,Relax
104.37518386692808,574.8155339805825,36.24528301232372,,,,,,,17.49509735247418,17.570878733298997,0.06305550366971832,0.030436020459156853,571.0,32.6172,0.05712294220665499,47.5,2.0717394297436056,549.4,601.6,0.9708737864077669,24.271844660194176,499.0,677.0,9.363636363636363,156.25,,,0.04457747297374418,0.004490342458009226,0.0017055519763163746,0.050773367408069786,9.927410523941957,0.8779695980270782,0.08843893338647345,-5.405826308864937,12.424487503722213,49.73898089176563,0.24979376901103956,1941.4456583381152,4.0033024200687946,3.9950953489776815,796.4807303030434,0.44660194174757284,0.4444444444444444,0.6136363636363636,0.034482758620689655,52.180028129395225,52.1346426655058,52.218539508113494,48.484848484848484,0.5475336322869956,0.45246636771300436,9.199117478119172,8.362457358295282,0.5388877425823194,0.4611122574176806,36.51287542227146,33.775377844653505,0.5393961124755272,0.46060388752447234,26.625305951092404,24.603931003179326,1.5085771986514243,1.2049713672672049,1.770226344766788,1.991020980634158,-0.008742116942329403,-0.7715662369158363,-0.31676358304835284,0.001072868352590444,0.131087072452041,0.6842739920223093,1.3150668518315227,5.975003318298321,0.9246294231256725,1.2026923764915134,1.467144899698946,1.7812059555167092,1.7067995491685795,1.4658202463657786,2.1828848299051504,0.6491748084643901,Relax
103.86359728276464,577.7087378640776,39.09205602766151,,,,,,,19.075443612655718,19.169216023174187,0.0676674134654668,0.03301913639593202,576.0,40.0302,0.069496875,52.0,2.049339287801708,541.8,609.0,0.9708737864077669,29.126213592233007,499.0,677.0,9.363636363636363,62.5,,,0.03302492406804478,0.014720017219484583,0.0013430173214516391,0.049087958608981005,2.2435384127357114,0.6727703698397967,0.29987022554226667,-4.218546995880149,13.554682640016287,53.5547195748428,0.25309968472663924,2280.5362296944836,3.9510124284826817,4.065007086004397,846.3814505764348,0.47572815533980584,0.4639175257731959,0.6,0.03333333333333333,50.42678923177939,50.46112386642483,50.393537133290614,51.546391752577314,0.5347164219318336,0.46528357806816645,9.911988940292218,9.246085604724897,0.48702532691983547,0.5129746730801646,37.37433920295467,38.35709527431053,0.489896588964099,0.5101034110359011,27.34125779486004,27.899434195807952,1.5084088329699963,1.925194428306531,1.850142246315519,2.2940085214074717,-0.6951611086192155,-1.2321655827977231,-0.26944340344762313,0.0033651514168434858,0.34542642135045587,0.6693888230259062,1.3955110162248148,6.034855716709784,0.8916591209150666,0.88384661188393,1.1023504047178885,1.5309549460503895,1.8082085163656758,1.425422301717824,2.022316323576004,0.7790097701572681,Relax
105.28800191510526,569.9029126213592,30.287354043608335,,,,,,,17.619897397934118,17.705196571454877,0.053144760928307645,0.030917366814092236,565.0,31.1346,0.05510548672566371,40.0,1.718929081117092,543.8,595.4000000000001,0.0,24.271844660194176,513.0,652.0,6.866666666666666,62.5,,,0.0495515639824035,0.01820651682167732,0.0009453067108429182,0.06870338751492373,2.721638876218523,0.721239021462223,0.2650017339788741,-4.005975681864994,12.519464557916553,41.131459750034466,0.30437685980512913,1617.7438242009282,3.28540086996176,3.9158798605233653,540.5333345822414,0.4563106796116505,0.45454545454545453,0.6444444444444445,0.034482758620689655,49.12157413914265,49.12459360528224,49.12095091681061,49.494949494949495,0.5162787760128843,0.4837212239871159,8.99642393200523,8.708138903825365,0.4630218616846125,0.5369781383153877,27.988193721873888,30.140636910250652,0.4675383094238595,0.5324616905761403,20.787912730448642,22.184337679136164,1.5617531964391276,2.0828657327420057,1.7707781959402893,2.431375605675208,-1.3510061523493526,-1.8687367566694917,-0.18284205777140053,0.00435672438929424,0.3912789993475269,0.698129283190386,1.3083328196501787,5.943497371717385,1.0203532718721908,1.0172387896960364,1.1717808446301845,1.7584846018231228,1.7564435693976093,1.482071109273616,2.7074242946894707,0.7790097701572681,Relax
105.18320762494461,570.2912621359224,26.446257405242363,,,,,,,15.471986069705999,15.539620643557564,0.04637324672693162,0.027129972168534522,564.0,19.273799999999998,0.034173404255319145,26.5,1.709299458136398,550.4,587.0,0.0,18.446601941747574,530.0,670.0,5.421052631578948,70.3125,,,0.03425076654928513,0.017949458717569984,0.007188155184371443,0.05938838045122656,1.9081782402584915,0.5767250477122203,0.3022385621765052,-4.020195319512549,10.988171134126015,35.690888153491116,0.30787048747205814,1232.0622260945727,3.2481190652961125,3.7976027526660485,463.7130170748227,0.5145631067961165,0.5151515151515151,0.803921568627451,0.058823529411764705,52.088258471237204,52.05651397669997,52.11714768008399,46.464646464646464,0.5064094688127124,0.4935905311872874,7.823865495209431,7.724206518253746,0.5662283951201523,0.4337716048798476,26.856732752360838,23.506497039186442,0.5610440506904769,0.43895594930952314,19.78000209073371,17.495981958580014,1.4595021030241238,1.425872528248575,1.6286393105283254,2.1724383671484113,-1.7640911901459404,-2.812484188455362,-0.11862014601821104,0.0019737713061378837,0.1853721714336647,0.7495410413254704,1.2685113254635072,5.641367124350746,1.0772885186849352,1.213262542369384,1.2009630381278258,1.3006942162443489,1.6568356076751634,1.6187490606215955,2.104664262794866,0.9737622126965852,Stress
104.1480925723913,576.2156862745098,28.612684112096535,,,,,,,16.160702856982525,16.241000554457873,0.049656204774795765,0.028046273716476968,571.0,25.2042,0.04414045534150613,33.0,1.7705098822316323,552.0,601.8,0.0,18.627450980392158,530.0,670.0,6.375,62.5,,,0.04318259920350356,0.009010614214608121,0.0020842552175289212,0.054277468635640605,4.792414609594026,0.7955897776549635,0.16601021457163934,-4.709352039362615,11.48412162531164,38.95219334436295,0.294826058285973,1405.3340639286062,3.3918304433932636,3.854749683224664,528.4769408894027,0.45098039215686275,0.44897959183673475,0.6363636363636364,0.0,50.394944707740905,50.41008559517408,50.37910601286627,46.93877551020408,0.45841231329137927,0.5415876867086207,7.775602870517501,8.451627062288065,0.5592120982329499,0.4407879017670499,29.12863921953925,25.861085506114264,0.551150747909922,0.4488492520900781,21.31827411848905,19.23831780009044,1.4808956266571145,1.9898807991269707,1.7002740116447055,2.431851506906738,-1.5773645644745393,-2.4926285945383198,-0.13235109581287458,0.003750783489741114,0.3751164653613347,0.755428487660958,1.6582280766035324,5.722485606779524,1.0544955384680643,1.2523308456195934,1.3529890394789958,1.6425885953528365,1.7046962993380568,1.4994935650337102,2.0988403142982275,0.7849912167025288,Stress
104.08918354195391,576.5098039215686,28.202501503417768,,,,,,,16.380681691348116,16.453932088960343,0.04891937884070152,0.02841353534653268,571.0,27.428099999999997,0.04803520140105078,39.75,1.7216927863456168,551.4,603.6,0.0,18.627450980392158,536.0,649.0,7.285714285714286,85.9375,,,0.03610387452161181,0.0070903500460724736,0.0016084069501817125,0.044802631517865996,5.091973497360779,0.8058427216984928,0.15825744617802298,-4.949020567855371,11.634686957286792,38.165649892058276,0.30484708082248074,1395.009731991531,3.2803331995241325,3.8515473473459427,500.7841936893335,0.49019607843137253,0.4845360824742268,0.7021276595744681,0.06666666666666667,48.04138950480414,48.04683814006455,48.038679845604,47.42268041237113,0.44308328105973954,0.5569167189402605,7.748548251124206,8.687059341342154,0.538300897446423,0.46169910255357716,28.001752583197618,25.932965197843334,0.5301969553662886,0.46980304463371125,20.54431974695943,19.338868683981406,1.472017282835735,1.0678128359797685,1.5098702557979786,2.005923700825619,-0.8717642117995599,-1.864284897736361,-0.035449070929655734,0.0006508464263244091,0.09057477966758735,0.7636168598177813,1.9459101490553135,5.688076047913574,1.0895164023968267,1.1843736287715745,1.4751407691147178,1.6141560867636853,1.9539731348564664,1.5087606500554527,2.7443071211257783,0.7849912167025288,Stress
104.72103033980284,572.9320388349514,29.343891416263407,,,,,,,17.313714387223584,17.398813045692272,0.05121705442749155,0.030219490644005104,567.0,29.651999999999997,0.05229629629629629,38.5,1.6948351324264264,547.4,598.0,0.0,25.24271844660194,519.0,649.0,7.357142857142857,101.5625,,,0.03517212014298988,0.005594462670887251,0.004503131799531906,0.045269714613409034,6.286952333424324,0.7769459216465169,0.12358069227213889,-5.185977979205065,12.302818689205974,39.595440065808674,0.31071301818488095,1530.381371088475,3.218403933770739,3.891769780465923,509.73648026872866,0.5145631067961165,0.5051546391752577,0.7346938775510204,0.06666666666666667,49.59016393442622,49.61239844210725,49.56786441324857,42.2680412371134,0.445316588173731,0.554683411826269,8.210112093879072,9.162990562016528,0.5823493370595492,0.4176506629404507,30.215999651170687,25.588908516884814,0.5702840945399074,0.42971590546009253,22.140602696331534,19.219165371122443,1.3883317538553055,1.1210264919345316,1.5775167770888405,1.9488449998225712,-1.3314837201136545,-2.3717783102831214,-0.16876052849300863,0.00109185086605589,0.1104211217459427,0.7024906253817327,1.9568392195875037,5.78777795407362,1.1253260504503726,1.3390465511499041,1.0887348493287752,1.6338842984834263,1.9166439618000728,1.5482006696887936,2.5041752291802517,0.5842573276179511,Stress
105.48282389865551,568.8461538461538,25.112472911744316,,,,,,,16.893153665810864,16.975660339876956,0.0441463350713558,0.029697227539626943,566.5,20.0151,0.03533115622241836,26.25,1.4865473557236435,548.0,588.4,0.0,27.884615384615387,519.0,647.0,5.777777777777778,54.6875,,,0.05144874265958225,0.007685562043381012,0.006197780135630601,0.06533208483859386,6.694206925815025,0.7874958037339372,0.11763840174959321,-4.868411769547927,12.003604541446526,33.605757610907744,0.35718892817195114,1267.2877663753354,2.7996388497198854,3.8098453524368425,376.33593832706816,0.5,0.5,0.66,0.0,50.21008403361344,50.21306243833313,50.20666360628682,43.0,0.45216710893379614,0.5478328910662038,8.07167645438751,8.88460885519469,0.5937102294211531,0.40628977057884674,25.89410808613371,21.42060015561442,0.5776947315214546,0.4223052684785454,19.178852864036067,16.397841100835688,1.409435835816562,0.46401865170048495,1.4958756987343005,1.6414451616668044,0.38758639765679703,-0.6102570813706383,-0.1862853197839422,0.00024555554397685814,0.02199976121961521,0.7802404638793452,1.5218398531161146,5.742278751874317,1.2084212745307572,1.0076590456838814,1.1987803514607267,1.3567261388021516,1.7706984255645526,1.55832741489506,2.6442982892101794,0.9664095747318882,Stress
105.48087474234752,568.7307692307693,22.501879433578782,,,,,,,15.384079527635748,15.44708425415856,0.039565081847098685,0.02704984565622029,568.0,20.0151,0.035237852112676056,27.0,1.46267310911626,550.0,584.0,0.0,21.153846153846153,520.0,647.0,4.7272727272727275,70.3125,,,0.05613413087039286,0.017697149668510083,0.010979471525238491,0.08481075206414145,3.1719306171816295,0.6618751691759464,0.20866634521912883,-4.034351688047387,10.922738025675459,29.700569590491348,0.367761904107468,1019.1689134749848,2.7191505939880556,3.71521627837519,323.04128577507254,0.4807692307692308,0.49019607843137253,0.74,0.027777777777777776,47.622641509433954,47.652000452187515,47.594299427781564,49.01960784313725,0.4530910284284367,0.5469089715715633,7.358135420250506,8.084116598396548,0.4714814967523972,0.5285185032476029,20.39375065001785,21.592099676143484,0.4692874779044452,0.5307125220955548,15.330479810460085,16.30294006615043,1.2442515858713943,1.2460368785236096,1.3112843504304332,1.867270025133199,-1.2692000228980262,-2.2972908216791357,-0.05379677416808401,0.001526000977513293,0.14177492793392923,0.6630708182133143,1.957744606702316,5.674783078714185,1.2125637067190687,1.0269487701808981,1.2189421967984484,1.327493897461506,1.9253453383673633,1.6373212975829672,2.396202405278736,0.9664095747318882,Stress
105.3342908031288,569.6538461538462,29.57917439481728,,,,,,,17.30508651863595,17.3896400535405,0.05192482170449323,0.03037824923938523,569.5,23.7216,0.04165338015803336,31.5,1.7092763080359807,544.6,585.8,0.0,21.153846153846153,519.0,675.0,6.5,78.125,,,0.03965641434944518,0.00627070668302551,0.0034081547606879528,0.04933527579315865,6.32407419992919,0.8038145872682921,0.12710391463738555,-5.071866222071938,12.296332404251682,40.18044560034993,0.30602777596236,1552.1733276219381,3.267677245489623,3.897910326256839,525.1869112075883,0.5,0.5098039215686275,0.7692307692307693,0.02857142857142857,50.171350239890344,50.16960709726524,50.17264292257732,51.9607843137255,0.5018641595072134,0.4981358404927864,8.711047752203891,8.678630505499147,0.5238087912187961,0.4761912087812039,29.08045117996448,27.727162996101548,0.5219295887896309,0.4780704112103688,21.465728426627805,20.544028271779652,1.4518954735218494,1.040550210351726,1.4518954735218494,1.7063805614795693,-0.8954280457999957,-1.075140709481886,-0.25543218825384795,0.0009771877312666972,0.06398342229410156,0.6905514911707353,1.5533484457830569,5.858623612163835,1.0472656052743055,1.0492674444350556,1.2079114890199738,1.5535952810110836,1.823498737963966,1.507531577601977,2.3714421182804153,0.8375549647676365,Stress
104.81860127784476,572.3592233009708,29.988185375842974,,,,,,,18.132951264717708,18.21734012598364,0.052393993413597725,0.03168106763465683,570.0,26.686799999999998,0.04681894736842105,35.5,1.6537950683291502,547.8,592.0,0.0,27.184466019417474,519.0,675.0,7.357142857142857,85.9375,,,0.044818922757158555,0.006324274321481039,0.0016684950786708375,0.052811692157310436,7.086808775028391,0.8486553057920625,0.11975140472005505,-5.063359982732401,12.881604738264825,40.505833877852304,0.31801850511484475,1639.220659665709,3.144471104405934,3.9216075289531935,509.4776967550941,0.49514563106796117,0.5,0.72,0.03333333333333333,51.4765100671141,51.48000412022381,51.46957167472836,49.0,0.5050092432464667,0.4949907567535334,9.156775341432448,9.065493274876534,0.5389527758725661,0.46104722412743393,29.73671111480616,27.503646853003524,0.5358335687191593,0.46416643128084084,22.00134680626281,20.477228310144447,1.4414879719316145,1.8575734735305858,1.456418074675115,2.3614761125128725,-1.5668552277738623,-2.501800637550722,-0.012774029811286855,0.004575358679067749,0.3642554709445569,0.6468214802851029,1.5606477482646683,5.809764968699741,1.0701576446383647,1.2330630325717682,1.045196408318431,1.3040076684760487,1.7622807540158816,1.548143584329745,2.170711008483758,0.7790097701572681,Stress
105.47146943448111,568.9423076923077,25.166562391077928,,,,,,,17.757536346221528,17.8443681155637,0.04423394437505669,0.031211488592310946,568.5,28.9107,0.050854353562005274,38.5,1.4172327681273704,544.0,590.0,0.0,31.73076923076923,516.0,637.0,6.933333333333334,93.75,,,0.04320855242315046,0.013179774134175004,0.006288476071407478,0.06267680262873294,3.278398550936558,0.6893866727551025,0.2102815329021426,-4.329071887067135,12.617873700504106,33.452404881371834,0.3771888372524883,1326.0606663267733,2.6511919262621366,3.829533503146885,354.7549829421804,0.5,0.5098039215686275,0.6923076923076923,0.030303030303030304,50.03223726627981,50.03363804513937,50.03075821541205,42.15686274509804,0.4687336432771945,0.5312663567228054,8.638718132940335,9.196919774214262,0.5818105247178385,0.41818947528216155,25.51632535248887,21.6328577135145,0.567726645601277,0.432273354398723,19.048757314775923,16.621730749029975,1.352699634261917,1.2229415520674771,1.4849881438577683,1.8943199694836064,-0.8935983779300614,-1.7535268104453423,-0.16528913427315395,0.0004916468278992546,0.10121203258668261,0.7387893730345123,1.7619065060783743,5.856454742075541,1.2154170720692425,1.1931413153018013,1.13685408429327,1.852845661057051,1.873546864220561,1.617693568893151,3.274944955207738,0.9664095747318882,Stress
105.92101806389124,566.6153846153846,27.06637210413987,,,,,,,19.14811963188274,19.232548439418682,0.047768509008120866,0.03379385761803905,566.0,32.6172,0.05762756183745583,44.25,1.413526373580452,538.6,591.0,0.9615384615384616,28.846153846153843,516.0,637.0,7.428571428571429,46.875,,,0.03132930959333064,0.005182646011947224,0.0048150841165069715,0.041327039721784836,6.0450413786913435,0.7580825968721863,0.1254056919352799,-5.262439540014129,13.5994654210117,35.722659674770604,0.38069576971102254,1526.214221047184,2.626769403713304,3.890585605893331,375.3407578118019,0.5192307692307693,0.5247524752475248,0.7547169811320755,0.030303030303030304,48.11612106238419,48.118370589951404,48.11586731757134,43.56435643564357,0.42316960148285454,0.5768303985171456,8.850888955021277,10.333649584028393,0.6203710969966517,0.3796289030033485,28.136467028189678,22.01017122630074,0.5953877477261367,0.40461225227386344,20.85664177333593,17.193486428536932,1.4211600125984194,1.5955974179601782,1.5537955297038302,2.0314744998869614,-1.2984384639563054,-1.7912321841110215,-0.2006268844469559,0.0010321347589126917,0.163338320456168,0.6902824223995698,1.5988558031035636,5.894916280537078,1.2339158184781276,1.611626981981897,1.2264083327665252,1.4773973039695636,1.976893436865093,1.5334193474316182,2.785284418680288,0.8375549647676365,Stress
102.25463508386272,592.26,273.0872735773291,,,,,,,387.3322510807391,389.30337251609,0.4610935629239339,0.6539902257129286,557.5,35.5824,0.06382493273542601,47.75,0.705046566133746,530.8,588.6,5.0,23.0,508.0,3207.0,7.6923076923076925,23.4375,,,0.05958380910578531,0.06966979646956867,0.0009439232806807207,0.1301975288560347,0.855231565543774,0.45764162829595506,0.5351084393207318,-2.663988391294044,275.2790546449198,273.6423037280793,1.0059813519128495,236649.8746998692,0.9940542119379487,6.081076388817907,1088.0611383412026,0.5,0.49473684210526314,0.7659574468085106,0.06451612903225806,49.87890376035691,49.5526810360716,50.13575845805147,47.368421052631575,0.5036068093393206,0.4963931906606798,195.3525201855792,193.94836783988438,0.4971083322424952,0.5028916677575048,192.93399595175848,194.05304325286227,0.5003769479066881,0.4996230520933117,194.1470241038609,194.0007126062329,0.5355145116322314,3.195249198206156,1.50701710733947,1.5755300236960892,-1.3171539463787454,-1.2019357723003055,-0.4785578801193086,0.013185301421611348,0.918048954250824,0.21174565774697374,0.14821012225837346,5.983465189601644,0.20718487735004548,0.22572916244690905,0.21335305511896419,0.20569816634819052,0.1492122300787999,1.838018591880749,1.3117717033714844,0.9965784284662087,Stress
107.94863726700531,556.56,71.57553331758675,,,,,,,87.40998255637082,87.85429200316071,0.12860344494319886,0.15705401494245155,544.0,31.875899999999998,0.0585954044117647,43.0,0.818848502474275,523.8,578.0,2.0,21.0,494.0,1191.0,6.666666666666667,85.9375,,,0.039852752812168955,0.021611089183343812,0.004058573333580408,0.06552241532909317,1.844088119486566,0.608230826229533,0.32982741974330254,-3.8345487079128415,62.122365631777996,80.53929683306187,0.7713298734224407,15718.304277552006,1.2964621680772392,4.903375801625419,417.66460555043085,0.44,0.43157894736842106,0.6829268292682927,0.0,49.39903846153846,49.46997518228226,49.294017719942545,48.421052631578945,0.4649766660937852,0.5350233339062148,42.36099717467299,45.43985708873761,0.5380814953765588,0.461918504623441,59.07882674894446,54.73820022920239,0.5108116527177043,0.4891883472822958,51.40409444618419,50.30432971711854,1.0662402662092925,2.207112529060175,1.6603503855038624,1.2475888911923436,-0.4430938750470048,0.38519856721309864,-0.6870142500107502,0.006850817313015476,0.3901328621441806,0.6954529668672529,0.6964860818254599,5.913660689688184,0.5407947063911184,0.643386661186758,0.8970568502393884,0.9001844794272148,0.9172563563310825,1.7032312944452557,1.4327415959151948,0.6643856189774725,Stress
110.0073361582237,545.4351851851852,31.001438962125537,,,,,,,16.780885877721754,16.857656058927446,0.0568379888283151,0.030766049447331377,541.0,30.3933,0.05617985212569316,40.75,1.847425647729536,518.0,570.0,0.0,17.59259259259259,491.0,655.0,7.714285714285714,117.1875,,,0.012747585530590478,0.007698159373579573,0.0032713456653469418,0.023717090569516996,1.6559264250024184,0.5374852152807749,0.3245827877165436,-4.866774021089949,11.920162914178086,42.22782295971187,0.28228220350243266,1581.360023798306,3.542554180151786,3.906000865756746,598.3774029785475,0.4444444444444444,0.44761904761904764,0.6808510638297872,0.02631578947368421,48.969438521677326,49.001257036298185,48.94020759978251,47.61904761904761,0.49985065215226837,0.5001493478477316,8.428668508737822,8.43118649185139,0.5153894924008171,0.4846105075991829,30.315621220985857,29.396464785794926,0.5142424111576839,0.4857575888423161,22.24948699233846,21.624488983128117,1.373893206171534,0.9935637289164996,1.4665559711291531,1.7984980196670608,-0.6911166902271368,-1.518765139436332,-0.16590764248218193,0.00022493088365803482,0.05897261172702783,0.7599616430423093,1.3673663512343717,5.990727085376608,0.9794078761538774,1.089474944076462,1.166803991830427,1.6736162284616092,1.8036228852283882,1.4908380618059587,2.3887113460107057,0.6879978011462792,Stress
